VaMe,time
0.00995279508042574,0.001
0.010174309400349756,0.002
0.010397725751292388,0.003
0.010622863595469729,0.004
0.010849537769128854,0.005
0.011077561170654358,0.006
0.011306746924580858,0.007
0.01153690934857919,0.008
0.011767863381381156,0.009
0.011999422336656226,0.01
0.012231394620237389,0.011
0.012463581509933245,0.012
0.01269577809934659,0.013
0.012927777017042036,0.014
0.01315937264676507,0.015
0.013390363964265701,0.016
0.01362055499550483,0.017
0.013849752388917462,0.018
0.014077760793901445,0.019
0.014304379215774347,0.02
0.014529402090344187,0.021
0.014752625117700794,0.022
0.014973852402914278,0.023
0.015192901891470514,0.024
0.015409607887764831,0.025
0.015623820338810249,0.026
0.0158354010235978,0.027
0.01604421718406955,0.028
0.01625013406115907,0.029
0.016453009656598065,0.03
0.016652694961432853,0.031
0.016849039039690043,0.032
0.01704189523514125,0.033
0.01723112549054009,0.034
0.017416601516669763,0.035
0.017598202351929257,0.036
0.017775808436408934,0.037
0.017949294336486083,0.038
0.018118525054475674,0.039
0.01828335868555007,0.04
0.018443651769415113,0.041
0.01859926204878929,0.042
0.018750046553092533,0.043
0.01889585648474324,0.044
0.019036534198159965,0.045
0.019171917081477908,0.046
0.019301846725264478,0.047
0.019426177951978027,0.048
0.019544784033856098,0.049
0.019657556739053905,0.05
0.019764401000858682,0.051
0.019865225653249587,0.052
0.019959935135315472,0.053
0.020048428853243466,0.054
0.020130609726134802,0.055
0.02020639652263466,0.056
0.02027573429265805,0.057
0.020338600563316163,0.058
0.020395006622373982,0.059
0.020444993689111974,0.06
0.02048862426638669,0.061
0.020525969938305487,0.062
0.020557099935133584,0.063
0.0205820776608914,0.064
0.02060096794450063,0.065
0.020613849423088238,0.066
0.02062082528943823,0.067
0.02062202974619909,0.068
0.02061762962265845,0.069
0.020607821041161482,0.07
0.0205928214939215,0.071
0.020572858193259835,0.072
0.02054815579533919,0.073
0.020518930142915687,0.074
0.020485391845243683,0.075
0.020447754972443246,0.076
0.0204062440403493,0.077
0.020361096835350808,0.078
0.02031256328614789,0.079
0.020260901081824264,0.08
0.02020636895202492,0.081
0.020149219148624147,0.082
0.020089692072290853,0.083
0.020028015655242665,0.084
0.01996440850788439,0.085
0.01989908315817911,0.086
0.019832246847597615,0.087
0.019764099521212265,0.088
0.01969483008364346,0.089
0.019624613292450313,0.09
0.019553609432507377,0.091
0.019481966312340625,0.092
0.019409821305511273,0.093
0.01933730201752204,0.094
0.01926452554718443,0.095
0.019191596724984588,0.096
0.019118605933981,0.097
0.019045627789460052,0.098
0.018972721944552465,0.099
0.01889993584529961,0.1
0.018827308061816633,0.101
0.01875487094454125,0.102
0.01868265182361046,0.103
0.01861067224723634,0.104
0.018538945232427856,0.105
0.01846747191728841,0.106
0.01839624056160342,0.107
0.018325229421536006,0.108
0.01825441155494539,0.109
0.018183758876193938,0.11
0.018113244468316483,0.111
0.018042843176754364,0.112
0.017972530698742974,0.113
0.017902281377549473,0.114
0.01783206477193943,0.115
0.017761841582685598,0.116
0.017691561269207585,0.117
0.01762116417791336,0.118
0.01755058828541087,0.119
0.017479778076407583,0.12
0.017408693119560597,0.121
0.017337314630802177,0.122
0.01726564849810351,0.123
0.017193723570659906,0.124
0.01712158484298449,0.125
0.017049283201430013,0.126
0.016976866973599132,0.127
0.016904381032790714,0.128
0.016831873048276186,0.129
0.016759400811233525,0.13
0.01668703593984297,0.131
0.01661486319222948,0.132
0.01654297648508315,0.133
0.01647147324695293,0.134
0.016400448825092187,0.135
0.016329992313476673,0.136
0.016260184508391,0.137
0.016191097955701558,0.138
0.016122798451689367,0.139
0.016055347023742204,0.14
0.015988801378948883,0.141
0.015923216043350896,0.142
0.0158586408496531,0.143
0.01579511802309525,0.144
0.01573267912863258,0.145
0.015671343990125635,0.146
0.015611122527252145,0.147
0.01555201820333594,0.148
0.01549403147239221,0.149
0.015437162711289412,0.15
0.015381414594657895,0.151
0.015326793855090724,0.152
0.01527331236889606,0.153
0.015220987470110975,0.154
0.01516984129729877,0.155
0.015119898894877993,0.156
0.015071184856858008,0.157
0.015023718897307305,0.158
0.014977512171514202,0.159
0.014932566785916496,0.16
0.014888878705382278,0.161
0.014846441578142865,0.162
0.01480524910140934,0.163
0.01476529505821606,0.164
0.014726570972697774,0.165
0.014689062271739665,0.166
0.014652745462774671,0.167
0.01461758858001438,0.168
0.014583553997491677,0.169
0.014550600609956523,0.17
0.014518683360083618,0.171
0.014487750574369651,0.172
0.014457742341342226,0.173
0.014428593010369946,0.174
0.014400236878323721,0.175
0.014372613638858124,0.176
0.014345671278609234,0.177
0.014319365680328162,0.178
0.014293656977257388,0.179
0.014268503886075092,0.18
0.014243859397165352,0.181
0.014219671379681076,0.182
0.014195887763090102,0.183
0.01417246251438149,0.184
0.014149359231482039,0.185
0.014126551147323935,0.186
0.014104017412828558,0.187
0.0140817369862562,0.188
0.014059684026379467,0.189
0.014037828716319744,0.19
0.014016142911854112,0.191
0.013994606473638479,0.192
0.013973211198124634,0.193
0.013951961457679088,0.194
0.013930871557239505,0.195
0.013909960099462541,0.196
0.013889243228780266,0.197
0.01386873152476119,0.198
0.013848433910312555,0.199
0.013828365872739019,0.2
0.013808557021117487,0.201
0.013789055399820307,0.202
0.01376992778787531,0.203
0.013751255986115861,0.204
0.013733129885486875,0.205
0.013715639356071972,0.206
0.013698868566637698,0.207
0.01368289526700514,0.208
0.013667793411877694,0.209
0.013653635530919148,0.21
0.013640493105105646,0.211
0.013628435154759009,0.212
0.01361752573700941,0.213
0.01360782103925549,0.214
0.013599366891132647,0.215
0.013592197573968543,0.216
0.013586335934883466,0.217
0.013581793664030471,0.218
0.013578571131577916,0.219
0.0135766579132046,0.22
0.01357603529202723,0.221
0.013576680403493958,0.222
0.013578570726318176,0.223
0.013581687826178477,0.224
0.013586019535878546,0.225
0.013591560001417582,0.226
0.013598307445402798,0.227
0.013606259952864384,0.228
0.013615410549269949,0.229
0.013625744345513833,0.23
0.013637239906927171,0.231
0.013649873808868838,0.232
0.013663625784999398,0.233
0.0136784829394642,0.234
0.013694442443920292,0.235
0.013711512347594783,0.236
0.013729710294220782,0.237
0.013749060193370828,0.238
0.013769587170795888,0.239
0.013791311993645606,0.24
0.013814247651452354,0.241
0.01383840013186282,0.242
0.013863772166465362,0.243
0.013890367167241142,0.244
0.013918191818695792,0.245
0.013947256914049272,0.246
0.01397757620971283,0.247
0.014009163131393353,0.248
0.014042026236029775,0.249
0.01407616643844179,0.25
0.01411157840336522,0.251
0.014148254385098437,0.252
0.014186186790650696,0.253
0.014225367497946605,0.254
0.014265784452875154,0.255
0.014307418380001139,0.256
0.014350242778525115,0.257
0.014394227083531712,0.258
0.01443933982639733,0.259
0.0144855492757761,0.26
0.014532821132951061,0.261
0.014581114595797032,0.262
0.014630379735267053,0.263
0.014680558428510636,0.264
0.01473158776554488,0.265
0.014783403231794974,0.266
0.014835940117159097,0.267
0.014889132733339024,0.268
0.014942911462920807,0.269
0.014997198934847475,0.27
0.015051908498703848,0.271
0.01510694691597652,0.272
0.015162219097911737,0.273
0.015217631398864125,0.274
0.015273091692986202,0.275
0.015328506150451372,0.276
0.015383775034618711,0.277
0.015438792030204635,0.278
0.0154934490610837,0.279
0.015547643329604413,0.28
0.015601282304339643,0.281
0.015654284891368993,0.282
0.015706578716370857,0.283
0.015758094089924585,0.284
0.01580875691920609,0.285
0.01585848547627377,0.286
0.01590719419452252,0.287
0.015954801732055622,0.288
0.016001238733040123,0.289
0.016046453235348524,0.29
0.01609041313453069,0.291
0.01613310539711126,0.292
0.01617453209358537,0.293
0.01621470371056952,0.294
0.016253631054118443,0.295
0.016291318991583637,0.296
0.016327765897050067,0.297
0.016362969101179972,0.298
0.016396932655019777,0.299
0.016429673909232983,0.3
0.016461227449269072,0.301
0.016491645831918738,0.302
0.01652099692687489,0.303
0.01654935816360875,0.304
0.016576808643940514,0.305
0.01660342161583229,0.306
0.01662926118625492,0.307
0.016654384567558182,0.308
0.0166788464462303,0.309
0.01670270161073217,0.31
0.016726004658437134,0.311
0.01674880704014277,0.312
0.016771152652236762,0.313
0.016793074800187532,0.314
0.016814596909839646,0.315
0.016835735937065426,0.316
0.016856505281624856,0.317
0.01687691501736788,0.318
0.01689696928976475,0.319
0.016916663276701445,0.32
0.01693598357366682,0.321
0.016954913115200528,0.322
0.016973437566251467,0.323
0.016991549659311326,0.324
0.01700924999446863,0.325
0.017026544256369572,0.326
0.017043437579345844,0.327
0.01705992808321966,0.328
0.01707600317555056,0.329
0.017091640742386994,0.33
0.01710681319990487,0.331
0.0171214911588899,0.332
0.017135645324782133,0.333
0.01714924640811662,0.334
0.017162262983409473,0.335
0.01717465761218593,0.336
0.01718638289863185,0.337
0.01719738046025599,0.338
0.01720758402489739,0.339
0.01721692430992058,0.34
0.017225332625641052,0.341
0.01723274171952415,0.342
0.017239083355747777,0.343
0.017244283670473662,0.344
0.017248260478728076,0.345
0.01725092679595754,0.346
0.017252199803900258,0.347
0.017252010851189048,0.348
0.017250312970430146,0.349
0.017247084152305307,0.35
0.017242325600591253,0.351
0.01723605505311247,0.352
0.017228296729124314,0.353
0.017219072468021616,0.354
0.01720840007700269,0.355
0.017196299998396555,0.356
0.017182804997288293,0.357
0.01716796759398103,0.358
0.017151863536044924,0.359
0.017134591410241127,0.36
0.017116268980963023,0.361
0.017097027136652794,0.362
0.017077002414370407,0.363
0.017056329134390213,0.364
0.017035132868651486,0.365
0.017013527615854892,0.366
0.01699161710498719,0.367
0.016969497508471106,0.368
0.01694725880148868,0.369
0.016924984047238575,0.37
0.016902747020710682,0.371
0.016880609349353523,0.372
0.016858619045171084,0.373
0.016836811099951218,0.374
0.016815208509431346,0.375
0.016793822089270424,0.376
0.016772649808696628,0.377
0.016751677889449482,0.378
0.01673088469990466,0.379
0.016710246269903233,0.38
0.016689741715766492,0.381
0.016669357520776452,0.382
0.016649089993101492,0.383
0.016628945366498022,0.384
0.016608937235278405,0.385
0.016589081352058027,0.386
0.016569389136648238,0.387
0.01654986358270918,0.388
0.0165305006081161,0.389
0.016511294251626247,0.39
0.0164922416068032,0.391
0.016473345097543113,0.392
0.01645461174491849,0.393
0.016436049934407428,0.394
0.016417664556789273,0.395
0.01639945194984638,0.396
0.016381396903340437,0.397
0.016363473176453914,0.398
0.01634564634291559,0.399
0.01632787662475577,0.4
0.01631012031051924,0.401
0.016292329164032983,0.402
0.016274447927010882,0.403
0.016256411871314578,0.404
0.016238147662544354,0.405
0.016219578537504314,0.406
0.01620063119667628,0.407
0.016181241193691877,0.408
0.01616135507508855,0.409
0.016140928635098452,0.41
0.016119921396692154,0.411
0.016098289415019666,0.412
0.016075981515164997,0.413
0.016052942552092154,0.414
0.016029121028742942,0.415
0.016004476069752922,0.416
0.015978981284621687,0.417
0.015952624944164703,0.418
0.015925406478963067,0.419
0.01589732982424624,0.42
0.01586839567933587,0.421
0.01583859711736998,0.422
0.015807921418894588,0.423
0.01577635546554282,0.424
0.015743890100058614,0.425
0.01571052140046767,0.426
0.01567624880626801,0.427
0.015641070630049308,0.428
0.015604978645067356,0.429
0.015567955286852305,0.43
0.015529975878604866,0.431
0.015491014067593067,0.432
0.015451047082104073,0.433
0.015410059027829989,0.434
0.015368041541510006,0.435
0.015324991407040927,0.436
0.015280905471831554,0.437
0.015235775357311927,0.438
0.015189586423898869,0.439
0.01514232285317042,0.44
0.015093975621107687,0.441
0.015044549221433917,0.442
0.014994065346369375,0.443
0.014942563133792055,0.444
0.014890096056291007,0.445
0.014836725928275158,0.446
0.014782515356339449,0.447
0.014727521803741789,0.448
0.014671796843583733,0.449
0.014615390555118084,0.45
0.014558357257330276,0.451
0.014500759229383132,0.452
0.014442667338384204,0.453
0.014384158667722845,0.454
0.014325311765598689,0.455
0.01426620092739019,0.456
0.014206891876550819,0.457
0.01414744045727695,0.458
0.014087893135998434,0.459
0.014028286939741282,0.46
0.01396864873691956,0.461
0.013908995873109,0.462
0.013849339030731225,0.463
0.013789685911874985,0.464
0.013730044031981867,0.465
0.01367042185400703,0.466
0.013610828010509895,0.467
0.013551268517004595,0.468
0.01349174301422879,0.469
0.013432243253113301,0.47
0.013372756295644422,0.471
0.013313270816076033,0.472
0.013253783225532079,0.473
0.01319430184473218,0.474
0.013134848488849526,0.475
0.013075457279010662,0.476
0.013016170954181155,0.477
0.012957035291451566,0.478
0.012898093083145577,0.479
0.0128393806227775,0.48
0.012780928928717175,0.481
0.012722768380239608,0.482
0.01266493367108185,0.483
0.012607467223933648,0.484
0.012550420438488887,0.485
0.01249385255670637,0.486
0.012437827269690225,0.487
0.01238240772574479,0.488
0.012327651716664252,0.489
0.01227360963128513,0.49
0.01222032588484404,0.491
0.012167841507821527,0.492
0.012116195494531823,0.493
0.01206542436465974,0.494
0.01201556027594396,0.495
0.011966628478829892,0.496
0.01191864576095363,0.497
0.01187162122601218,0.498
0.011825558774211466,0.499
0.011780459458982496,0.5
0.011736322428933656,0.501
0.011693143939017337,0.502
0.01165091495178998,0.503
0.011609619588954082,0.504
0.011569236659437777,0.505
0.01152974366232618,0.506
0.01149112075659987,0.507
0.011453352923783116,0.508
0.011416429765768637,0.509
0.011380343023835452,0.51
0.011345082597305996,0.511
0.011310633088247847,0.512
0.011276973370493116,0.513
0.011244079582965825,0.514
0.011211929398110741,0.515
0.011180505403899607,0.516
0.011149796689506544,0.517
0.011119798304678038,0.518
0.011090508491035562,0.519
0.011061924400371724,0.52
0.01103403868355479,0.521
0.011006839618847747,0.522
0.010980314593034352,0.523
0.010954454096779823,0.524
0.010929253925312464,0.525
0.010904714976679991,0.526
0.010880840896350856,0.527
0.010857634227410914,0.528
0.010835092605918941,0.529
0.010813207384745376,0.53
0.010791965649447514,0.531
0.010771353835812557,0.532
0.010751360684133446,0.533
0.010731978556669226,0.534
0.01071320283470756,0.535
0.010695029338773317,0.536
0.010677450639455311,0.537
0.010660453718939283,0.538
0.010644021017729318,0.539
0.010628133840616465,0.54
0.010612775474616865,0.541
0.010597932483842493,0.542
0.010583593928746535,0.543
0.010569748779492929,0.544
0.01055638243518745,0.545
0.010543474346381686,0.546
0.010530998570097132,0.547
0.010518926856092597,0.548
0.01050723225667621,0.549
0.010495891713987519,0.55
0.010484886935117826,0.551
0.010474203226214564,0.552
0.010463826295867708,0.553
0.0104537383022492,0.554
0.010443916165973954,0.555
0.010434333930193473,0.556
0.010424967158281543,0.557
0.010415796338260147,0.558
0.010406808056277552,0.559
0.01039799389284439,0.56
0.01038934736526286,0.561
0.010380859873469619,0.562
0.010372517748523281,0.563
0.010364302469664907,0.564
0.010356193776764439,0.565
0.01034817344558197,0.566
0.010340227870913207,0.567
0.01033234866112612,0.568
0.010324530956571865,0.569
0.010316769846680764,0.57
0.010309056832381166,0.571
0.010301379231730962,0.572
0.010293723209184022,0.573
0.010286077889917243,0.574
0.010278437885923431,0.575
0.010270803367487525,0.576
0.010263177870302263,0.577
0.010255564502639081,0.578
0.010247962180770707,0.579
0.010240364394401387,0.58
0.010232761510376253,0.581
0.0102251447832891,0.582
0.010217509732889254,0.583
0.010209857830266282,0.584
0.010202196132624384,0.585
0.010194534759564541,0.586
0.010186882907497584,0.587
0.010179245649550776,0.588
0.010171623977848893,0.589
0.010164017859123357,0.59
0.010156429644868665,0.591
0.010148865708111245,0.592
0.01014133577294812,0.593
0.010133850214531054,0.594
0.010126416381312172,0.595
0.01011903617886159,0.596
0.010111706743373286,0.597
0.010104423459629615,0.598
0.010097183084245755,0.599
0.010089985510691115,0.6
0.010082833686580493,0.601
0.010075731573653957,0.602
0.010068680817019294,0.603
0.010061678325789507,0.604
0.01005471700944512,0.605
0.010047789227882548,0.606
0.01004089042995257,0.607
0.010034021085764783,0.608
0.010027186378206047,0.609
0.010020393822778473,0.61
0.010013649566051002,0.611
0.010006955136594926,0.612
0.010000306814521165,0.613
0.009993697976479435,0.614
0.009987122535122416,0.615
0.009980577579656147,0.616
0.009974064444737024,0.617
0.009967587943702597,0.618
0.009961153692953086,0.619
0.009954764431682578,0.62
0.009948417942883543,0.621
0.009942108595734429,0.622
0.00993583121909529,0.623
0.009929584507846303,0.624
0.009923372453890241,0.625
0.009917203553357389,0.626
0.009911088064035317,0.627
0.00990503422086988,0.628
0.009899045365654257,0.629
0.009893119957764526,0.63
0.00988725433191168,0.631
0.009881446228600665,0.632
0.009875697442978414,0.633
0.00987001491535607,0.634
0.009864409987968923,0.635
0.00985889577758697,0.636
0.009853483426447625,0.637
0.009848179446172702,0.638
0.00984298621904431,0.639
0.009837905019515664,0.64
0.009832939075721152,0.641
0.009828094992051976,0.642
0.009823382180688402,0.643
0.009818810549235087,0.644
0.009814387226349312,0.645
0.009810114042805289,0.646
0.009805987545777217,0.647
0.009802001457857621,0.648
0.009798149764806642,0.649
0.009794428844651318,0.65
0.009790837964340843,0.651
0.009787377908320414,0.652
0.009784048059009119,0.653
0.009780843589295223,0.654
0.009777755181470916,0.655
0.009774771782722654,0.656
0.009771884263956037,0.657
0.009769087753111725,0.658
0.009766381858871112,0.659
0.009763768861670621,0.66
0.009761250369470708,0.661
0.009758823835346946,0.662
0.009756481274749531,0.663
0.009754211273606962,0.664
0.009752002686660703,0.665
0.009749847850855791,0.666
0.009747744315908448,0.667
0.009745694720424882,0.668
0.009743704628579321,0.669
0.009741778880449973,0.67
0.009739918567708169,0.671
0.009738121142581635,0.672
0.009736383650556813,0.673
0.009734706547528806,0.674
0.009733095917613776,0.675
0.009731563447738121,0.676
0.009730124314082067,0.677
0.00972879354273425,0.678
0.009727582342092953,0.679
0.00972649683069604,0.68
0.00972554018094098,0.681
0.009724716374582665,0.682
0.009724033230707764,0.683
0.009723503674683116,0.684
0.009723144973965776,0.685
0.009722975958341078,0.686
0.009723013175736452,0.687
0.0097232684507751,0.688
0.009723749789272396,0.689
0.009724464521013014,0.69
0.009725422060599991,0.691
0.009726634855297048,0.692
0.009728117378566952,0.693
0.009729883525832303,0.694
0.009731943360529122,0.695
0.009734301069746036,0.696
0.009736955559198762,0.697
0.009739902982516762,0.698
0.009743139357917612,0.699
0.009746662084728972,0.7
0.009750469896263662,0.701
0.009754561061620592,0.702
0.0097589304833625,0.703
0.009763567891123686,0.704
0.009768459067251116,0.705
0.009773589243242077,0.706
0.009778946206580062,0.707
0.009784521584828803,0.708
0.009790309962976631,0.709
0.00979630606346657,0.71
0.009802501117576017,0.711
0.009808880846998097,0.712
0.009815426732264354,0.713
0.00982211940608804,0.714
0.009828941926374093,0.715
0.009835881797667971,0.716
0.009842931412577001,0.717
0.009850086762936546,0.718
0.009857344452552748,0.719
0.009864697946297907,0.72
0.009872135544459221,0.721
0.009879641901896172,0.722
0.009887201747869874,0.723
0.009894803168956598,0.724
0.009902439114966225,0.725
0.009910106908330168,0.726
0.0099178059529343,0.727
0.009925534235155952,0.728
0.009933285061136827,0.729
0.009941046111890143,0.73
0.00994880149441376,0.731
0.00995653513509713,0.732
0.009964233552998891,0.733
0.009971887129740174,0.734
0.00997948955572995,0.735
0.009987035357198252,0.736
0.009994516327197818,0.737
0.010001919271076474,0.738
0.010009227080662295,0.739
0.010016422132887327,0.74
0.010023489378625176,0.741
0.010030417566599939,0.742
0.010037198331529095,0.743
0.010043823423577118,0.744
0.010050281125964991,0.745
0.010056554107533833,0.746
0.010062620434643071,0.747
0.010068456830552108,0.748
0.010074041933832949,0.749
0.010079358148892534,0.75
0.010084391540993297,0.751
0.010089129566290177,0.752
0.01009355745429216,0.753
0.010097655948113944,0.754
0.010101402777740433,0.755
0.010104776807528363,0.756
0.010107761819093354,0.757
0.010110348016570125,0.758
0.010112530813828019,0.759
0.010114307213090982,0.76
0.010115671326340251,0.761
0.01011661220680998,0.762
0.01011711584815073,0.763
0.010117169435158179,0.764
0.010116764961919189,0.765
0.010115901062577511,0.766
0.01011458285210111,0.767
0.010112819721718047,0.768
0.010110621476746084,0.769
0.010107994536099334,0.77
0.010104940991115424,0.771
0.010101461435461515,0.772
0.010097559225974398,0.773
0.01009324344860695,0.774
0.0100885295585327,0.775
0.010083437708736945,0.776
0.010077989178985308,0.777
0.010072202155511613,0.778
0.010066089347941894,0.779
0.010059659112464887,0.78
0.01005291880000499,0.781
0.010045877923885874,0.782
0.010038549933286728,0.783
0.010030952272817379,0.784
0.010023104630455616,0.785
0.010015025699346357,0.786
0.0100067299820789,0.787
0.00999822708272396,0.788
0.009989524244867565,0.789
0.009980630090012948,0.79
0.009971557214792984,0.791
0.009962322776930092,0.792
0.009952947094745881,0.793
0.009943450603660229,0.794
0.009933850203234349,0.795
0.009924157154545764,0.796
0.009914378151459081,0.797
0.009904518637657893,0.798
0.009894586195502209,0.799
0.009884592667664834,0.8
0.009874554480080162,0.801
0.00986449094937426,0.802
0.009854420926224497,0.803
0.009844359466721013,0.804
0.009834317093353636,0.805
0.009824302314274903,0.806
0.009814325189925146,0.807
0.009804399555005968,0.808
0.009794543087957774,0.809
0.009784775349556843,0.81
0.009775114442408342,0.811
0.009765573940140874,0.812
0.009756162251878848,0.813
0.009746884926125058,0.814
0.009737748091279164,0.815
0.009728761078530492,0.816
0.009719937385986688,0.817
0.0097112937162863,0.818
0.009702847095996102,0.819
0.009694611202655799,0.82
0.009686594682317504,0.821
0.009678803179412162,0.822
0.009671243272412249,0.823
0.009663925499190132,0.824
0.009656865312359932,0.825
0.009650081932466078,0.826
0.009643595430707702,0.827
0.009637423052735117,0.828
0.009631576887981039,0.829
0.009626064601160443,0.83
0.009620892526643094,0.831
0.009616069018963003,0.832
0.009611606646804997,0.833
0.009607522676858167,0.834
0.00960383762416692,0.835
0.009600572065245904,0.836
0.009597743120633325,0.837
0.009595363209589917,0.838
0.009593442173306613,0.839
0.009591990744675545,0.84
0.009591022850959025,0.841
0.009590555903334371,0.842
0.009590609262461575,0.843
0.009591201361146093,0.844
0.009592346453556888,0.845
0.009594052738188228,0.846
0.009596323100973993,0.847
0.00959915770936651,0.848
0.00960255672871285,0.849
0.009606522085860329,0.85
0.009611057804468118,0.851
0.009616168645395315,0.852
0.00962185736556385,0.853
0.009628122253577372,0.854
0.009634957161788183,0.855
0.009642354272351697,0.856
0.009650307486244398,0.857
0.009658814419654453,0.858
0.00966787634091147,0.859
0.00967749616575028,0.86
0.009687675161401486,0.861
0.009698409976664107,0.862
0.009709692080603311,0.863
0.009721510073890154,0.864
0.009733853152212098,0.865
0.009746713867258207,0.866
0.00976008935723582,0.867
0.009773980726859026,0.868
0.009788390481823617,0.869
0.00980331884295155,0.87
0.009818761369557746,0.871
0.009834709942198167,0.872
0.009851156102788836,0.873
0.009868094066635488,0.874
0.009885521811331822,0.875
0.009903439987368468,0.876
0.009921848982343821,0.877
0.009940745299274804,0.878
0.009960119586842885,0.879
0.00997995785212787,0.88
0.010000244624561791,0.881
0.010020965872480404,0.882
0.010042110594952667,0.883
0.010063670769655954,0.884
0.010085639523614055,0.885
0.01010800797637363,0.886
0.010130762551971874,0.887
0.010153885039226236,0.888
0.010177355574116686,0.889
0.010201156348553947,0.89
0.010225273976234713,0.891
0.010249699774511702,0.892
0.0102744279890919,0.893
0.010299452353949901,0.894
0.010324762240612566,0.895
0.010350340848986672,0.896
0.01037616686443497,0.897
0.01040221805781694,0.898
0.010428474509098546,0.899
0.010454920411511642,0.9
0.010481544106327914,0.901
0.010508336149481731,0.902
0.010535285824478003,0.903
0.010562377960616562,0.904
0.010589592587641476,0.905
0.010616907775330302,0.906
0.010644303275553347,0.907
0.010671762661352016,0.908
0.010699273248222533,0.909
0.010726823967755636,0.91
0.010754401842718316,0.911
0.010781988665750142,0.912
0.010809560132847815,0.913
0.010837088131988894,0.914
0.010864544418009395,0.915
0.010891903588532115,0.916
0.010919144393033339,0.917
0.010946248995592586,0.918
0.010973200069489942,0.919
0.010999976781672147,0.92
0.011026552673009163,0.921
0.01105289760628225,0.922
0.011078982114978061,0.923
0.011104781006125868,0.924
0.011130274697051584,0.925
0.011155448111343511,0.926
0.011180287449424127,0.927
0.011204775950709022,0.928
0.011228891099910345,0.929
0.011252605413198202,0.93
0.011275890137188865,0.931
0.011298719371982183,0.932
0.011321072826497022,0.933
0.011342936452096317,0.934
0.011364300627197269,0.935
0.011385156189639499,0.936
0.011405490291936134,0.937
0.01142528540884188,0.938
0.011444522645882499,0.939
0.011463186641899308,0.94
0.011481268856320155,0.941
0.011498768028377784,0.942
0.011515687863278194,0.943
0.01153203260534152,0.944
0.01154780237730248,0.945
0.011562991380837478,0.946
0.011577590356227012,0.947
0.01159159114486655,0.948
0.011604990506584204,0.949
0.011617791979561882,0.95
0.011630005441896915,0.951
0.011641644262992716,0.952
0.011652720799227436,0.953
0.011663242794726277,0.954
0.011673213570127676,0.955
0.011682635809392623,0.956
0.011691515888772966,0.957
0.011699866240351495,0.958
0.011707705057175968,0.959
0.01171505357685008,0.96
0.011721931767091716,0.961
0.011728354378298708,0.962
0.01173432998639748,0.963
0.011739863691836135,0.964
0.011744961289086355,0.965
0.011749632481343865,0.966
0.011753892088970666,0.967
0.011757758921176613,0.968
0.011761252295586175,0.969
0.011764387520852739,0.97
0.011767173735492511,0.971
0.011769616279481202,0.972
0.011771721414682343,0.973
0.011773499898147617,0.974
0.011774967953793082,0.975
0.01177614561799515,0.976
0.011777052910280996,0.977
0.011777705303513013,0.978
0.01177811145552435,0.979
0.011778275051537232,0.98
0.011778199041400662,0.981
0.011777889436269584,0.982
0.011777357327908682,0.983
0.01177661873103123,0.984
0.011775692108682002,0.985
0.011774594249614127,0.986
0.01177333685950363,0.987
0.01177192665084444,0.988
0.01177036893924114,0.989
0.011768671951026941,0.99
0.011766849413314615,0.991
0.011764920671549273,0.992
0.011762908454098222,0.993
0.011760834824374199,0.994
0.01175871689296292,0.995
0.011756565086589132,0.996
0.011754385358131251,0.997
0.011752183387988889,0.998
0.01174996806985327,0.999
0.011747753090366303,1.0
0.011745556286079373,1.001
0.011743396743582738,1.002
0.011741290587439003,1.003
0.011739248125470234,1.004
0.01173727470798936,1.005
0.011735374366306641,1.006
0.011733553278928955,1.007
0.011731821203808066,1.008
0.01173019055090785,1.009
0.011728673444849036,1.01
0.01172727784009143,1.011
0.011726004878924435,1.012
0.011724849390339614,1.013
0.011723802996001537,1.014
0.01172285768785938,1.015
0.011722008343414197,1.016
0.011721253542924555,1.017
0.011720594369311924,1.018
0.011720031184940012,1.019
0.011719559676489362,1.02
0.011719169240681658,1.021
0.011718845506540121,1.022
0.011718574931775508,1.023
0.0117183483573413,1.024
0.01171816220289827,1.025
0.011718017213807578,1.026
0.011717915096706808,1.027
0.011717854179166052,1.028
0.011717826546031332,1.029
0.011717818775918381,1.03
0.01171781560478176,1.031
0.011717804022582958,1.032
0.011717776003748685,1.033
0.011717729122012443,1.034
0.011717664749926747,1.035
0.011717584146335433,1.036
0.011717484306009447,1.037
0.011717356759627512,1.038
0.011717190481038654,1.039
0.011716976360612849,1.04
0.011716710218449397,1.041
0.011716393264532993,1.042
0.011716030088670159,1.043
0.011715624713844262,1.044
0.011715176286764955,1.045
0.011714677262730717,1.046
0.011714115582038718,1.047
0.011713478937133303,1.048
0.011712758389983686,1.049
0.011711950095088517,1.05
0.011711054745683146,1.051
0.011710074637175029,1.052
0.011709009340449002,1.053
0.011707852920847181,1.054
0.01170659522789059,1.055
0.011705226116957585,1.056
0.0117037393789431,1.057
0.01170213441352629,1.058
0.011700415280331939,1.059
0.011698587460764477,1.06
0.011696653477573407,1.061
0.011694609843831538,1.062
0.011692447577296887,1.063
0.011690155754696825,1.064
0.01168772561733941,1.065
0.011685153359692488,1.066
0.011682440842190887,1.067
0.01167959393409993,1.068
0.011676618689974107,1.069
0.011673517051357312,1.07
0.011670285324452157,1.071
0.011666916918212082,1.072
0.011663406921913777,1.073
0.011659755352706774,1.074
0.011655967865004401,1.075
0.011652053962696127,1.076
0.011648023173826778,1.077
0.011643880581391194,1.078
0.011639624494642457,1.079
0.011635248056322186,1.08
0.011630743251115624,1.081
0.01162610463254505,1.082
0.011621331423295515,1.083
0.011616427531546621,1.084
0.011611399274098558,1.085
0.011606251402640724,1.086
0.011600983769586208,1.087
0.011595591454060049,1.088
0.011590068378122908,1.089
0.011584411566644507,1.09
0.011578623561897535,1.091
0.011572712257461983,1.092
0.011566688367390374,1.093
0.011560561296684781,1.094
0.0115543352485347,1.095
0.011548008156003492,1.096
0.011541574261453524,1.097
0.011535028304787037,1.098
0.011528368913762325,1.099
0.011521600118650404,1.1
0.011514730622713895,1.101
0.01150777074959322,1.102
0.011500728089999284,1.103
0.011493604765200937,1.104
0.011486398744748005,1.105
0.011479108029065252,1.106
0.011471734533225303,1.107
0.011464285766227484,1.108
0.011456773907328759,1.109
0.011449212546201407,1.11
0.011441612287486868,1.111
0.011433977880060679,1.112
0.01142630906016391,1.113
0.01141860421785313,1.114
0.011410864215971568,1.115
0.011403094624914453,1.116
0.011395305797625883,1.117
0.011387510664265075,1.118
0.011379720826597795,1.119
0.011371943073384114,1.12
0.011364179060367106,1.121
0.011356428467254697,1.122
0.011348693040289856,1.123
0.01134097903875443,1.124
0.011333297269562477,1.125
0.011325660834062596,1.126
0.011318081271762766,1.127
0.011310564858308818,1.128
0.011303111529103295,1.129
0.011295717189664288,1.13
0.011288377478196679,1.131
0.01128109077051072,1.132
0.011273859514624873,1.133
0.0112666896096653,1.134
0.011259587725988635,1.135
0.011252557413790706,1.136
0.011245596620235422,1.137
0.011238698912434415,1.138
0.011231857399892173,1.139
0.01122506841732153,1.14
0.011218333125873487,1.141
0.011211656644262658,1.142
0.011205045000599679,1.143
0.011198501026655204,1.144
0.011192021591848546,1.145
0.011185598240415812,1.146
0.011179220612739326,1.147
0.011172880302739767,1.148
0.011166573486810126,1.149
0.011160301660253356,1.15
0.011154070194742035,1.151
0.01114788480959974,1.152
0.011141747418011638,1.153
0.011135654537334456,1.154
0.011129599980873227,1.155
0.011123579589492658,1.156
0.011117594774616565,1.157
0.01111165353206349,1.158
0.011105768874579333,1.159
0.011099955112629416,1.16
0.011094223308176053,1.161
0.011088578516876961,1.162
0.01108302068661378,1.163
0.011077548047707638,1.164
0.01107216048164434,1.165
0.011066861477429149,1.166
0.011061658261779395,1.167
0.01105655996167372,1.168
0.011051574167221807,1.169
0.01104670362194047,1.17
0.01104194564301383,1.171
0.011037294900489174,1.172
0.011032747233650622,1.173
0.01102830200071358,1.174
0.011023962083719035,1.175
0.01101973166993419,1.176
0.011015612603691013,1.177
0.011011601244451063,1.178
0.01100768812475135,1.179
0.01100386073131907,1.18
0.011000107453690363,1.181
0.010996420761676153,1.182
0.010992798755041226,1.183
0.010989244699053711,1.184
0.010985764364830931,1.185
0.010982361909201948,1.186
0.010979036816212451,1.187
0.010975784499347514,1.188
0.010972600082648824,1.189
0.010969482464922294,1.19
0.010966436528428842,1.191
0.010963472959805536,1.192
0.01096060591572617,1.193
0.010957849083734116,1.194
0.010955211505350922,1.195
0.01095269569549767,1.196
0.010950299447792354,1.197
0.010948019611208868,1.198
0.010945855291208348,1.199
0.010943809276679026,1.2
0.010941887297951576,1.201
0.010940095066402315,1.202
0.010938434367857186,1.203
0.010936901328412988,1.204
0.010935488718262661,1.205
0.010934190218084373,1.206
0.01093300348943513,1.207
0.010931930771596415,1.208
0.01093097702651341,1.209
0.010930146257193471,1.21
0.010929437745371706,1.211
0.010928844829587737,1.212
0.01092835721503314,1.213
0.010927964936057142,1.214
0.010927661685209514,1.215
0.010927446562732175,1.216
0.010927323952921276,1.217
0.010927301384511265,1.218
0.010927385747016618,1.219
0.010927579618749442,1.22
0.01092788045261145,1.221
0.010928283396766814,1.222
0.01092878538041289,1.223
0.010929387830872234,1.224
0.010930097095166014,1.225
0.010930922663104763,1.226
0.010931873635225247,1.227
0.0109329546765958,1.228
0.010934163941267611,1.229
0.010935494574056714,1.23
0.010936938385160007,1.231
0.010938489232857207,1.232
0.010940144845135514,1.233
0.010941906628138317,1.234
0.010943777281886502,1.235
0.010945757005993864,1.236
0.010947840842888057,1.237
0.010950019553226923,1.238
0.010952283267988795,1.239
0.010954625074698321,1.24
0.010957042654806036,1.241
0.010959537599521785,1.242
0.010962112718557447,1.243
0.010964768217820008,1.244
0.010967498614228743,1.245
0.010970292468258654,1.246
0.010973135081772466,1.247
0.010976012229349281,1.248
0.01097891306854152,1.249
0.010981831375719177,1.25
0.01098476471562792,1.251
0.010987711421973636,1.252
0.010990666467881495,1.253
0.010993619255604605,1.254
0.010996555494637189,1.255
0.010999461467766288,1.256
0.011002327508289856,1.257
0.011005149176566711,1.258
0.011007925999191618,1.259
0.011010658127911209,1.26
0.011013342147789613,1.261
0.01101596861393435,1.262
0.0110185232131206,1.263
0.011020990399539752,1.264
0.01102335694391078,1.265
0.011025613905095766,1.266
0.011027756514597406,1.267
0.011029781815787126,1.268
0.011031684802324507,1.269
0.011033455560628826,1.27
0.011035079972291938,1.271
0.011036543456210506,1.272
0.011037834827543287,1.273
0.011038948085433308,1.274
0.011039881562173622,1.275
0.01104063473533815,1.276
0.01104120396244881,1.277
0.01104157974488238,1.278
0.011041747548549153,1.279
0.011041691281320619,1.28
0.011041397015211884,1.281
0.011040855504049632,1.282
0.01104006301740756,1.283
0.01103902024748835,1.284
0.011037729199804364,1.285
0.011036189008480093,1.286
0.011034393523601253,1.287
0.011032332983257787,1.288
0.011029998431437303,1.289
0.011027385717189267,1.29
0.011024497248209588,1.291
0.011021341118601561,1.292
0.011017927887609028,1.293
0.011014266122221929,1.294
0.011010359101040179,1.295
0.011006204901095771,1.296
0.011001799447705041,1.297
0.010997140117180082,1.298
0.010992228070630173,1.299
0.010987068665514991,1.3
0.010981669752810922,1.301
0.010976038203421768,1.302
0.010970176455082234,1.303
0.010964081882372691,1.304
0.010957749780425366,1.305
0.010951177578199143,1.306
0.010944367615276993,1.307
0.010937327494321148,1.308
0.010930068049255129,1.309
0.010922599519497825,1.31
0.010914927648652047,1.311
0.010907052397633217,1.312
0.010898970333010552,1.313
0.010890678711880026,1.314
0.010882178787072426,1.315
0.010873477274253715,1.316
0.010864585688860033,1.317
0.010855517512941674,1.318
0.010846284077007735,1.319
0.010836891728599694,1.32
0.010827342648663148,1.321
0.01081763852133945,1.322
0.010807784184971837,1.323
0.010797789336329138,1.324
0.010787667850168978,1.325
0.010777434979137569,1.326
0.010767103413918571,1.327
0.010756680344634943,1.328
0.010746167607320391,1.329
0.010735564674419077,1.33
0.01072487235381576,1.331
0.01071409548729676,1.332
0.010703243966517386,1.333
0.010692331777465815,1.334
0.010681374004454581,1.335
0.01067038277675412,1.336
0.010659364943914153,1.337
0.010648323636677018,1.338
0.010637262350318595,1.339
0.010626188579500569,1.34
0.010615115403929778,1.341
0.010604060754115885,1.342
0.010593044620785292,1.343
0.01058208507806884,1.344
0.010571195050035545,1.345
0.010560381944470273,1.346
0.010549650232730298,1.347
0.010539004928532662,1.348
0.010528454081682648,1.349
0.010518009511874416,1.35
0.010507685520835586,1.351
0.010497495763757365,1.352
0.010487449791667715,1.353
0.010477552037561151,1.354
0.010467804374157242,1.355
0.010458210068523835,1.356
0.010448776413372683,1.357
0.010439515020260914,1.358
0.010430439868522011,1.359
0.010421563752226123,1.36
0.010412894760225737,1.361
0.010404435161227622,1.362
0.010396183540444515,1.363
0.010388138447987407,1.364
0.010380301481757065,1.365
0.010372678934640835,1.366
0.010365281705502834,1.367
0.010358123310310578,1.368
0.010351216359727923,1.369
0.010344569206987689,1.37
0.010338185299340882,1.371
0.010332065834947963,1.372
0.010326213494322311,1.373
0.010320634873959386,1.374
0.010315340806684547,1.375
0.010310344657679195,1.376
0.01030565900116511,1.377
0.010301291875289121,1.378
0.010297244994850928,1.379
0.01029351532454156,1.38
0.010290098487284892,1.381
0.010286991648652006,1.382
0.010284194794080822,1.383
0.01028171009182402,1.384
0.010279539299619982,1.385
0.010277680233594863,1.386
0.01027612499258137,1.387
0.01027486176461427,1.388
0.010273878619010454,1.389
0.010273166520918274,1.39
0.010272720318189935,1.391
0.01027253758970908,1.392
0.010272615656520486,1.393
0.010272947888993227,1.394
0.010273521678951167,1.395
0.010274319722237689,1.396
0.010275323465357377,1.397
0.010276516462520494,1.398
0.01027788643970992,1.399
0.01027942564242115,1.4
0.010281129251991622,1.401
0.010282992080034742,1.402
0.01028500504027806,1.403
0.010287154123317172,1.404
0.010289422980341995,1.405
0.01029179698268392,1.406
0.010294266078971546,1.407
0.010296825401721341,1.408
0.010299473609681269,1.409
0.010302209374499457,1.41
0.010305027423763448,1.411
0.01030791683997063,1.412
0.010310863106597967,1.413
0.010313852170856015,1.414
0.01031687395072372,1.415
0.010319924105750052,1.416
0.010323003688326707,1.417
0.010326116536492652,1.418
0.0103292652139692,1.419
0.010332448070492386,1.42
0.010335659945341752,1.421
0.010338895892296826,1.422
0.010342155008624683,1.423
0.010345442286153538,1.424
0.010348767979036687,1.425
0.010352144761524275,1.426
0.010355583646481783,1.427
0.010359090755999206,1.428
0.010362667078507592,1.429
0.010366311103965619,1.43
0.010370022183456621,1.431
0.01037380279760859,1.432
0.010377659064570834,1.433
0.010381599311158894,1.434
0.010385630948212569,1.435
0.01038975715060828,1.436
0.010393975986584966,1.437
0.010398283017381087,1.438
0.01040267527160276,1.439
0.010407153999134949,1.44
0.010411725182208169,1.441
0.010416397801201639,1.442
0.010421180328134452,1.443
0.010426076921417884,1.444
0.010431085897033572,1.445
0.010436201760735751,1.446
0.010441419110502479,1.447
0.010446736054129133,1.448
0.010452156102796362,1.449
0.010457688198485164,1.45
0.010463344705850612,1.451
0.010469137717646985,1.452
0.010475075371390032,1.453
0.010481160883972548,1.454
0.010487395130497615,1.455
0.010493780480382998,1.456
0.010500323315236742,1.457
0.010507034341995106,1.458
0.010513926819379012,1.459
0.01052101314575471,1.46
0.010528301031510479,1.461
0.010535791627751511,1.462
0.010543481016418693,1.463
0.010551363587702851,1.464
0.010559435005688953,1.465
0.01056769368252899,1.466
0.010576140373486953,1.467
0.010584775713320458,1.468
0.01059359663269556,1.469
0.010602594464536558,1.47
0.010611756787714864,1.471
0.010621071429891623,1.472
0.010630529641977497,1.473
0.01064012700900767,1.474
0.010649861991032109,1.475
0.01065973252014869,1.476
0.01066973200705837,1.477
0.010679847343690645,1.478
0.01069006041333041,1.479
0.010700351568765675,1.48
0.010710702754641201,1.481
0.01072109931910196,1.482
0.01073153025822005,1.483
0.010741986697933935,1.484
0.010752458738946126,1.485
0.010762932007649079,1.486
0.010773386583077867,1.487
0.010783799518544373,1.488
0.010794148916629227,1.489
0.010804416852290291,1.49
0.010814590039803491,1.491
0.010824658201668466,1.492
0.010834610554410668,1.493
0.010844431851908627,1.494
0.010854100695159075,1.495
0.010863591587519171,1.496
0.010872879015021911,1.497
0.010881941008968107,1.498
0.010890761022671187,1.499
0.010899327724152204,1.5
0.01090763252400375,1.501
0.010915665537278664,1.502
0.010923412466551301,1.503
0.01093085513932919,1.504
0.010937975429968917,1.505
0.010944759636882382,1.506
0.010951200928392362,1.507
0.01095729911873498,1.508
0.010963057929468906,1.509
0.010968480594950335,1.51
0.010973565924314824,1.511
0.010978307472460997,1.512
0.01098269631589681,1.513
0.010986725153088014,1.514
0.010990391394966628,1.515
0.010993698319232364,1.516
0.010996654033723186,1.517
0.010999268246092259,1.518
0.011001547914367728,1.519
0.011003494686990346,1.52
0.011005106383362438,1.521
0.01100638111855401,1.522
0.011007320977680273,1.523
0.011007933562554063,1.524
0.011008231146236854,1.525
0.011008227729896163,1.526
0.011007934955321583,1.527
0.01100735897480542,1.528
0.01100650044317521,1.529
0.011005357513424909,1.53
0.0110039296341519,1.531
0.011002220255249974,1.532
0.011000237662436003,1.533
0.010997993667318054,1.534
0.010995500228279588,1.535
0.0109927653304672,1.536
0.010989791134035573,1.537
0.01098657608180213,1.538
0.010983118879378306,1.539
0.010979421335541693,1.54
0.010975488932149814,1.541
0.010971329221802386,1.542
0.010966948505788696,1.543
0.010962348038438582,1.544
0.010957522197944507,1.545
0.010952460128466176,1.546
0.010947149429471798,1.547
0.01094157956232328,1.548
0.010935743824381781,1.549
0.010929639414878813,1.55
0.010923265294209289,1.551
0.010916618482662798,1.552
0.010909691363948917,1.553
0.010902472708310514,1.554
0.010894951950628052,1.555
0.010887123714865356,1.556
0.010878990262348674,1.557
0.010870561148735108,1.558
0.010861850248100307,1.559
0.010852871124052199,1.56
0.010843633098838111,1.561
0.010834140682813737,1.562
0.010824396547840183,1.563
0.010814405597621762,1.564
0.010804177926304863,1.565
0.010793729895999403,1.566
0.010783083171922954,1.567
0.010772261748055978,1.568
0.010761287768801059,1.569
0.010750178457136961,1.57
0.010738946429069514,1.571
0.010727602862845588,1.572
0.010716160846499928,1.573
0.010704636974759827,1.574
0.010693050771765005,1.575
0.010681422224268551,1.576
0.010669768270285977,1.577
0.010658100073087446,1.578
0.01064642302754363,1.579
0.01063473949331029,1.58
0.010623052325264367,1.581
0.010611367422305498,1.582
0.010599694470701004,1.583
0.0105880455365087,1.584
0.010576431805286482,1.585
0.01056486035144632,1.586
0.010553333776813471,1.587
0.010541853392272574,1.588
0.010530423480390145,1.589
0.01051905399644265,1.59
0.010507760742327203,1.591
0.010496563075868487,1.592
0.010485479905327465,1.593
0.010474525971890723,1.594
0.010463711058278613,1.595
0.010453042744003238,1.596
0.010442530555648191,1.597
0.010432189219640122,1.598
0.010422040093460264,1.599
0.010412110509575728,1.6
0.01040243098141569,1.601
0.010393031028710885,1.602
0.010383936007957126,1.603
0.010375167478697137,1.604
0.010366746767770557,1.605
0.01035869896259932,1.606
0.010351055186665618,1.607
0.010343852600149517,1.608
0.010337132362033796,1.609
0.010330936097048887,1.61
0.010325301908609022,1.611
0.010320261776056718,1.612
0.010315841721702886,1.613
0.010312064010813754,1.614
0.010308949468721351,1.615
0.010306518706015717,1.616
0.01030479190246414,1.617
0.010303787146641893,1.618
0.010303517876207102,1.619
0.010303990911966331,1.62
0.010305206483158311,1.621
0.01030715983680559,1.622
0.010309842751679836,1.623
0.010313243849679032,1.624
0.010317347584738493,1.625
0.010322132435471216,1.626
0.010327569536725978,1.627
0.010333623053676627,1.628
0.010340252378510674,1.629
0.010347415106580028,1.63
0.010355069799663738,1.631
0.010363177921848472,1.632
0.010371704416628215,1.633
0.010380616471861297,1.634
0.010389880525550305,1.635
0.010399459069107397,1.636
0.01040931012085712,1.637
0.010419390493178311,1.638
0.010429660628720841,1.639
0.010440088200220523,1.64
0.01045064926213389,1.641
0.01046132678974487,1.642
0.01047210688255542,1.643
0.010482973939947564,1.644
0.01049390778670229,1.645
0.010504885043129268,1.646
0.010515883445914878,1.647
0.010526886019086655,1.648
0.010537883195015073,1.649
0.010548872248022327,1.65
0.010559853954850542,1.651
0.010570827775693953,1.652
0.010581789096669363,1.653
0.010592731197420435,1.654
0.010603650166484058,1.655
0.010614549076825063,1.656
0.010625439549872632,1.657
0.010636340522188214,1.658
0.010647274673260617,1.659
0.010658263670170072,1.66
0.010669324538693204,1.661
0.010680469466311831,1.662
0.010691708899006721,1.663
0.010703055624871931,1.664
0.010714527922411484,1.665
0.010726151029685762,1.666
0.010737956642603505,1.667
0.010749980353283494,1.668
0.01076225750468034,1.669
0.01077481926215389,1.67
0.010787691515854547,1.671
0.010800897198465229,1.672
0.010814459626792111,1.673
0.010828404386697832,1.674
0.010842759023165734,1.675
0.010857550786245776,1.676
0.010872803287384741,1.677
0.01088853387910845,1.678
0.010904753559747906,1.679
0.010921469247415992,1.68
0.010938686547577743,1.681
0.010956411431815085,1.682
0.01097465019171987,1.683
0.010993407477237553,1.684
0.011012683234543979,1.685
0.011032471169531086,1.686
0.011052760795398681,1.687
0.011073541755561586,1.688
0.011094807635170699,1.689
0.011116557759732491,1.69
0.011138796653865992,1.691
0.011161531342583525,1.692
0.01118476726083446,1.693
0.011208504609566041,1.694
0.011232737520082622,1.695
0.011257456549714696,1.696
0.011282652560358519,1.697
0.011308319947107173,1.698
0.011334458408215698,1.699
0.011361072972408185,1.7
0.011388172118300793,1.701
0.01141576409133116,1.702
0.011443852644755498,1.703
0.011472435028004437,1.704
0.011501503806603757,1.705
0.011531050455530094,1.706
0.011561067782243778,1.707
0.011591550100706553,1.708
0.011622491305656908,1.709
0.011653881594140629,1.71
0.011685704567169546,1.711
0.011717936779905012,1.712
0.01175055006776241,1.713
0.011783514871825532,1.714
0.011816802744302454,1.715
0.011850387211985832,1.716
0.01188424266336253,1.717
0.011918341373011355,1.718
0.01195265017752645,1.719
0.011987129672225014,1.72
0.012021737188912394,1.721
0.012056431472660657,1.722
0.012091176333454925,1.723
0.012125942128876827,1.724
0.012160704945328294,1.725
0.012195443721238477,1.726
0.0122301359203309,1.727
0.01226475327865143,1.728
0.012299260143124859,1.729
0.01233361550426465,1.73
0.012367776838192802,1.731
0.01240170328364032,1.732
0.01243535705350253,1.733
0.012468702752429693,1.734
0.012501704574141886,1.735
0.012534322290272881,1.736
0.012566508428406323,1.737
0.012598208588637748,1.738
0.012629363848413566,1.739
0.012659912547332135,1.74
0.012689789899147152,1.741
0.012718925715628295,1.742
0.012747242231149257,1.743
0.012774654467435413,1.744
0.01280107346569756,1.745
0.012826410442492827,1.746
0.012850580007850153,1.747
0.012873501635202159,1.748
0.012895099005486249,1.749
0.012915296976990816,1.75
0.012934017130896858,1.751
0.012951175355316523,1.752
0.012966684704650403,1.753
0.012980462438865834,1.754
0.012992437491333567,1.755
0.013002555741511783,1.756
0.013010781980971293,1.757
0.013017098204254634,1.758
0.013021498447936498,1.759
0.013023981309048924,1.76
0.013024543299202487,1.761
0.013023177441566176,1.762
0.0130198782276607,1.763
0.013014649188403976,1.764
0.013007508946700977,1.765
0.012998494014110316,1.766
0.012987657878778276,1.767
0.012975066465941132,1.768
0.012960790873576261,1.769
0.01294490009723934,1.77
0.012927457953930084,1.771
0.012908525571063577,1.772
0.012888165806293808,1.773
0.012866445568909111,1.774
0.012843434973244482,1.775
0.012819203895664913,1.776
0.012793817443502074,1.777
0.012767333108071233,1.778
0.012739801496343075,1.779
0.01271126934398469,1.78
0.012681782132064653,1.781
0.012651384865965534,1.782
0.012620120705298193,1.783
0.012588028052928083,1.784
0.012555138384013937,1.785
0.012521477390568936,1.786
0.012487069317257442,1.787
0.012451941922919084,1.788
0.012416129847016415,1.789
0.012379675468892517,1.79
0.012342627109303143,1.791
0.012305034908605943,1.792
0.012266945746689344,1.793
0.012228400134396633,1.794
0.012189433321404687,1.795
0.01215007947885036,1.796
0.012110376162457082,1.797
0.012070367437722048,1.798
0.012030105147923418,1.799
0.011989648081081977,1.8
0.011949059004569784,1.801
0.011908400095037533,1.802
0.011867728628295694,1.803
0.01182709566621609,1.804
0.011786548402037144,1.805
0.011746133687831378,1.806
0.011705900153705703,1.807
0.011665898156484623,1.808
0.011626177797133347,1.809
0.011586785659877445,1.81
0.01154776172684833,1.811
0.011509138442284036,1.812
0.011470942483119959,1.813
0.011433197603717738,1.814
0.011395926720079169,1.815
0.01135915249314742,1.816
0.011322896237343137,1.817
0.01128717543791894,1.818
0.011252001363541373,1.819
0.011217379026186374,1.82
0.01118331009459749,1.821
0.01114979691169889,1.822
0.011116845527619768,1.823
0.011084466845694705,1.824
0.011052675707543105,1.825
0.011021488070093122,1.826
0.010990917118232874,1.827
0.010960970435236594,1.828
0.010931650364950595,1.829
0.010902957256581115,1.83
0.010874893281513946,1.831
0.01084746500215017,1.832
0.010820684062372717,1.833
0.010794565917000088,1.834
0.010769126802188736,1.835
0.010744379823062712,1.836
0.01072033215589406,1.837
0.010696985094689441,1.838
0.01067433627920792,1.839
0.01065238188955796,1.84
0.010631117407812408,1.841
0.010610536780340431,1.842
0.010590630287430675,1.843
0.010571381983298529,1.844
0.010552768502933256,1.845
0.010534760449511774,1.846
0.010517325383727032,1.847
0.01050043057705192,1.848
0.010484044445409724,1.849
0.010468136130288757,1.85
0.010452673189487924,1.851
0.010437618875397901,1.852
0.0104229319150296,1.853
0.01040857008005811,1.854
0.01039449542467361,1.855
0.01038067830338371,1.856
0.010367098776557246,1.857
0.01035374510254031,1.858
0.010340609577127307,1.859
0.010327683264850797,1.86
0.010314953070463467,1.861
0.010302403573714217,1.862
0.010290021922839863,1.863
0.010277802458550039,1.864
0.010265749370282008,1.865
0.010253876937254533,1.866
0.010242207253089436,1.867
0.010230765689152467,1.868
0.010219575674915802,1.869
0.010208656227382089,1.87
0.010198024122256342,1.871
0.010187698241401427,1.872
0.010177702612479677,1.873
0.010168066894976789,1.874
0.010158824494937175,1.875
0.010150008887235695,1.876
0.010141649557367079,1.877
0.010133770119724652,1.878
0.010126390040990642,1.879
0.010119528343981273,1.88
0.010113206864838463,1.881
0.010107451978542509,1.882
0.010102294459745254,1.883
0.010097767335229083,1.884
0.010093902310344217,1.885
0.010090726895302098,1.886
0.010088264728365185,1.887
0.010086539080251512,1.888
0.010085577025130564,1.889
0.010085412076339171,1.89
0.01008608454809203,1.891
0.010087639718307334,1.892
0.010090124250852444,1.893
0.010093581992190164,1.894
0.010098051226404758,1.895
0.010103564939361803,1.896
0.010110153227227288,1.897
0.010117845716326254,1.898
0.010126672705090578,1.899
0.010136664698544158,1.9
0.010147850383504489,1.901
0.010160253789643789,1.902
0.01017389249484582,1.903
0.010188778255908174,1.904
0.010204919104493771,1.905
0.010222320854535416,1.906
0.010240986899061298,1.907
0.010260916461271287,1.908
0.010282102825915346,1.909
0.010304533600167334,1.91
0.010328193366867437,1.911
0.010353067096263501,1.912
0.010379142726997605,1.913
0.010406412348015487,1.914
0.01043487188041887,1.915
0.010464519232313856,1.916
0.010495351105299427,1.917
0.0105273596790003,1.918
0.010560531660091872,1.919
0.01059485089349402,1.92
0.010630302679336432,1.921
0.010666877255938914,1.922
0.010704571357933308,1.923
0.01074338773437293,1.924
0.010783332892036795,1.925
0.01082441356531164,1.926
0.0108666327839229,1.927
0.010909987173196847,1.928
0.010954466986535334,1.929
0.011000058491114234,1.93
0.01104674684873539,1.931
0.01109451801061931,1.932
0.01114335900666774,1.933
0.011193256421075572,1.934
0.011244193456532476,1.935
0.011296147285411364,1.936
0.011349088850055724,1.937
0.01140298527294566,1.938
0.011457802780471983,1.939
0.011513508232449617,1.94
0.01157006872131347,1.941
0.011627449446155388,1.942
0.011685610645194234,1.943
0.011744505393158054,1.944
0.011804080156837258,1.945
0.011864278120480633,1.946
0.011925043565758358,1.947
0.01198632566888111,1.948
0.012048080717091594,1.949
0.012110272045450473,1.95
0.012172867333565034,1.951
0.012235833893194248,1.952
0.01229913449576221,1.953
0.012362726903040688,1.954
0.012426567279623893,1.955
0.01249061440204575,1.956
0.012554831932118687,1.957
0.012619188040292377,1.958
0.01268365271422431,1.959
0.01274819352581824,1.96
0.012812771469816304,1.961
0.012877339177162406,1.962
0.012941842232783447,1.963
0.013006221588227621,1.964
0.013070414742457862,1.965
0.013134354836555921,1.966
0.013197968284566186,1.967
0.013261173341071365,1.968
0.013323881993714445,1.969
0.013386004665971367,1.97
0.013447455205227195,1.971
0.013508154200250417,1.972
0.01356802965864899,1.973
0.013627014590966484,1.974
0.013685042102360108,1.975
0.013742041015130681,1.976
0.013797936303584054,1.977
0.013852655320542568,1.978
0.0139061364099817,1.979
0.01395833620695417,1.98
0.014009233879803195,1.981
0.01405883161995291,1.982
0.014107151166926029,1.983
0.014154226719067277,1.984
0.01420009595900399,1.985
0.014244793433288628,1.986
0.014288350406464687,1.987
0.014330800356109143,1.988
0.014372185473255198,1.989
0.014412560914008225,1.99
0.014451996203347979,1.991
0.014490574203374962,1.992
0.01452838820871224,1.993
0.014565537708201006,1.994
0.014602123260244423,1.995
0.014638241092800264,1.996
0.014673978854480985,1.997
0.014709414304855107,1.998
0.014744616922020719,1.999
0.014779650219789187,2.0
0.014814572851590045,2.001
0.014849438144880343,2.002
0.014884292515786986,2.003
0.014919173406226317,2.004
0.014954107395171898,2.005
0.014989108988451084,2.006
0.015024180347036701,2.007
0.015059311949821862,2.008
0.015094483988449304,2.009
0.015129668212084007,2.01
0.015164829958688763,2.011
0.015199930146573153,2.012
0.015234926980386627,2.013
0.01526977702965901,2.014
0.015304435212868455,2.015
0.015338853164604323,2.016
0.015372976165276999,2.017
0.015406740835128427,2.018
0.01544007668966192,2.019
0.015472911952062714,2.02
0.015505180869213318,2.021
0.015536829667460634,2.022
0.01556781963957657,2.023
0.015598126754792035,2.024
0.015627737827140338,2.025
0.01565664384481328,2.026
0.0156848324521062,2.027
0.01571228382476898,2.028
0.015738972937960352,2.029
0.01576487610530206,2.03
0.01578997755538129,2.031
0.015814273779408992,2.032
0.015837774964735773,2.033
0.015860503310548994,2.034
0.01588248846390578,2.035
0.01590376078793661,2.036
0.01592434439730964,2.037
0.015944253445695274,2.038
0.015963493229869348,2.039
0.015982063217070294,2.04
0.015999958455144837,2.041
0.016017168453085626,2.042
0.01603367435513217,2.043
0.016049446303471694,2.044
0.016064443099250387,2.045
0.016078614307598618,2.046
0.016091902827200792,2.047
0.016104246015167807,2.048
0.016115574538270637,2.049
0.0161258097322988,2.05
0.016134862851386173,2.051
0.016142639318111565,2.052
0.016149046898279916,2.053
0.01615400445093037,2.054
0.016157448899115568,2.055
0.016159339017224588,2.056
0.016159655103226127,2.057
0.016158394281063786,2.058
0.016155561958360178,2.059
0.016151162312267087,2.06
0.01614519408341651,2.061
0.016137655473977382,2.062
0.01612855425352185,2.063
0.016117917080030766,2.064
0.01610579550765639,2.065
0.016092268155994034,2.066
0.0160774389297517,2.067
0.016061431632186603,2.068
0.016044381730823613,2.069
0.01602642686412437,2.07
0.016007699457516514,2.071
0.015988325088340475,2.072
0.01596842637376396,2.073
0.015948128311371598,2.074
0.015927561783751015,2.075
0.015906864522287373,2.076
0.015886179873232237,2.077
0.015865653821963754,2.078
0.01584543075910341,2.079
0.015825648702903074,2.08
0.015806435472170883,2.081
0.015787907571809267,2.082
0.01577017179714287,2.083
0.015753327548631044,2.084
0.01573746811398464,2.085
0.01572268051916855,2.086
0.015709044169552364,2.087
0.015696628658921165,2.088
0.01568549143488811,2.089
0.015675676321051407,2.09
0.015667213253191415,2.091
0.01566011841175861,2.092
0.015654394217020563,2.093
0.015650029927284426,2.094
0.015647003499962817,2.095
0.015645284158006062,2.096
0.015644834574818682,2.097
0.015645611841260874,2.098
0.01564756663088867,2.099
0.015650640917018493,2.1
0.015654766706763846,2.101
0.015659868619558384,2.102
0.015665870147587694,2.103
0.015672701044951946,2.104
0.01568030373669862,2.105
0.015688637718186207,2.106
0.015697681424443475,2.107
0.01570743134671675,2.108
0.01571789839184056,2.109
0.015729101627971028,2.11
0.01574106057156705,2.111
0.015753789764431946,2.112
0.01576729995431681,2.113
0.015781605717444004,2.114
0.015796735086876314,2.115
0.01581273729728233,2.116
0.015829687065133054,2.117
0.01584768504822047,2.118
0.015866854796460255,2.119
0.015887337051984765,2.12
0.0159092825633592,2.121
0.01593284461190851,2.122
0.0159581722133817,2.123
0.01598540481032174,2.124
0.016014669418689488,2.125
0.01604608064525135,2.126
0.016079742628218572,2.127
0.016115751506741893,2.128
0.016154197678934973,2.129
0.016195167574109985,2.13
0.016238744802733754,2.131
0.01628501075179659,2.132
0.01633404493455975,2.133
0.016385925507751205,2.134
0.016440730236904698,2.135
0.01649853786005102,2.136
0.016559429421676996,2.137
0.01662348890677666,2.138
0.01669080252711331,2.139
0.016761456300094593,2.14
0.01683553197990979,2.141
0.01691310241843318,2.142
0.016994228986335215,2.143
0.01707896304344452,2.144
0.017167350317708243,2.145
0.017259435673473073,2.146
0.017355266847883025,2.147
0.017454896579953298,2.148
0.017558382721983585,2.149
0.01766578612569218,2.15
0.017777166428045867,2.151
0.017892576643150342,2.152
0.018012058889445112,2.153
0.01813564368775303,2.154
0.01826335252625134,2.155
0.01839520096204894,2.156
0.018531200208032138,2.157
0.01867135687826546,2.158
0.018815671289799697,2.159
0.018964134807951276,2.16
0.019116726705212653,2.161
0.01927341129901153,2.162
0.019434136589205297,2.163
0.019598834842580216,2.164
0.019767423947555395,2.165
0.019939808126683615,2.166
0.02011587753898117,2.167
0.020295506905194147,2.168
0.020478553736190754,2.169
0.020664857218837644,2.17
0.020854238224994062,2.171
0.02104649955649909,2.172
0.021241425607366204,2.173
0.021438782175005517,2.174
0.021638317672488375,2.175
0.021839765790059067,2.176
0.022042848716020882,2.177
0.022247280240355927,2.178
0.022452768447517386,2.179
0.022659017734291013,2.18
0.022865729721604267,2.181
0.023072602431373376,2.182
0.02327932702925047,2.183
0.02348558291935086,2.184
0.023691035465345744,2.185
0.023895340746665605,2.186
0.02409815638449767,2.187
0.02429915384310234,2.188
0.024498028606861365,2.189
0.024694506201834353,2.19
0.024888342867214745,2.191
0.025079320523186427,2.192
0.02526723645649451,2.193
0.025451890107154408,2.194
0.02563307355318775,2.195
0.025810572915676008,2.196
0.025984180326058735,2.197
0.026153709140528912,2.198
0.02631900611261276,2.199
0.026479957927959978,2.2
0.026636491272758807,2.201
0.026788566583405136,2.202
0.02693616666258248,2.203
0.027079282170139045,2.204
0.02721789731798251,2.205
0.027351980777107134,2.206
0.027481484698716734,2.207
0.02760634899156647,2.208
0.027726506135259066,2.209
0.027841884904187937,2.21
0.027952413741130593,2.211
0.028058024659109653,2.212
0.028158657962621902,2.213
0.028254267396849875,2.214
0.028344824783917828,2.215
0.028430322956259028,2.216
0.02851077586987892,2.217
0.028586215063645372,2.218
0.028656682002015176,2.219
0.028722217126911455,2.22
0.028782850313562577,2.221
0.028838600250782713,2.222
0.02888948493876311,2.223
0.02893553698799827,2.224
0.028976816478322388,2.225
0.029013418393267112,2.226
0.029045474342414057,2.227
0.029073149375553532,2.228
0.029096635215927515,2.229
0.029116141140205633,2.23
0.029131883320000624,2.231
0.029144073306217676,2.232
0.029152908030548378,2.233
0.029158566154008365,2.234
0.029161212962305654,2.235
0.029161009754880982,2.236
0.029158122565464115,2.237
0.02915272825967029,2.238
0.02914501779644217,2.239
0.029135196817886122,2.24
0.02912348406428609,2.241
0.029110108297492908,2.242
0.029095304389429158,2.243
0.029079309012925592,2.244
0.02906235607281884,2.245
0.029044671779365167,2.246
0.029026469179159024,2.247
0.02900794264539886,2.248
0.028989264572071696,2.249
0.028970586715759642,2.25
0.02895204579444021,2.251
0.028933770754796237,2.252
0.02891588969364307,2.253
0.02889853548541095,2.254
0.028881849488047926,2.255
0.02886598287266309,2.256
0.02885109541193082,2.257
0.028837351889692147,2.258
0.02882491659525796,2.259
0.028813946580601955,2.26
0.02880458448293064,2.261
0.02879695240935664,2.262
0.028791149384133376,2.263
0.02878725349634669,2.264
0.028785326860443987,2.265
0.028785421074501435,2.266
0.02878758238588559,2.267
0.028791856261467054,2.268
0.028798290792052265,2.269
0.028806938246309303,2.27
0.028817854189090667,2.271
0.028831093868115193,2.272
0.028846705967291716,2.273
0.028864725097343915,2.274
0.02888516683339895,2.275
0.028908028951374915,2.276
0.028933297938465552,2.277
0.028960956550351993,2.278
0.028990989236138402,2.279
0.029023384121409753,2.28
0.029058131009954677,2.281
0.02909521537400709,2.282
0.029134610143262282,2.283
0.02917627033032018,2.284
0.02922013469352067,2.285
0.0292661321956713,2.286
0.029314187330328707,2.287
0.029364220608863713,2.288
0.029416143824224347,2.289
0.0294698534523768,2.29
0.029525228879287883,2.291
0.029582138696070636,2.292
0.029640450465702538,2.293
0.0297000375448142,2.294
0.02976078007563988,2.295
0.029822559671636918,2.296
0.02988525002717455,2.297
0.02994871052225585,2.298
0.03001278973441298,2.299
0.030077337476156103,2.3
0.030142218121481792,2.301
0.03020731988165647,2.302
0.03027255798711865,2.303
0.030337871190815987,2.304
0.03040321196186277,2.305
0.03046853271554797,2.306
0.03053377429161693,2.307
0.03059886389795085,2.308
0.030663722835306422,2.309
0.030728277124882884,2.31
0.03079246534526338,2.311
0.03085624255277767,2.312
0.030919580936690706,2.313
0.030982467860771315,2.314
0.031044901750346365,2.315
0.03110688609205445,2.316
0.03116842173389658,2.317
0.03122949803168909,2.318
0.031290085211695864,2.319
0.03135013222490433,2.32
0.0314095718261807,2.321
0.03146832953901027,2.322
0.03152633239997338,2.323
0.031583515806623635,2.324
0.031639827936244494,2.325
0.03169523126100555,2.326
0.03174970074091995,2.327
0.03180321839131706,2.328
0.03185576417857163,2.329
0.03190730539992405,2.33
0.031957790975076034,2.331
0.032007155831978024,2.332
0.03205533233283821,2.333
0.032102261721388796,2.334
0.032147901521732844,2.335
0.032192227645438685,2.336
0.032235231078366774,2.337
0.03227690992762521,2.338
0.03231725835160724,2.339
0.03235625528739735,2.34
0.03239385795346596,2.341
0.03243000348562417,2.342
0.03246461653787356,2.343
0.03249761851848141,2.344
0.03252893627199559,2.345
0.03255850940653825,2.346
0.0325862953812259,2.347
0.032612271429761745,2.348
0.03263643267654414,2.349
0.03265878621946413,2.35
0.032679341354061746,2.351
0.032698097896060166,2.352
0.032715038470167934,2.353
0.0327301306987672,2.354
0.03274333806966588,2.355
0.03275463285547235,2.356
0.032764006278895114,2.357
0.03277147461724999,2.358
0.03277708144212893,2.359
0.03278089658761862,2.36
0.032783012361686806,2.361
0.03278353716363024,2.362
0.032782586388698055,2.363
0.032780270951149194,2.364
0.03277668676005886,2.365
0.03277191206804909,2.366
0.03276601604290872,2.367
0.03275907347849279,2.368
0.03275117861653906,2.369
0.032742454639492775,2.37
0.03273305742744003,2.371
0.0327231728183181,2.372
0.032713007499110394,2.373
0.032702774635188676,2.374
0.03269267828253601,2.375
0.032682904930511375,2.376
0.0326736270191204,2.377
0.032665012740873786,2.378
0.032657233683530705,2.379
0.03265046730438482,2.38
0.03264489478043015,2.381
0.03264069550748753,2.382
0.03263803974680961,2.383
0.03263708091504613,2.384
0.03263794886981759,2.385
0.03264074519191928,2.386
0.0326455408031359,2.387
0.0326523755503806,2.388
0.032661259018573106,2.389
0.03267217175944307,2.39
0.03268506619779231,2.391
0.03269986667355416,2.392
0.032716468710953614,2.393
0.03273473894593132,2.394
0.03275451767176707,2.395
0.03277562451811909,2.396
0.032797866256654234,2.397
0.03282104545572911,2.398
0.03284496873217105,2.399
0.03286945318071224,2.4
0.032894329518334584,2.401
0.03291944072436184,2.402
0.032944635479263025,2.403
0.03296975749640025,2.404
0.03299463633288986,2.405
0.03301908781504941,2.406
0.03304292595528585,2.407
0.03306597956197434,2.408
0.03308810608916197,2.409
0.033109199342806844,2.41
0.03312919011697661,2.411
0.033148040137985606,2.412
0.03316573088341131,2.413
0.033182249511986076,2.414
0.03319757456321277,2.415
0.03321166519849311,2.416
0.033224457873550335,2.417
0.033235870470148206,2.418
0.033245809714120944,2.419
0.03325417842276736,2.42
0.03326088189084436,2.421
0.03326583357616697,2.422
0.03326895998324034,2.423
0.033270204391268536,2.424
0.03326952887452278,2.425
0.03326691394020551,2.426
0.03326235509719705,2.427
0.033255855836529166,2.428
0.033247416919466755,2.429
0.03323702461475911,2.43
0.03322464521156542,2.431
0.03321023064888969,2.432
0.03319373057292457,2.433
0.033175103338127156,2.434
0.033154322927421584,2.435
0.03313138152263306,2.436
0.03310628805996501,2.437
0.0330790636168345,2.438
0.0330497348479717,2.439
0.03301832675901859,2.44
0.032984855772906344,2.441
0.03294932344351318,2.442
0.032911710664276374,2.443
0.032871972864069024,2.444
0.032830038389010614,2.445
0.03278581168514148,2.446
0.03273917984014696,2.447
0.03269002008213034,2.448
0.03263820711944925,2.449
0.03258361981201707,2.45
0.03252614657523236,2.451
0.03246568887093516,2.452
0.032402162147821496,2.453
0.03233549368594173,2.454
0.03226561703122708,2.455
0.03219246310386956,2.456
0.03211594990616802,2.457
0.03203597632708789,2.458
0.03195242513962846,2.459
0.031865173848028575,2.46
0.03177410800693963,2.461
0.03167913331571106,2.462
0.03158018480507539,2.463
0.03147723177571763,2.464
0.03137027725806965,2.465
0.031259351201396904,2.466
0.031144497343577108,2.467
0.03102575726544232,2.468
0.030903161586649935,2.469
0.030776736338345694,2.47
0.030646520082293353,2.471
0.030512581258737435,2.472
0.030375029654825247,2.473
0.030234020140352313,2.474
0.03008974829209974,2.475
0.029942438512101443,2.476
0.02979232684079723,2.477
0.029639645010897872,2.478
0.029484615838036226,2.479
0.02932746311486631,2.48
0.029168427279684637,2.481
0.029007776744545768,2.482
0.028845811019111836,2.483
0.02868285559545319,2.484
0.028519250159037286,2.485
0.02835533373129881,2.486
0.028191432917344546,2.487
0.028027858516561508,2.488
0.027864909086694197,2.489
0.027702875218055995,2.49
0.027542040674125103,2.491
0.027382680693058686,2.492
0.027225059096565796,2.493
0.027069425627828343,2.494
0.026916014389363817,2.495
0.026765043596618278,2.496
0.026616716308529482,2.497
0.026471221452618553,2.498
0.026328734320252248,2.499
0.02618941571421821,2.5
0.026053409547085616,2.501
0.025920840666222106,2.502
0.025791816153486382,2.503
0.02566643113770405,2.504
0.025544776464590063,2.505
0.025426944860609035,2.506
0.02531303369294858,2.507
0.025203143600769896,2.508
0.02509737313563116,2.509
0.02499581119929245,2.51
0.024898531508455873,2.511
0.024805592751645195,2.512
0.024717043155930183,2.513
0.024632925053345165,2.514
0.024553276778913665,2.515
0.024478131767228455,2.516
0.02440751566085957,2.517
0.02434144236989791,2.518
0.02427990989482347,2.519
0.024222896739628557,2.52
0.024170359918271923,2.521
0.024122234849311103,2.522
0.024078436110285394,2.523
0.024038857950850645,2.524
0.024003374453726432,2.525
0.023971839804710564,2.526
0.023944089122667527,2.527
0.02391994004292273,2.528
0.023899194869535272,2.529
0.023881642750252525,2.53
0.023867061083988343,2.531
0.02385521529690527,2.532
0.02384585669262453,2.533
0.023838720157544353,2.534
0.023833525372001996,2.535
0.023829983218318977,2.536
0.023827805133189484,2.537
0.02382671218447273,2.538
0.023826441961147957,2.539
0.02382675207744973,2.54
0.023827419257483273,2.541
0.02382823323367154,2.542
0.02382898662648921,2.543
0.02382946717931589,2.544
0.02382946110125345,2.545
0.023828768863502197,2.546
0.02382722566293541,2.547
0.02382471801496792,2.548
0.02382119172477944,2.549
0.023816649339038334,2.55
0.02381113756444148,2.551
0.023804727423751386,2.552
0.023797493658892527,2.553
0.023789503796987264,2.554
0.02378082133729708,2.555
0.02377151505566219,2.556
0.023761664937522853,2.557
0.023751362474485404,2.558
0.0237407065787643,2.559
0.023729796497434022,2.56
0.0237187235260248,2.561
0.023707564567384053,2.562
0.023696380308480664,2.563
0.023685216955299623,2.564
0.02367410714338193,2.565
0.02366306835860025,2.566
0.023652103563664307,2.567
0.023641209106728883,2.568
0.023630388156474287,2.569
0.023619663858824597,2.57
0.023609087751625738,2.571
0.02359874091449954,2.572
0.023588727109637515,2.573
0.02357915969815513,2.574
0.02357014777173506,2.575
0.02356178867732846,2.576
0.023554168046576826,2.577
0.02354736058966282,2.578
