VaMe,time
0.0006933528315929391,0.001
0.0007674339182337276,0.002
0.0008423788749424611,0.003
0.0009181633360557291,0.004
0.0009947623452638097,0.005
0.001072150457448522,0.006
0.0011503020238117277,0.007
0.0012291916016413601,0.008
0.0013087943830311748,0.009
0.0013890865174762436,0.01
0.0014700452055002237,0.011
0.0015516484601343673,0.012
0.0016338745361877153,0.013
0.001716701342811436,0.014
0.0018001064190266037,0.015
0.0018840677076407636,0.016
0.001968564733325075,0.017
0.0020535796827906246,0.018
0.002139098152251949,0.019
0.002225109472134335,0.02
0.0023116065504009465,0.021
0.002398585208451872,0.022
0.0024860430328936187,0.023
0.0025739779483166672,0.024
0.002662387089465169,0.025
0.002751266579732913,0.026
0.002840612116238482,0.027
0.002930419675327853,0.028
0.0030206858930148005,0.029
0.0031114081672883116,0.03
0.0032025847141429176,0.031
0.003294214752911279,0.032
0.003386298836129119,0.033
0.003478839164011206,0.034
0.0035718396267019163,0.035
0.0036653053377128457,0.036
0.0037592415405198376,0.037
0.0038536521941290674,0.038
0.00394853918466052,0.039
0.004043902813626343,0.04
0.004139742970135592,0.041
0.004236059973587159,0.042
0.004332854658036898,0.043
0.004430127725529491,0.044
0.004527878554425563,0.045
0.004626103884200506,0.046
0.004724797079645423,0.047
0.004823948332023717,0.048
0.00492354532886144,0.049
0.005023573754488797,0.05
0.005124017389206697,0.051
0.0052248577866445415,0.052
0.005326073555318959,0.053
0.00542763949537821,0.054
0.005529526177996384,0.055
0.005631700326599167,0.056
0.005734125622331508,0.057
0.005836763334006143,0.058
0.005939572492547843,0.059
0.006042509548302668,0.06
0.00614552754591336,0.061
0.006248575129396368,0.062
0.006351596062877772,0.063
0.006454529670550725,0.064
0.006557311760838665,0.065
0.00665987536061142,0.066
0.006762150945816135,0.067
0.006864066080701242,0.068
0.006965544498933101,0.069
0.007066505051756552,0.07
0.007166861398150018,0.071
0.007266522923814289,0.072
0.007365396402888149,0.073
0.007463387693853626,0.074
0.007560403190546857,0.075
0.007656350964692119,0.076
0.007751141511929371,0.077
0.00784468794216167,0.078
0.007936905369064233,0.079
0.008027709209045351,0.08
0.008117012699638488,0.081
0.008204725459892464,0.082
0.008290755104933774,0.083
0.008375011591455251,0.084
0.008457412170460692,0.085
0.008537885257786842,0.086
0.008616372462884596,0.087
0.008692828495372304,0.088
0.008767218987937609,0.089
0.008839516537744863,0.09
0.00890969568951289,0.091
0.00897772864881227,0.092
0.00904358415465772,0.093
0.009107230048381196,0.094
0.009168637398030808,0.095
0.009227783992645483,0.096
0.009284656515461948,0.097
0.009339251417074652,0.098
0.009391574624014676,0.099
0.009441640253170324,0.1
0.009489468458446206,0.101
0.009535082461357989,0.102
0.00957850487529422,0.103
0.00961975423930392,0.104
0.009658843820889218,0.105
0.00969578378481762,0.106
0.009730585233806587,0.107
0.009763264014954165,0.108
0.009793843361332134,0.109
0.00982235509088914,0.11
0.009848839242089113,0.111
0.00987334224064166,0.112
0.009895913922554999,0.113
0.009916603901795891,0.114
0.009935457944415653,0.115
0.009952515371440287,0.116
0.00996780849635847,0.117
0.009981364074775527,0.118
0.009993205789781296,0.119
0.010003357026707736,0.12
0.010011843754235838,0.121
0.010018697378916069,0.122
0.010023957246370105,0.123
0.010027672316111862,0.124
0.010029901490954785,0.125
0.010030712170996445,0.126
0.01003017682992598,0.127
0.010028368301885696,0.128
0.010025356313585329,0.129
0.01002120810347382,0.13
0.010015992926106724,0.131
0.010009787495822984,0.132
0.010002679914624,0.133
0.009994771190556652,0.134
0.009986174234044368,0.135
0.009977010632937369,0.136
0.009967405874988648,0.137
0.009957484156237402,0.138
0.00994736451895856,0.139
0.0099371596421314,0.14
0.009926976658506951,0.141
0.009916918144686444,0.142
0.009907082248191645,0.143
0.009897562075303424,0.144
0.009888444780490608,0.145
0.009879810699873759,0.146
0.009871732727794853,0.147
0.009864276009620799,0.148
0.009857497954774933,0.149
0.009851448567805603,0.15
0.009846171123956094,0.151
0.009841703228612877,0.152
0.009838078252755698,0.153
0.009835327024788178,0.154
0.009833479526933408,0.155
0.00983256625125844,0.156
0.009832618850891563,0.157
0.009833669778927455,0.158
0.009835750731332839,0.159
0.009838890136425738,0.16
0.00984311097085112,0.161
0.009848430713957341,0.162
0.009854863740577273,0.163
0.009862424475044861,0.164
0.009871129592768445,0.165
0.009880998622521493,0.166
0.00989205296509661,0.167
0.009904313691133246,0.168
0.009917798748277614,0.169
0.00993252030642574,0.17
0.00994848285880136,0.171
0.009965682412014377,0.172
0.009984106738771682,0.173
0.010003736348223652,0.174
0.010024545639453911,0.175
0.010046503684986142,0.176
0.01006957423998981,0.177
0.010093714854617275,0.178
0.010118875542648554,0.179
0.010144998111261608,0.18
0.010172016831228058,0.181
0.010199859880299806,0.182
0.01022845075741863,0.183
0.010257709536772044,0.184
0.01028755415378458,0.185
0.01031790184594266,0.186
0.010348670719600632,0.187
0.010379781238210942,0.188
0.010411157284912789,0.189
0.01044272638963309,0.19
0.010474418752898831,0.191
0.010506164840697007,0.192
0.010537892052353831,0.193
0.010569522508507038,0.194
0.010600974184198907,0.195
0.010632165112161734,0.196
0.010663018326879227,0.197
0.010693465650538796,0.198
0.010723449536375974,0.199
0.010752922779030604,0.2
0.01078184629211074,0.201
0.010810185477341258,0.202
0.010837905877755105,0.203
0.010864968941237837,0.204
0.010891329005292967,0.205
0.01091693244495433,0.206
0.010941718751775482,0.207
0.010965622378370775,0.208
0.010988574553117718,0.209
0.0110105049400777,0.21
0.011031343133856857,0.211
0.011051019871612664,0.212
0.0110694678178663,0.213
0.011086621827390014,0.214
0.011102418657833608,0.215
0.01111679613111449,0.216
0.011129691724951714,0.217
0.011141040546360852,0.218
0.01115077280489899,0.219
0.01115881169726941,0.22
0.011165073388314841,0.221
0.011169469849244811,0.222
0.011171913466184858,0.223
0.011172321891458357,0.224
0.011170622166690833,0.225
0.011166753313423036,0.226
0.011160666563558222,0.227
0.011152322616719971,0.228
0.011141686297457586,0.229
0.011128721550910827,0.23
0.011113391402999105,0.231
0.011095664203066015,0.232
0.011075522422281752,0.233
0.011052969724373462,0.234
0.011028034322236363,0.235
0.011000767973807883,0.236
0.010971240599475641,0.237
0.010939531774907812,0.238
0.010905723093062378,0.239
0.010869896758498756,0.24
0.010832141403495409,0.241
0.010792560338379895,0.242
0.010751277421830144,0.243
0.010708438937815954,0.244
0.010664211573777286,0.245
0.010618777216517284,0.246
0.010572325780739593,0.247
0.01052504784877775,0.248
0.010477129516760915,0.249
0.010428750998684753,0.25
0.010380087961812959,0.251
0.010331313301069244,0.252
0.010282598258054054,0.253
0.010234113056061296,0.254
0.010186027379832386,0.255
0.010138510779584787,0.256
0.010091732881406426,0.257
0.010045863208375638,0.258
0.010001070467180764,0.259
0.009957521288555099,0.26
0.00991537855715791,0.261
0.009874799571127383,0.262
0.009835934343677244,0.263
0.009798924400175588,0.264
0.009763902241819299,0.265
0.009730991231580692,0.266
0.009700305531959722,0.267
0.009671950029961135,0.268
0.00964602041255729,0.269
0.009622603609463858,0.27
0.009601778783267637,0.271
0.009583618757524413,0.272
0.0095681914555956,0.273
0.009555560878294003,0.274
0.009545787304162162,0.275
0.009538926635598695,0.276
0.009535029060338138,0.277
0.009534137550442842,0.278
0.009536287054507205,0.279
0.00954150473898936,0.28
0.009549810589886614,0.281
0.009561217550389687,0.282
0.00957573105205883,0.283
0.009593348352101662,0.284
0.00961405822385854,0.285
0.009637841077497473,0.286
0.009664669040692988,0.287
0.009694505842798762,0.288
0.009727307032273872,0.289
0.009763020861800366,0.29
0.009801589345241196,0.291
0.009842948713851118,0.292
0.009887028917509895,0.293
0.009933752637663409,0.294
0.009983035051240464,0.295
0.01003478502037855,0.296
0.010088906829424114,0.297
0.010145301109042834,0.298
0.0102038642235609,0.299
0.010264486571316983,0.3
0.010327051843180328,0.301
0.010391438909866576,0.302
0.010457525342935267,0.303
0.010525190424271292,0.304
0.010594316490728374,0.305
0.010664788294861786,0.306
0.010736490390134152,0.307
0.010809303524306476,0.308
0.01088310272179327,0.309
0.01095775919699988,0.31
0.011033144987978465,0.311
0.01110913769129795,0.312
0.011185623817733116,0.313
0.01126250026966246,0.314
0.011339673723823433,0.315
0.011417057943132582,0.316
0.011494569340422048,0.317
0.011572121860935142,0.318
0.011649623447487866,0.319
0.011726975963964053,0.32
0.011804077842175896,0.321
0.011880827208824801,0.322
0.011957124232501245,0.323
0.012032872621509812,0.324
0.012107980503515912,0.325
0.012182360875722055,0.326
0.012255931718949488,0.327
0.012328615737985016,0.328
0.01240033955654287,0.329
0.012471032105390025,0.33
0.012540621928507474,0.331
0.01260903364136975,0.332
0.012676185318484339,0.333
0.012741989410753283,0.334
0.012806357708303807,0.335
0.012869208142599783,0.336
0.01293047094888952,0.337
0.012990092739516422,0.338
0.013048037651320149,0.339
0.01310428515783091,0.34
0.013158824658452006,0.341
0.01321164813722881,0.342
0.013262744509707334,0.343
0.013312099687253835,0.344
0.013359702244057251,0.345
0.013405550592750752,0.346
0.013449658176219582,0.347
0.013492055492161195,0.348
0.013532788878478929,0.349
0.013571916440860171,0.35
0.013609501858067542,0.351
0.013645607475910712,0.352
0.013680289360209243,0.353
0.01371359671142945,0.354
0.01374557500525046,0.355
0.013776269998561698,0.356
0.013805730674321684,0.357
0.013834010795885778,0.358
0.013861169226341648,0.359
0.013887269147384387,0.36
0.01391237627602787,0.361
0.013936556163651146,0.362
0.013959870674261894,0.363
0.01398237427614186,0.364
0.014004111985942376,0.365
0.01402512058827394,0.366
0.014045432409895548,0.367
0.014065079520433342,0.368
0.014084096862653734,0.369
0.014102523614831422,0.37
0.014120402435034636,0.371
0.014137776528008421,0.372
0.014154685268901748,0.373
0.014171160809201427,0.374
0.014187228527928137,0.375
0.014202911376806121,0.376
0.014218235290853651,0.377
0.014233233107202198,0.378
0.014247946019961863,0.379
0.01426242244903158,0.38
0.014276714575897761,0.381
0.014290873201740594,0.382
0.014304942759391811,0.383
0.014318959594786476,0.384
0.01433295488643413,0.385
0.014346959900174552,0.386
0.014361010626355456,0.387
0.014375150649422101,0.388
0.014389432100648896,0.389
0.014403914787223363,0.39
0.01441866380403827,0.391
0.014433746078821945,0.392
0.014449226342510234,0.393
0.014465162977806152,0.394
0.01448160450338166,0.395
0.014498587996226173,0.396
0.014516140000293174,0.397
0.014534278774124552,0.398
0.014553016554558072,0.399
0.014572361521115029,0.4
0.014592319555972703,0.401
0.01461289577571953,0.402
0.014634095684570829,0.403
0.01465592576740199,0.404
0.014678393418765376,0.405
0.014701506207883294,0.406
0.01472527053178916,0.407
0.014749689711332387,0.408
0.014774761589449053,0.409
0.014800475737365445,0.41
0.014826810783267199,0.411
0.014853733017257186,0.412
0.014881196846757457,0.413
0.014909146128811633,0.414
0.01493751523133549,0.415
0.014966229736593277,0.416
0.014995207314710912,0.417
0.015024359321873116,0.418
0.015053593443923548,0.419
0.015082817279905103,0.42
0.015111942296156176,0.421
0.01514088724770535,0.422
0.015169580061839336,0.423
0.015197957321355354,0.424
0.015225960828035144,0.425
0.015253531878969781,0.426
0.015280606485162981,0.427
0.015307115823601504,0.428
0.015332992410197224,0.429
0.015358178048587195,0.43
0.015382629765049104,0.431
0.015406322337254072,0.432
0.01542924737083176,0.433
0.015451409462414393,0.434
0.015472820368200352,0.435
0.015493492214921642,0.436
0.01551343109478197,0.437
0.015532633070464565,0.438
0.015551084007963263,0.439
0.0155687623461474,0.44
0.015585642819600705,0.441
0.015601700145068802,0.442
0.015616912580729968,0.443
0.01563126528943213,0.444
0.015644753207290613,0.445
0.0156573829315998,0.446
0.015669173051610093,0.447
0.015680152405413678,0.448
0.01569035596948193,0.449
0.01569981877434569,0.45
0.015708570264010374,0.451
0.0157166332961829,0.452
0.01572402937864707,0.453
0.01573078684029639,0.454
0.015736947715414718,0.455
0.015742571266467765,0.456
0.01574773345861266,0.457
0.015752522432766158,0.458
0.015757030804777646,0.459
0.01576134729494871,0.46
0.01576555221513194,0.461
0.015769718898354,0.462
0.015773917444456442,0.463
0.015778216310357404,0.464
0.015782680721685136,0.465
0.015787369009576852,0.466
0.015792328671014256,0.467
0.01579759384586602,0.468
0.01580318453736325,0.469
0.015809107108330302,0.47
0.015815356102345114,0.471
0.015821917116364482,0.472
0.015828769460040873,0.473
0.015835887388080633,0.474
0.015843239378404827,0.475
0.015850785734373082,0.476
0.01585847607458275,0.477
0.015866248992586242,0.478
0.01587403456332882,0.479
0.015881758107438245,0.48
0.015889343567184716,0.481
0.01589671598470687,0.482
0.015903802938504914,0.483
0.01591053460503656,0.484
0.015916841991205907,0.485
0.01592265312358112,0.486
0.01592788860798675,0.487
0.015932460322246492,0.488
0.01593627563922668,0.489
0.015939244953496707,0.49
0.01594128883813571,0.491
0.015942343022503334,0.492
0.01594236056523469,0.493
0.01594131089906422,0.494
0.015939175708057064,0.495
0.015935941880537402,0.496
0.015931593512464322,0.497
0.015926108065152877,0.498
0.015919460269652633,0.499
0.015911630868370795,0.5
0.0159026149016075,0.501
0.01589242690913138,0.502
0.015881102338033793,0.503
0.015868695070705527,0.504
0.015855271578040595,0.505
0.015840902692921363,0.506
0.015825655259301328,0.507
0.015809587759501215,0.508
0.01579275224117716,0.509
0.015775199870162654,0.51
0.015756986085025144,0.511
0.015738173614246783,0.512
0.015718832920191644,0.513
0.01569903986723254,0.514
0.015678870785844484,0.515
0.01565839647301344,0.516
0.01563767872345983,0.517
0.01561677171183412,0.518
0.015595726009314286,0.519
0.015574591586745805,0.52
0.01555341845595043,0.521
0.015532255331418665,0.522
0.015511147081647027,0.523
0.015490131677872308,0.524
0.015469237212519447,0.525
0.015448479849032231,0.526
0.015427863912317912,0.527
0.015407384606589986,0.528
0.015387032581630534,0.529
0.015366799183355765,0.53
0.015346681360363471,0.531
0.015326685116452002,0.532
0.015306826448193126,0.533
0.015287129188366529,0.534
0.015267619924077354,0.535
0.015248321560400837,0.536
0.015229248923453197,0.537
0.015210408857756619,0.538
0.015191803184203326,0.539
0.015173431013912423,0.54
0.015155288821256378,0.541
0.015137368751330588,0.542
0.015119656403881368,0.543
0.015102129403464937,0.544
0.015084757711076318,0.545
0.015067506018496745,0.546
0.015050337906519416,0.547
0.015033220892518727,0.548
0.015016131118194756,0.549
0.014999056301521088,0.55
0.01498199578604633,0.551
0.014964957105375303,0.552
0.014947949656089326,0.553
0.01493097834270464,0.554
0.014914041467504321,0.555
0.014897134007103982,0.556
0.01488025273611927,0.557
0.014863399608980796,0.558
0.014846582612481334,0.559
0.01482981468106633,0.56
0.014813111430305066,0.561
0.014796488386082053,0.562
0.014779958142252981,0.563
0.014763527576886717,0.564
0.01474719507429723,0.565
0.014730948120848618,0.566
0.014714762418076037,0.567
0.014698603015422926,0.568
0.014682426115340293,0.569
0.014666179716236693,0.57
0.014649802678146124,0.571
0.014633223968448163,0.572
0.01461636470343868,0.573
0.014599143554716967,0.574
0.014581483606616201,0.575
0.014563318450137492,0.576
0.014544596023459174,0.577
0.01452527913776242,0.578
0.01450534198282568,0.579
0.01448476331620968,0.58
0.014463520539774847,0.581
0.014441590637153086,0.582
0.014418959052154678,0.583
0.014395631280119116,0.584
0.014371641748370752,0.585
0.014347057769759523,0.586
0.01432197832734379,0.587
0.014296528404616697,0.588
0.014270850240939516,0.589
0.014245093161715173,0.59
0.014219404256097365,0.591
0.014193923108019115,0.592
0.014168782044139865,0.593
0.014144109522542985,0.594
0.014120033625334934,0.595
0.014096684844238627,0.596
0.014074198461465612,0.597
0.014052716606527509,0.598
0.014032389720493537,0.599
0.014013376980732453,0.6
0.013995845282472982,0.601
0.01397996659794909,0.602
0.013965913858520756,0.603
0.013953856026241848,0.604
0.01394395394743675,0.605
0.013936358845550006,0.606
0.01393121342712021,0.607
0.01392865343393982,0.608
0.013928807839902664,0.609
0.013931797529324521,0.61
0.013937733238972383,0.611
0.013946713797753254,0.612
0.01395882527884684,0.613
0.013974141096447021,0.614
0.013992723119304093,0.615
0.014014623874601343,0.616
0.014039889410783246,0.617
0.014068562084484506,0.618
0.014100682605049753,0.619
0.014136290787566801,0.62
0.014175424655936117,0.621
0.014218117887462566,0.622
0.014264396393392385,0.623
0.014314275902740944,0.624
0.014367761912553274,0.625
0.014424851121301872,0.626
0.014485532501943843,0.627
0.014549787265145884,0.628
0.014617588027882635,0.629
0.014688897786071648,0.63
0.01476366923280816,0.631
0.01484184477191229,0.632
0.014923357323541074,0.633
0.015008131778073365,0.634
0.015096086778234501,0.635
0.015187136413765128,0.636
0.01528119138612728,0.637
0.015378159225942073,0.638
0.01547794322612396,0.639
0.015580439934947642,0.64
0.015685536006932125,0.641
0.015793106729720972,0.642
0.015903017708288433,0.643
0.016015128092267742,0.644
0.016129292799353098,0.645
0.016245362696018624,0.646
0.01636318287799099,0.647
0.016482589760760766,0.648
0.016603408061000084,0.649
0.016725448767565893,0.65
0.016848508856980863,0.651
0.016972372953852552,0.652
0.017096816587552816,0.653
0.017221610312329622,0.654
0.01734652378840679,0.655
0.017471328938457056,0.656
0.01759580145239233,0.657
0.01771972017544332,0.658
0.017842864225577727,0.659
0.01796500820803341,0.66
0.018085917511634103,0.661
0.018205347493716165,0.662
0.018323048652255695,0.663
0.018438775741588333,0.664
0.018552297689569616,0.665
0.01866340663948538,0.666
0.018771925039403836,0.667
0.018877709549293503,0.668
0.018980650523823885,0.669
0.019080666076391653,0.67
0.0191776906017761,0.671
0.0192716616771375,0.672
0.0193625149205957,0.673
0.01945019234562838,0.674
0.019534657559591342,0.675
0.019615907921747944,0.676
0.019693979576237624,0.677
0.019768945234115872,0.678
0.019840906014925483,0.679
0.019909979638945197,0.68
0.01997628757390947,0.681
0.020039943980673602,0.682
0.020101049397356192,0.683
0.020159689745317115,0.684
0.020215937708891945,0.685
0.020269853560185003,0.686
0.02032148497538491,0.687
0.020370866471235642,0.688
0.020418018907816585,0.689
0.02046294924466877,0.69
0.02050565060452316,0.691
0.020546102713790735,0.692
0.02058427290175013,0.693
0.0206201179527708,0.694
0.020653587112695066,0.695
0.02068462638378741,0.696
0.020713183894180146,0.697
0.02073921565495977,0.698
0.020762690548292977,0.699
0.02078359310201767,0.7
0.02080192266445558,0.701
0.020817688063599696,0.702
0.02083089886916865,0.703
0.0208415586670579,0.704
0.02084966681334888,0.705
0.020855228607949482,0.706
0.020858267572055257,0.707
0.02085883446542188,0.708
0.020857011279898172,0.709
0.020852910229400952,0.71
0.020846668387054904,0.711
0.020838438935462444,0.712
0.020828380097871194,0.713
0.020816644332476552,0.714
0.020803373135628248,0.715
0.020788700459789304,0.716
0.020772760752733467,0.717
0.02075569589520574,0.718
0.0207376588111531,0.719
0.02071881366682801,0.72
0.020699333189153537,0.721
0.020679394145451883,0.722
0.020659172274907062,0.723
0.02063883785731429,0.724
0.020618552657029554,0.725
0.020598468292896847,0.726
0.020578725353145085,0.727
0.020559452062873906,0.728
0.020540762242345384,0.729
0.020522755017354302,0.73
0.02050551913901919,0.731
0.020489141104177863,0.732
0.020473713712585353,0.733
0.02045934230100841,0.734
0.020446146985008597,0.735
0.02043426008080644,0.736
0.02042381887496308,0.737
0.020414956332378418,0.738
0.020407795804424433,0.739
0.02040245377076974,0.74
0.0203990470841224,0.741
0.020397698509692856,0.742
0.020398537808568262,0.743
0.020401698420727254,0.744
0.020407310908179273,0.745
0.020415495908044236,0.746
0.020426360703986506,0.747
0.020440000918037667,0.748
0.020456504084242676,0.749
0.02047595148423238,0.75
0.020498417453837545,0.751
0.02052396678824435,0.752
0.020552651238447208,0.753
0.020584506803271847,0.754
0.02061955351340114,0.755
0.020657797622841353,0.756
0.020699234443502343,0.757
0.020743850321145375,0.758
0.020791623268900647,0.759
0.020842522273712513,0.76
0.020896505465720455,0.761
0.020953517454829276,0.762
0.021013486515342825,0.763
0.021076322891364317,0.764
0.02114191895777926,0.765
0.021210150380180877,0.766
0.021280876989355702,0.767
0.02135394297396763,0.768
0.021429176644623727,0.769
0.0215063901668429,0.77
0.021585379625983447,0.771
0.021665925639718815,0.772
0.02174779453541161,0.773
0.021830739934229414,0.774
0.021914504466357048,0.775
0.021998821276045393,0.776
0.022083414951193068,0.777
0.02216800153263757,0.778
0.02225228731510096,0.779
0.022335966211192007,0.78
0.022418716466809353,0.781
0.022500199747626327,0.782
0.022580065355077367,0.783
0.022657958678158962,0.784
0.022733530965761292,0.785
0.022806448006859683,0.786
0.022876395536153,0.787
0.022943079272586615,0.788
0.023006218326648432,0.789
0.023065534088685235,0.79
0.02312074275829409,0.791
0.023171559323338323,0.792
0.023217710621171034,0.793
0.023258948483650895,0.794
0.02329505703563274,0.795
0.023325852865613034,0.796
0.023351178865937065,0.797
0.023370893345155814,0.798
0.023384857038867123,0.799
0.023392923172060973,0.8
0.023394936518950363,0.801
0.023390742110975984,0.802
0.02338019821621073,0.803
0.02336318834808515,0.804
0.023339629859991027,0.805
0.02330947764726779,0.806
0.023272721660790124,0.807
0.023229377601439456,0.808
0.023179472573255713,0.809
0.023123032859300403,0.81
0.023060083075169907,0.811
0.02299065753268945,0.812
0.022914814915306204,0.813
0.02283264806522202,0.814
0.022744286465866796,0.815
0.022649892090476274,0.816
0.022549650334802034,0.817
0.02244375822088566,0.818
0.022332412114769884,0.819
0.02221579775396444,0.82
0.02209408575684337,0.821
0.02196743301691127,0.822
0.021835986564492114,0.823
0.02169988693174891,0.824
0.02155927091062737,0.825
0.02141427468101016,0.826
0.021265037996752563,0.827
0.02111170952656281,0.828
0.020954452667545975,0.829
0.02079345040913762,0.83
0.02062890741436814,0.831
0.020461047634408116,0.832
0.020290106526267,0.833
0.020116320246777224,0.834
0.019939919764089833,0.835
0.019761136167515514,0.836
0.01958021320429048,0.837
0.019397418439258893,0.838
0.01921304849355972,0.839
0.019027427715069132,0.84
0.018840901237252343,0.841
0.01865382430966285,0.842
0.018466550977504752,0.843
0.018279426674062432,0.844
0.01809278751548154,0.845
0.017906963872257053,0.846
0.017722283698968697,0.847
0.01753907360622069,0.848
0.017357657964164525,0.849
0.017178356836816594,0.85
0.017001483435897042,0.851
0.016827341566087457,0.852
0.016656223320670165,0.853
0.016488407192980174,0.854
0.016324156838920238,0.855
0.01616372068002413,0.856
0.01600733211278299,0.857
0.01585520974381786,0.858
0.01570755736567913,0.859
0.015564563980895525,0.86
0.015426404256281981,0.861
0.015293239310446334,0.862
0.01516521747333765,0.863
0.015042474838796845,0.864
0.014925135631012278,0.865
0.014813312449522909,0.866
0.01470710643676869,0.867
0.014606607386034226,0.868
0.01451189378327393,0.869
0.014423032737656334,0.87
0.01434007970664964,0.871
0.014263077977131425,0.872
0.014192058227395223,0.873
0.014127038870812245,0.874
0.01406802755074419,0.875
0.014015023398492865,0.876
0.01396801941232764,0.877
0.013927004492137001,0.878
0.013891964791677102,0.879
0.013862884154904189,0.88
0.013839743563749488,0.881
0.013822519694819587,0.882
0.01381118282430944,0.883
0.013805694431410486,0.884
0.013806005117119113,0.885
0.0138120537140075,0.886
0.013823767879968928,0.887
0.013841065434264062,0.888
0.013863855612627651,0.889
0.0138920399917059,0.89
0.013925513079720918,0.891
0.013964162592090004,0.892
0.014007869481192372,0.893
0.014056507829443348,0.894
0.014109944710799543,0.895
0.014168040083674921,0.896
0.014230646730219166,0.897
0.014297610221601734,0.898
0.014368768853328355,0.899
0.014443953437949466,0.9
0.014522986773270562,0.901
0.014605682566164655,0.902
0.014691843907077852,0.903
0.014781262268359548,0.904
0.014873718311328452,0.905
0.01496898462100559,0.906
0.015066829293790206,0.907
0.015167019289352662,0.908
0.015269322826631678,0.909
0.01537351023871928,0.91
0.015479352831834128,0.911
0.015586619555937823,0.912
0.015695072536586335,0.913
0.015804464791849746,0.914
0.01591454294361582,0.915
0.01602505361123759,0.916
0.016135749982596186,0.917
0.016246396141247614,0.918
0.01635676782826953,0.919
0.016466648897539182,0.92
0.016575824431676656,0.921
0.016684074837193603,0.922
0.016791175997937408,0.923
0.016896905387908348,0.924
0.017001049154276884,0.925
0.017103406263369876,0.926
0.01720378908585623,0.927
0.01730202130916316,0.928
0.017397934265142703,0.929
0.01749136248355824,0.93
0.01758213881757374,0.931
0.017670089344470254,0.932
0.017755029154203964,0.933
0.017836761219801954,0.934
0.01791507918732273,0.935
0.017989772238686762,0.936
0.018060629944395765,0.937
0.018127446563456506,0.938
0.018190025009916986,0.939
0.018248180665645656,0.94
0.018301744896775312,0.941
0.018350567616337184,0.942
0.01839451775341369,0.943
0.018433480315788602,0.944
0.01846734906288638,0.945
0.01849601690154863,0.946
0.018519371676925626,0.947
0.01853730314489706,0.948
0.01854971680047141,0.949
0.01855654639092559,0.95
0.01855776111292265,0.951
0.018553366711634676,0.952
0.0185434008974567,0.953
0.01852792436155104,0.954
0.018507009092211566,0.955
0.018480726635990315,0.956
0.018449140724643383,0.957
0.018412307433743853,0.958
0.018370280905473095,0.959
0.018323120243952613,0.96
0.018270895397412217,0.961
0.01821369192175738,0.962
0.01815161475040883,0.963
0.018084790692392116,0.964
0.0180133689517002,0.965
0.01793751873462279,0.966
0.01785742319498714,0.967
0.01777327034997916,0.968
0.01768524508954938,0.969
0.0175935282937129,0.97
0.0174983040926932,0.971
0.01739976965519375,0.972
0.017298141914215154,0.973
0.01719365945046714,0.974
0.017086579885708632,0.975
0.016977173862788627,0.976
0.016865717046679066,0.977
0.016752481903217098,0.978
0.016637731684360578,0.979
0.016521718659261112,0.98
0.016404685967403944,0.981
0.016286870371083235,0.982
0.016168504075117173,0.983
0.016049815465237764,0.984
0.01593102910704061,0.985
0.015812365217599544,0.986
0.015694038658922674,0.987
0.01557625738071709,0.988
0.015459220230840202,0.989
0.015343114594902894,0.99
0.015228115279896336,0.991
0.015114385505103762,0.992
0.015002078891741058,0.993
0.014891340858051721,0.994
0.014782308921911784,0.995
0.01467511215179624,0.996
0.01456987018764012,0.997
0.01446669223877084,0.998
0.014365676284327049,0.999
0.014266908455940069,1.0
0.014170462483266344,1.001
0.014076399364550832,1.002
0.01398476778931323,1.003
0.013895605595303232,1.004
0.013808941912229788,1.005
0.013724799443346567,1.006
0.013643196505809052,1.007
0.013564148567483213,1.008
0.013487669079193175,1.009
0.013413769475106517,1.01
0.01334245829219946,1.011
0.0132737394642755,1.012
0.013207609988761524,1.013
0.013144057523479235,1.014
0.013083058972506754,1.015
0.01302458079755627,1.016
0.012968580655375143,1.017
0.012915009589870435,1.018
0.012863814510723177,1.019
0.012814940873714306,1.02
0.01276833516771237,1.021
0.012723946459754892,1.022
0.012681726145054015,1.023
0.01264162535072925,1.024
0.012603590868406298,1.025
0.012567562720077183,1.026
0.012533475763614296,1.027
0.012501263771084965,1.028
0.012470862747576658,1.029
0.012442211961695999,1.03
0.012415252636341608,1.031
0.012389924637053346,1.032
0.01236616245326879,1.033
0.012343893604779449,1.034
0.01232304179993941,1.035
0.012303533305563157,1.036
0.012285303278514396,1.037
0.012268299927801683,1.038
0.01225248527529176,1.039
0.012237831870976297,1.04
0.012224316412596517,1.041
0.012211914136039708,1.042
0.012200598653405908,1.043
0.012190347450044136,1.044
0.012181148569567946,1.045
0.012173004534077844,1.046
0.01216593233398338,1.047
0.012159959794432032,1.048
0.012155119225661717,1.049
0.012151440570320953,1.05
0.012148947895042122,1.051
0.012147661099439091,1.052
0.012147600051095898,1.053
0.012148787530384066,1.054
0.01215124985296182,1.055
0.01215501532833515,1.056
0.012160110870260877,1.057
0.01216655804397894,1.058
0.012174371502669975,1.059
0.012183561699454153,1.06
0.012194139994237591,1.061
0.012206122963136248,1.062
0.012219534221452777,1.063
0.012234403258718326,1.064
0.012250761453759536,1.065
0.012268636837990702,1.066
0.01228805093563487,1.067
0.012309019793156318,1.068
0.012331557381462736,1.069
0.012355678369933744,1.07
0.01238139918313639,1.071
0.012408737527777238,1.072
0.012437710706345055,1.073
0.012468332950212133,1.074
0.012500612282127488,1.075
0.012534548265053243,1.076
0.012570131892938506,1.077
0.012607346946812634,1.078
0.012646170721146092,1.079
0.012686573145351028,1.08
0.012728515787006015,1.081
0.01277195292638041,1.082
0.012816834620082025,1.083
0.012863109469220245,1.084
0.012910725093710317,1.085
0.01295962596430868,1.086
0.01300975045388808,1.087
0.013061030477039099,1.088
0.013113395076112162,1.089
0.013166775649723404,1.09
0.013221109920838657,1.091
0.013276343392778665,1.092
0.013332428008763499,1.093
0.013389318079279094,1.094
0.013446964837933737,1.095
0.013505313256677762,1.096
0.013564303949297316,1.097
0.013623878427894056,1.098
0.013683983839585745,1.099
0.013744575122221834,1.1
0.013805614372192666,1.101
0.013867067993437565,1.102
0.013928902562651738,1.103
0.013991080376038216,1.104
0.014053555511452995,1.105
0.014116271267761675,1.106
0.01417915968366063,1.107
0.014242142973193183,1.108
0.014305135935843977,1.109
0.014368048523668582,1.11
0.014430788162791227,1.111
0.014493261589199587,1.112
0.014555376088227875,1.113
0.014617040215441197,1.114
0.014678164174342423,1.115
0.014738659915969125,1.116
0.014798440714140697,1.117
0.014857419625846194,1.118
0.014915506338171826,1.119
0.014972603596249663,1.12
0.015028606759410484,1.121
0.015083408565886365,1.122
0.015136906575709454,1.123
0.01518900928489529,1.124
0.01523963877382196,1.125
0.015288729293873407,1.126
0.015336222068104645,1.127
0.015382057983876752,1.128
0.015426171975093658,1.129
0.015468492732984571,1.13
0.015508947184002654,1.131
0.015547465865443243,1.132
0.015583986314476283,1.133
0.015618453663049257,1.134
0.015650818412450203,1.135
0.015681031591238664,1.136
0.01570903886249414,1.137
0.015734777634229778,1.138
0.015758180148146277,1.139
0.015779180416597205,1.14
0.01579772076959785,1.141
0.01581375565128311,1.142
0.015827251814215914,1.143
0.015838184708532477,1.144
0.01584653180634092,1.145
0.015852265580637723,1.146
0.015855350454972553,1.147
0.01585574521607807,1.148
0.015853407456244917,1.149
0.015848296390762687,1.15
0.015840373482377716,1.151
0.01582960190297959,1.152
0.01581594601046243,1.153
0.01579937177923539,1.154
0.01577984856677857,1.155
0.01575735184954395,1.156
0.01573186581374615,1.157
0.01570338419791628,1.158
0.015671907786017687,1.159
0.01563743873620932,1.16
0.015599976276507645,1.161
0.01555951982231131,1.162
0.015516079707082322,1.163
0.01546968957174919,1.164
0.01542041484033471,1.165
0.015368354978922338,1.166
0.015313639396898603,1.167
0.015256418147851064,1.168
0.015196849971446756,1.169
0.015135092352915156,1.17
0.01507129858107565,1.171
0.01500562192060695,1.172
0.014938221862058423,1.173
0.014869268193949282,1.174
0.014798941995193016,1.175
0.014727434034667685,1.176
0.01465494123510576,1.177
0.014581661940291313,1.178
0.014507790724573925,1.179
0.014433513754299427,1.18
0.014359006168562049,1.181
0.014284432060764601,1.182
0.014209945692556517,1.183
0.014135692219838958,1.184
0.014061807385253648,1.185
0.01398841643986569,1.186
0.013915633007343027,1.187
0.01384355887802976,1.188
0.013772285089929661,1.189
0.013701893621620258,1.19
0.013632458864845973,1.191
0.013564048484059498,1.192
0.01349672348339886,1.193
0.013430537355073142,1.194
0.013365534532962133,1.195
0.013301749221252024,1.196
0.013239205942930215,1.197
0.013177921893287798,1.198
0.013117909872268897,1.199
0.013059180663012728,1.2
0.013001744399648737,1.201
0.012945610842743645,1.202
0.012890788678681478,1.203
0.012837284114463854,1.204
0.012785099107964977,1.205
0.012734229533038235,1.206
0.012684663449211106,1.207
0.01263637953572532,1.208
0.01258934595902502,1.209
0.01254352037458454,1.21
0.012498851535300767,1.211
0.012455282108429161,1.212
0.012412751907572038,1.213
0.012371200862261693,1.214
0.012330571079661892,1.215
0.01229080739410898,1.216
0.012251856047475335,1.217
0.012213661538550937,1.218
0.012176162736575576,1.219
0.01213929086840231,1.22
0.012102971123995544,1.221
0.012067126450941027,1.222
0.01203168103893696,1.223
0.011996562310364469,1.224
0.01196170108108259,1.225
0.011927029739141087,1.226
0.011892478771930563,1.227
0.01185797339439909,1.228
0.011823433193428634,1.229
0.011788775874225619,1.23
0.011753922955564192,1.231
0.011718804711586834,1.232
0.011683363009778246,1.233
0.011647551405024981,1.234
0.011611332104585283,1.235
0.011574670447641074,1.236
0.011537530026105185,1.237
0.011499872726795316,1.238
0.011461664295702414,1.239
0.011422881451666382,1.24
0.011383516642360396,1.241
0.011343579100358776,1.242
0.011303092360684018,1.243
0.011262089022466042,1.244
0.011220604078569523,1.245
0.011178669067847681,1.246
0.011136309693407771,1.247
0.011093547294981526,1.248
0.011050401659190167,1.249
0.011006892916917992,1.25
0.010963042227961689,1.251
0.01091887172423044,1.252
0.01087440408691204,1.253
0.01082966193998791,1.254
0.010784667044361899,1.255
0.010739439148056515,1.256
0.010693994328634358,1.257
0.010648342912752858,1.258
0.0106024877538501,1.259
0.010556424024205554,1.26
0.010510140685413292,1.261
0.010463622524532446,1.262
0.010416851719483885,1.263
0.010369808670442696,1.264
0.010322472193551464,1.265
0.010274819214540248,1.266
0.010226824080438972,1.267
0.010178457556016061,1.268
0.010129685506544578,1.269
0.010080467377870524,1.27
0.010030755159234173,1.271
0.00998049397457951,1.272
0.00992962478785862,1.273
0.009878088587388553,1.274
0.009825831083594996,1.275
0.009772807060647575,1.276
0.009718983439239407,1.277
0.00966434007105987,1.278
0.009608867551390638,1.279
0.009552562220220596,1.28
0.00949542083780178,1.281
0.009437439398119812,1.282
0.009378617825380768,1.283
0.00931896720311887,1.284
0.009258515447393522,1.285
0.009197309867767569,1.286
0.009135416547216706,1.287
0.009072916941148115,1.288
0.00900990243642606,1.289
0.008946467967709818,1.29
0.008882706611732459,1.291
0.008818707482457763,1.292
0.00875455722269752,1.293
0.008690342686498284,1.294
0.008626152574595827,1.295
0.008562077595781783,1.296
0.008498209611541765,1.297
0.008434640373844771,1.298
0.008371460435959606,1.299
0.008308758589392081,1.3
0.008246621844446541,1.301
0.008185135674633283,1.302
0.008124384108544023,1.303
0.008064449312340422,1.304
0.008005410505387592,1.305
0.007947342417309652,1.306
0.007890314028766473,1.307
0.00783438839261685,1.308
0.007779623431989181,1.309
0.00772607280026498,1.31
0.007673786083888484,1.311
0.007622808215898165,1.312
0.00757317852797321,1.313
0.007524930347342005,1.314
0.007478091578722139,1.315
0.007432685546742677,1.316
0.007388731122893002,1.317
0.007346242080312741,1.318
0.00730522666488438,1.319
0.007265688232491991,1.32
0.007227626488986012,1.321
0.007191038277902018,1.322
0.007155917503904313,1.323
0.00712225444640604,1.324
0.007090034924650819,1.325
0.007059239668270023,1.326
0.007029843974544403,1.327
0.007001817485080261,1.328
0.006975123924736885,1.329
0.006949720991918199,1.33
0.006925560764125281,1.331
0.006902590559456358,1.332
0.006880753705901385,1.333
0.00685998965423475,1.334
0.006840233414882954,1.335
0.006821415252194172,1.336
0.006803461690570684,1.337
0.006786297605269015,1.338
0.006769848206194815,1.339
0.006754040001055264,1.34
0.006738800442303137,1.341
0.006724056398864086,1.342
0.006709732053005653,1.343
0.006695747327273041,1.344
0.006682017734502503,1.345
0.006668455394885207,1.346
0.006654970260996755,1.347
0.006641470988116605,1.348
0.0066278654450309836,1.349
0.006614061058186095,1.35
0.006599965224667285,1.351
0.006585486016677048,1.352
0.006570533310423831,1.353
0.006555020311453413,1.354
0.006538865236180679,1.355
0.006521992674238505,1.356
0.006504333965990852,1.357
0.006485825898242228,1.358
0.006466407777596738,1.359
0.006446019012929332,1.36
0.006424600352754445,1.361
0.006402099251856066,1.362
0.006378476524327625,1.363
0.006353711317530974,1.364
0.006327803044452251,1.365
0.006300770012651438,1.366
0.006272645163447152,1.367
0.006243469842483531,1.368
0.006213287516046949,1.369
0.00618214057363439,1.37
0.006150071652563464,1.371
0.006117127099019585,1.372
0.006083359590133093,1.373
0.0060488290453628146,1.374
0.006013602035019957,1.375
0.005977750031333365,1.376
0.005941346950957589,1.377
0.005904466481366677,1.378
0.005867179689701664,1.379
0.005829553394126632,1.38
0.005791649505091993,1.381
0.005753524992285622,1.382
0.005715231909731697,1.383
0.005676817255065499,1.384
0.005638322780266084,1.385
0.005599784888109723,1.386
0.005561234624830394,1.387
0.005522697720040262,1.388
0.005484194726987334,1.389
0.005445741439298972,1.39
0.005407349693136475,1.391
0.005369028489570847,1.392
0.0053307852523792575,1.393
0.005292626967172297,1.394
0.005254560919491057,1.395
0.005216594796737325,1.396
0.0051787360374153145,1.397
0.005140990555401292,1.398
0.005103361498901724,1.399
0.005065849072515174,1.4
0.0050284517606002145,1.401
0.004991168205183234,1.402
0.004953998939533108,1.403
0.004916947770743488,1.404
0.004880022849253055,1.405
0.00484323737832291,1.406
0.004806609776534518,1.407
0.004770163046892625,1.408
0.004733923218610679,1.409
0.004697917057314073,1.41
0.004662169881212537,1.411
0.0046267047152495034,1.412
0.004591543085984854,1.413
0.004556706373783756,1.414
0.00452221665053138,1.415
0.00448809679112404,1.416
0.00445437004737124,1.417
0.004421059307192068,1.418
0.004388186253330292,1.419
0.004355770599717474,1.42
0.004323829529323137,1.421
0.0042923773964739145,1.422
0.004261425700744603,1.423
0.004230983293210356,1.424
0.0042010567394291974,1.425
0.004171650738546805,1.426
0.004142768485459176,1.427
0.004114411861997681,1.428
0.004086581355139954,1.429
0.004059275632952794,1.43
0.004032490884134158,1.431
0.004006220369430475,1.432
0.00398045460948004,1.433
0.003955182011015645,1.434
0.003930389297358935,1.435
0.003906061349919415,1.436
0.0038821807442788753,1.437
0.003858727820855775,1.438
0.003835681703961381,1.439
0.003813021625487625,1.44
0.0037907276157636005,1.441
0.003768780095193041,1.442
0.0037471586869225783,1.443
0.003725841581811629,1.444
0.0037048065791975802,1.445
0.0036840332462279805,1.446
0.0036635048504438856,1.447
0.003643209375748935,1.448
0.0036231395802400097,1.449
0.0036032923107229254,1.45
0.0035836673888586796,1.451
0.003564266355871617,1.452
0.003545091242912623,1.453
0.0035261433864068937,1.454
0.003507422379214955,1.455
0.0034889256530231463,1.456
0.0034706492065388833,1.457
0.003452589280172746,1.458
0.003434744265761208,1.459
0.0034171162439702147,1.46
0.003399711779821224,1.461
0.003382541819260822,1.462
0.003365620755408104,1.463
0.0033489648939730365,1.464
0.003332590663238703,1.465
0.0033165131306479062,1.466
0.003300745455184262,1.467
0.0032852993013993102,1.468
0.003270185498067871,1.469
0.0032554142774848553,1.47
0.003240994917526366,1.471
0.00322693502874263,1.472
0.0032132401460874503,1.473
0.003199914111349516,1.474
0.0031869598903953474,1.475
0.0031743801123021004,1.476
0.003162176971913839,1.477
0.0031503515950779427,1.478
0.0031389034503606144,1.479
0.0031278305370371655,1.48
0.0031171304416412055,1.481
0.003106801675781172,1.482
0.0030968447459564625,1.483
0.003087262744127296,1.484
0.0030780614045090634,1.485
0.0030692486208163104,1.486
0.0030608334676449755,1.487
0.003052824897331887,1.488
0.003045230608405684,1.489
0.003038056757433589,1.49
0.0030313086312288547,1.491
0.003024991653686149,1.492
0.0030191121234735326,1.493
0.0030136775294017253,1.494
0.0030086965151014397,1.495
0.0030041786063370454,1.496
0.0030001338072498333,1.497
0.0029965721246601176,1.498
0.002993503025380268,1.499
0.002990934804419809,1.5
0.002988873934471094,1.501
0.0029873246834965536,1.502
0.002986289261969639,1.503
0.002985768375317299,1.504
0.0029857618279781756,1.505
0.002986268941163393,1.506
0.0029872886903436788,1.507
0.002988819540686319,1.508
0.002990859031957505,1.509
0.0029934032275134312,1.51
0.002996446157372344,1.511
0.0029999793810487206,1.512
0.0030039917923442533,1.513
0.003008469689452029,1.514
0.003013396972666993,1.515
0.0030187552916714835,1.516
0.0030245240297699766,1.517
0.003030680185562431,1.518
0.003037198486614847,1.519
0.003044052015149176,1.52
0.0030512131704277085,1.521
0.0030586545367809552,1.522
0.0030663493195268953,1.523
0.0030742711601258925,1.524
0.003082393349982595,1.525
0.003090687911943341,1.526
0.003099125371923315,1.527
0.0031076755284190475,1.528
0.0031163085912676177,1.529
0.0031249959325695045,1.53
0.003133710185011563,1.531
0.0031424247563863563,1.532
0.0031511129864564683,1.533
0.0031597472808463536,1.534
0.0031682985806736367,1.535
0.0031767364507981986,1.536
0.0031850299032274813,1.537
0.0031931488414659167,1.538
0.0032010657607887986,1.539
0.0032087571425268298,1.54
0.0032162039265987573,1.541
0.003223390588428048,1.542
0.0032303031831445585,1.543
0.003236928256869069,1.544
0.0032432544240221894,1.545
0.0032492759571768354,1.546
0.003254996243637556,1.547
0.0032604296484435497,1.548
0.0032656013048743726,1.549
0.0032705449458842696,1.55
0.0032752993731915603,1.551
0.0032799048287322826,1.552
0.0032844010216234072,1.553
0.0032888273501305147,1.554
0.003293223823949761,1.555
0.003297631164985107,1.556
0.003302089926746526,1.557
0.003306639242949088,1.558
0.0033113159724127766,1.559
0.0033161545273455843,1.56
0.0033211869145952267,1.561
0.0033264426487421227,1.562
0.0033319488654072167,1.563
0.00333773092023647,1.564
0.0033438132100317244,1.565
0.0033502198121805192,1.566
0.003356974775217092,1.567
0.0033641020736192716,1.568
0.003371625317882991,1.569
0.003379567347377738,1.57
0.0033879498254508946,1.571
0.0033967929176728423,1.572
0.0034061150892106913,1.573
0.0034159330260421315,1.574
0.003426261667155327,1.575
0.003437114313273993,1.576
0.003448502742733907,1.577
0.0034604372351182884,1.578
0.0034729264059320084,1.579
0.0034859768110619884,1.58
0.003499592475522239,1.581
0.0035137747555254,1.582
0.0035285228014323945,1.583
0.0035438344147915514,1.584
0.0035597069503281965,1.585
0.0035761380932089345,1.586
0.0035931264201617963,1.587
0.0036106716335829628,1.588
0.0036287743621620967,1.589
0.003647435460783654,1.59
0.00366665491777279,1.591
0.0036864309120969267,1.592
0.003706759760530638,1.593
0.0037276368164184215,1.594
0.0037490575493402518,1.595
0.0037710180758426196,1.596
0.003793514938633512,1.597
0.003816544272569249,1.598
0.0038401006569523926,1.599
0.003864176063398268,1.6
0.0038887592725027386,1.601
0.003913835775641778,1.602
0.003939387815125036,1.603
0.0039653943221704055,1.604
0.003991830838660424,1.605
0.004018669649035845,1.606
0.004045880319616164,1.607
0.004073430707034366,1.608
0.004101288285474479,1.609
0.0041294214648420835,1.61
0.00415780053548709,1.611
0.004186397993869807,1.612
0.004215188193323826,1.613
0.004244146412647464,1.614
0.004273247483540904,1.615
0.004302464340741811,1.616
0.004331767359397697,1.617
0.0043611251625976745,1.618
0.0043905065497430165,1.619
0.004419882745666311,1.62
0.004449229500950313,1.621
0.004478528763107319,1.622
0.004507769616741692,1.623
0.004536948231851158,1.624
0.0045660666975015,1.625
0.004595130819174932,1.626
0.004624147346518413,1.627
0.004653121769865604,1.628
0.004682057881412079,1.629
0.004710958995002357,1.63
0.004739829558714342,1.631
0.004768676263830429,1.632
0.004797508624639867,1.633
0.004826339297358226,1.634
0.004855184294468759,1.635
0.004884063039379474,1.636
0.004912998038083481,1.637
0.004942013934201061,1.638
0.0049711358724047775,1.639
0.005000387527951743,1.64
0.005029789743138114,1.641
0.005059360461080301,1.642
0.005089115435264417,1.643
0.005119068619577226,1.644
0.005149231714800992,1.645
0.005179613203209215,1.646
0.00521021776921691,1.647
0.005241046558159029,1.648
0.005272097618355095,1.649
0.005303365772233951,1.65
0.0053348421588495535,1.651
0.005366514300425781,1.652
0.005398366994121627,1.653
0.0054303834542820915,1.654
0.0054625460759374035,1.655
0.005494836682867032,1.656
0.005527236433561834,1.657
0.005559725639976319,1.658
0.005592283702260094,1.659
0.005624889192188505,1.66
0.005657519910254977,1.661
0.00569015261006105,1.662
0.005722762112506194,1.663
0.005755320045223728,1.664
0.005787794307040669,1.665
0.005820150060899948,1.666
0.00585235154536415,1.667
0.005884363444277042,1.668
0.005916151213939933,1.669
0.005947680326088724,1.67
0.0059789146786436145,1.671
0.0060098147815043045,1.672
0.006040336570894497,1.673
0.006070431171956521,1.674
0.006100044963446862,1.675
0.006129119379689867,1.676
0.006157590879382999,1.677
0.006185391741878749,1.678
0.006212451607821554,1.679
0.006238699215371673,1.68
0.006264063875713637,1.681
0.006288476322376047,1.682
0.006311868590581802,1.683
0.006334172678126915,1.684
0.0063553184988146055,1.685
0.006375233091089159,1.686
0.006393842734878259,1.687
0.006411077150971872,1.688
0.006426873802628324,1.689
0.0064411811051434615,1.69
0.00645395999975609,1.691
0.006465183611305037,1.692
0.006474835006843189,1.693
0.006482903355228728,1.694
0.006489379431934238,1.695
0.006494252526246996,1.696
0.006497510497677931,1.697
0.006499142272205163,1.698
0.006499140573870498,1.699
0.00649750363792095,1.7
0.006494235955402351,1.701
0.006489348556812183,1.702
0.006482859314361501,1.703
0.006474793487065278,1.704
0.006465184373885746,1.705
0.00645407364783279,1.706
0.006441510841055406,1.707
0.006427551563354303,1.708
0.00641225435114417,1.709
0.006395677096292822,1.71
0.00637787540720435,1.711
0.006358904209270753,1.712
0.006338820861757555,1.713
0.0063176874221129485,1.714
0.006295571327850889,1.715
0.006272544785775983,1.716
0.0062486833855175256,1.717
0.006224064489830339,1.718
0.006198765821785731,1.719
0.006172864445720959,1.72
0.0061464361267697405,1.721
0.006119554926104576,1.722
0.0060922928572556476,1.723
0.006064719463748157,1.724
0.0060369012459071635,1.725
0.006008900941989479,1.726
0.005980776756867986,1.727
0.005952581724298709,1.728
0.00592436336320209,1.729
0.005896163637423127,1.73
0.005868019227273892,1.731
0.00583996218025305,1.732
0.005812020806388711,1.733
0.0057842204511548215,1.734
0.005756583776752306,1.735
0.005729130384199497,1.736
0.0057018762120578746,1.737
0.005674833809625298,1.738
0.005648014127066291,1.739
0.005621429195722562,1.74
0.005595094624416352,1.741
0.005569031247505429,1.742
0.005543265633426423,1.743
0.005517829412992761,1.744
0.005492757620905911,1.745
0.005468086401503764,1.746
0.005443850578967412,1.747
0.005420081821361901,1.748
0.005396808025797961,1.749
0.005374053762490877,1.75
0.005351840987283162,1.751
0.005330189521218879,1.752
0.005309117339816573,1.753
0.005288640876522535,1.754
0.005268775481453267,1.755
0.005249536069364099,1.756
0.005230937871923965,1.757
0.005212997114803544,1.758
0.0051957313959357125,1.759
0.005179159560077741,1.76
0.005163300945009919,1.761
0.005148173999500652,1.762
0.005133794671736568,1.763
0.005120175555103195,1.764
0.005107326391096455,1.765
0.005095255230663016,1.766
0.005083969190219732,1.767
0.005073474413871303,1.768
0.005063775351388861,1.769
0.005054873667924679,1.77
0.005046767282106728,1.771
0.005039449968071792,1.772
0.00503291148277599,1.773
0.005027137790001529,1.774
0.005022111082630596,1.775
0.005017809583378581,1.776
0.005014207298239763,1.777
0.0050112741240544755,1.778
0.005008976639075541,1.779
0.005007279448068836,1.78
0.005006146691384732,1.781
0.005005543391419318,1.782
0.005005436391325193,1.783
0.00500579468546884,1.784
0.005006588995426562,1.785
0.0050077905212654785,1.786
0.005009369187187978,1.787
0.0050112924692801986,1.788
0.005013525837214862,1.789
0.005016034472391056,1.79
0.005018785023165764,1.791
0.00502174656890181,1.792
0.005024890591390593,1.793
0.005028190037839426,1.794
0.005031617714064676,1.795
0.005035144455758587,1.796
0.005038737756362741,1.797
0.005042361257341792,1.798
0.0050459747188719714,1.799
0.005049534006658882,1.8
0.005052991463156605,1.801
0.005056297174251153,1.802
0.00505940079958185,1.803
0.005062253208475388,1.804
0.005064807428432357,1.805
0.00506701870623729,1.806
0.005068843663586424,1.807
0.0050702386751825465,1.808
0.0050711580416127645,1.809
0.005071553246588156,1.81
0.005071374163000768,1.811
0.005070571533439534,1.812
0.005069099554666653,1.813
0.005066918004635522,1.814
0.005063993681339483,1.815
0.005060300944255145,1.816
0.005055821199585175,1.817
0.005050541264134317,1.818
0.005044450685003781,1.819
0.00503753873827257,1.82
0.0050297928866671815,1.821
0.005021199852604245,1.822
0.0050117481464788715,1.823
0.0050014301002319714,1.824
0.004990242461200945,1.825
0.004978185342830449,1.826
0.004965259947016732,1.827
0.004951466648284134,1.828
0.004936805261679165,1.829
0.004921277363508656,1.83
0.004904888641111258,1.831
0.004887649512767459,1.832
0.004869573554372614,1.833
0.0048506748944803346,1.834
0.004830967277145697,1.835
0.004810466288391296,1.836
0.004789192992057771,1.837
0.0047671764231393375,1.838
0.004744453978509793,1.839
0.004721069877569988,1.84
0.004697072289048053,1.841
0.004672510061536727,1.842
0.004647430286179759,1.843
0.004621877544559432,1.844
0.004595894465884656,1.845
0.0045695225121978765,1.846
0.004542802424917537,1.847
0.0045157744194637426,1.848
0.00448847833691375,1.849
0.004460953847266727,1.85
0.004433240673860426,1.851
0.004405378710228277,1.852
0.004377407861777812,1.853
0.004349367482422666,1.854
0.004321295400381572,1.855
0.004293226858074344,1.856
0.004265194048431141,1.857
0.004237226569617373,1.858
0.004209352274164996,1.859
0.004181597829738593,1.86
0.004153988732345498,1.861
0.004126548761789619,1.862
0.004099299150914478,1.863
0.0040722581804138415,1.864
0.004045441660450268,1.865
0.004018863860318762,1.866
0.0039925381908741,1.867
0.003966477374778877,1.868
0.003940693118185125,1.869
0.003915195383427477,1.87
0.0038899915673572243,1.871
0.00386508612978665,1.872
0.0038404809299603594,1.873
0.0038161758726412065,1.874
0.003792169348396909,1.875
0.0037684582992579736,1.876
0.0037450379408998993,1.877
0.0037219012302785112,1.878
0.003699038283814041,1.879
0.003676436050552343,1.88
0.003654078314606548,1.881
0.00363194577176984,1.882
0.0036100161382996874,1.883
0.0035882646439740432,1.884
0.003566665091719743,1.885
0.0035451912277210114,1.886
0.0035238180096701897,1.887
0.0035025224241847378,1.888
0.0034812836016779782,1.889
0.0034600821025096307,1.89
0.0034388985750676377,1.891
0.0034177126525159482,1.892
0.003396503196954319,1.893
0.0033752500313689138,1.894
0.003353936204004364,1.895
0.0033325498372587118,1.896
0.003311085134287765,1.897
0.0032895424081373988,1.898
0.003267927157456382,1.899
0.00324624836047501,1.9
0.003224516322227634,1.901
0.0032027407711605585,1.902
0.0031809301489724574,1.903
0.0031590923256410034,1.904
0.0031372358845180295,1.905
0.0031153710919013798,1.906
0.0030935103018424294,1.907
0.0030716678508213944,1.908
0.003049859545032846,1.909
0.003028101873027176,1.91
0.003006411085915354,1.911
0.0029848022820238647,1.912
0.0029632886250778715,1.913
0.0029418808045441522,1.914
0.002920586781983087,1.915
0.002899411799514408,1.916
0.0028783586162202546,1.917
0.0028574279323500323,1.918
0.0028366189225566495,1.919
0.002815929778419989,1.92
0.002795358165562185,1.921
0.002774901504559181,1.922
0.0027545569883351963,1.923
0.0027343212642339395,1.924
0.002714189854214124,1.925
0.0026941567475807253,1.926
0.002674214722095023,1.927
0.0026543564386182126,1.928
0.0026345758219350644,1.929
0.0026148692495222953,1.93
0.002595236292344951,1.931
0.002575679874832251,1.932
0.0025562058127778804,1.933
0.002536821797908971,1.934
0.00251753603117081,1.935
0.002498355966475582,1.936
0.002479287809289039,1.937
0.002460336941742183,1.938
0.0024415086981760597,1.939
0.0024228088917092145,1.94
0.0024042439486466668,1.941
0.0023858207345784505,1.942
0.00236754618186232,1.943
0.002349426823782749,1.944
0.002331468328750127,1.945
0.00231367512388056,1.946
0.002296050191112662,1.947
0.0022785950864063717,1.948
0.002261310163935402,1.949
0.002244194904216422,1.95
0.002227248187522529,1.951
0.002210468351153039,1.952
0.002193852933584787,1.953
0.002177398247002121,1.954
0.0021610992580776574,1.955
0.0021449501313076345,1.956
0.0021289452153452244,1.957
0.00211308003539644,1.958
0.0020973520413782856,1.959
0.002081760969063909,1.96
0.002066308694043504,1.961
0.0020509985237083216,1.962
0.002035834118721782,1.963
0.0020208186958278317,1.964
0.0020059551762801335,1.965
0.0019912471528847606,1.966
0.001976699940219173,1.967
0.0019623211746172143,1.968
0.001948120843199235,1.969
0.0019341108217174286,1.97
0.001920304085428624,1.971
0.00190671379136551,1.972
0.0018933524268279936,1.973
0.0018802312107436049,1.974
0.0018673598752555038,1.975
0.0018547467894243148,1.976
0.0018423992698766115,1.977
0.0018303239817217432,1.978
0.0018185274078843542,1.979
0.0018070163387474462,1.98
0.0017957982859399173,1.981
0.0017848817164816688,1.982
0.0017742760336319982,1.983
0.0017639912818446584,1.984
0.001754037605872009,1.985
0.001744424603420646,1.986
0.0017351608914843448,1.987
0.001726254160118174,1.988
0.0017177116065145604,1.989
0.0017095404086189423,1.99
0.00170174802504038,1.991
0.001694342278496611,1.992
0.001687331236900027,1.993
0.0016807229183946558,1.994
0.0016745248558172562,1.995
0.0016687436539501654,1.996
0.0016633848349299886,1.997
0.0016584531366037358,1.998
0.0016539530341388388,1.999
0.001649889137718158,2.0
0.0016462662985576445,2.001
0.0016430893944588746,2.002
0.0016403628740965924,2.003
0.0016380903174840452,2.004
0.0016362743257383615,2.005
0.0016349167620157638,2.006
0.0016340190411339268,2.007
0.0016335822171857728,2.008
0.0016336068498214844,2.009
0.0016340927379060244,2.01
0.0016350386137948937,2.011
0.001636441881833199,2.012
0.0016382984665906104,2.013
0.001640602770451375,2.014
0.001643347695391478,2.015
0.0016465247244747583,2.016
0.0016501240585574876,2.017
0.0016541347318168053,2.018
0.001658544612388691,2.019
0.0016633402952225152,2.02
0.0016685070598415773,2.021
0.0016740290580797633,2.022
0.001679889661429201,2.023
0.0016860717616675657,2.024
0.001692557886066579,2.025
0.0016993300794611534,2.026
0.0017063695952487246,2.027
0.0017136565881280155,2.028
0.0017211700722166248,2.029
0.0017288882066704985,2.03
0.001736788711182335,2.031
0.0017448492153906683,2.032
0.0017530474876157986,2.033
0.0017613615580724755,2.034
0.0017697697624666805,2.035
0.0017782507194435543,2.036
0.0017867832202898915,2.037
0.001795345972929575,2.038
0.0018039171778910512,2.039
0.0018124741245953814,2.04
0.0018209931888447089,2.041
0.0018294503765171484,2.042
0.0018378221220985984,2.043
0.0018460859993156325,2.044
0.0018542212241928365,2.045
0.001862208953870259,2.046
0.0018700324043556902,2.047
0.001877676807129303,2.048
0.0018851292092648504,2.049
0.0018923781059365743,2.05
0.0018994128906028682,2.051
0.0019062231258152396,2.052
0.00191279776724207,2.053
0.001919124709557275,2.054
0.0019251909462392844,2.055
0.001930983170862041,2.056
0.0019364884368140997,2.057
0.0019416946920171113,2.058
0.0019465911855422744,2.059
0.0019511687782296705,2.06
0.001955420177646124,2.061
0.0019593400965914366,2.062
0.001962925316922742,2.063
0.001966174632016308,2.064
0.0019690886386398605,2.065
0.0019716693484615167,2.066
0.001973919593923994,2.067
0.0019758422415358497,2.068
0.001977439432729498,2.069
0.001978712347967196,2.07
0.0019796617674844212,2.071
0.0019802890931825195,2.072
0.0019805973349308,2.073
0.001980591814293309,2.074
0.001980280481415982,2.075
0.001979673793665243,2.076
0.0019787841894493255,2.077
0.0019776252750676156,2.078
0.001976210885428698,2.079
0.0019745542038069356,2.08
0.0019726671769338504,2.081
0.001970560403047913,2.082
0.0019682434105136267,2.083
0.0019657250709611477,2.084
0.0019630139888357156,2.085
0.001960118853015074,2.086
0.0019570487632101247,2.087
0.0019538135093189937,2.088
0.0019504237423468426,2.089
0.001946890954498451,2.09
0.001943227197865666,2.091
0.0019394445120433225,2.092
0.001935554226007975,2.093
0.0019315666301838066,2.094
0.0019274913808098213,2.095
0.0019233383596460032,2.096
0.0019191184654586886,2.097
0.0019148440692725423,2.098
0.001910529064169453,2.099
0.0019061885148879893,2.1
0.001901837972969122,2.101
0.0018974926448716565,2.102
0.0018931668092990368,2.103
0.0018888738226717544,2.104
0.0018846265780741753,2.105
0.0018804379747078706,2.106
0.001876321113369096,2.107
0.0018722891737648385,2.108
0.0018683550248308515,2.109
0.0018645307037202018,2.11
0.0018608270402169552,2.111
0.001857253656259964,2.112
0.001853819238562362,2.113
0.0018505317765868429,2.114
0.001847398586495948,2.115
0.001844426130315759,2.116
0.001841619718024874,2.117
0.0018389832148480076,2.118
0.001836518889135842,2.119
0.0018342274401395137,2.12
0.0018321081045174353,2.121
0.0018301587414422155,2.122
0.001828375887443942,2.123
0.001826754812322973,2.124
0.0018252896042283576,2.125
0.0018239732947190944,2.126
0.0018227980045539781,2.127
0.0018217550629589184,2.128
0.0018208350473248062,2.129
0.001820027717590738,2.13
0.0018193218689990514,2.131
0.0018187051684037735,2.132
0.0018181640469029441,2.133
0.0018176836947055028,2.134
0.001817248163667252,2.135
0.001816840548398038,2.136
0.001816443192067793,2.137
0.0018160378442268613,2.138
0.001815605690358827,2.139
0.0018151271906475322,2.14
0.0018145817731457078,2.141
0.0018139476288814738,2.142
0.0018132018756878779,2.143
0.001812321077046933,2.144
0.001811281909265227,2.145
0.0018100618430167115,2.146
0.00180863979525272,2.147
0.0018069967009639882,2.148
0.001805115923306223,2.149
0.0018029834107924833,2.15
0.0018005875264313336,2.151
0.0017979185063983414,2.152
0.0017949675477407475,2.153
0.001791725768660431,2.154
0.001788183722162158,2.155
0.001784331953572644,2.156
0.0017801622283782916,2.157
0.0017756687470135788,2.158
0.0017708490187654416,2.159
0.001765704299650415,2.16
0.001760239541245069,2.161
0.0017544628380394927,2.162
0.001748384416842712,2.163
0.0017420153673918567,2.164
0.0017353666394543795,2.165
0.00172844890654443,2.166
0.0017212732884042746,2.167
0.0017138522898103277,2.168
0.0017062003887162445,2.169
0.001698334092260498,2.17
0.0016902714823484564,2.171
0.001682031364635997,2.172
0.001673632307532687,2.173
0.0016650920590487465,2.174
0.0016564275907390914,2.175
0.0016476554226619207,2.176
0.0016387917409942988,2.177
0.0016298521770070446,2.178
0.0016208514706259022,2.179
0.0016118033773184516,2.18
0.001602720918959877,2.181
0.001593616678349081,2.182
0.001584502814182914,2.183
0.0015753907932478943,2.184
0.0015662911668171586,2.185
0.001557213715013097,2.186
0.0015481678867392584,2.187
0.001539163194630519,2.188
0.0015302093450643844,2.189
0.001521316088550668,2.19
0.0015124928841142766,2.191
0.0015037485098480905,2.192
0.0014950907355628063,2.193
0.0014865261196834836,2.194
0.0014780599378515994,2.195
0.0014696962198551043,2.196
0.0014614378607023066,2.197
0.001453286764456049,2.198
0.0014452439703593885,2.199
0.0014373097066284898,2.2
0.0014294833250687313,2.201
0.0014217631509986087,2.202
0.00141414644129833,2.203
0.00140662962558495,2.204
0.0013992087592016944,2.205
0.0013918799939300487,2.206
0.0013846399491804834,2.207
0.0013774859411806236,2.208
0.0013704160679590374,2.209
0.0013634291828560194,2.21
0.0013565248011105462,2.211
0.001349702964392324,2.212
0.0013429640484438174,2.213
0.0013363084646216762,2.214
0.0013297362670592456,2.215
0.0013232468920635003,2.216
0.0013168393378701977,2.217
0.001310512787250502,2.218
0.0013042673539630165,2.219
0.0012981046505116693,2.22
0.001292028033977852,2.221
0.0012860424915977487,2.222
0.001280154203198633,2.223
0.001274369877598445,2.224
0.0012686960481457096,2.225
0.001263138633350227,2.226
0.001257702963743884,2.227
0.0012523941225086766,2.228
0.0012472172984027263,2.229
0.0012421780026290953,2.23
0.0012372821384830368,2.231
0.0012325359432698022,2.232
0.0012279458246942192,2.233
0.0012235181151278153,2.234
0.0012192587694171404,2.235
0.0012151730578398752,2.236
0.0012112653652497178,2.237
0.0012075392027733624,2.238
0.0012039974171730917,2.239
0.0012006424974662538,2.24
0.0011974769087118,2.241
0.0011945034122272063,2.242
0.0011917253033709597,2.243
0.0011891464701279317,2.244
0.001186771194978995,2.245
0.0011846037321076878,2.246
0.0011826479027817686,2.247
0.0011809070250418728,2.248
0.0011793842009562533,2.249
0.0011780826704763047,2.25
0.0011770059997738126,2.251
0.0011761580844626568,2.252
0.001175543024023449,2.253
0.001175164899251657,2.254
0.001175027464759669,2.255
0.0011751338457257367,2.256
0.0011754864461756306,2.257
0.001176087163782636,2.258
0.001176937727915427,2.259
0.0011780399221549601,2.26
0.0011793955981670321,2.261
0.0011810064851091222,2.262
0.001182873868842064,2.263
0.0011849983246515904,2.264
0.0011873796789422426,2.265
0.0011900171533228204,2.266
0.0011929094728079827,2.267
0.0011960547944122777,2.268
0.0011994505086499673,2.269
0.0012030931195067059,2.27
0.0012069783330622597,2.271
0.0012111012326396226,2.272
0.0012154563352641749,2.273
0.001220037485776256,2.274
0.001224837772737622,2.275
0.0012298497177073479,2.276
0.0012350657686618738,2.277
0.0012404788865916355,2.278
0.0012460830018642592,2.279
0.0012518732114293867,2.28
0.0012578456588537804,2.281
0.00126399709573365,2.282
0.0012703242651034526,2.283
0.0012768234947889156,2.284
0.0012834908586517157,2.285
0.0012903228142600867,2.286
0.0012973169362854007,2.287
0.0013044724798816551,2.288
0.001311790662569511,2.289
0.0013192746032551252,2.29
0.0013269289041859362,2.291
0.0013347589317475067,2.292
0.0013427700055361294,2.293
0.0013509669118984822,2.294
0.0013593540103912908,2.295
0.0013679356952571063,2.296
0.0013767167836682811,2.297
0.001385702633932336,2.298
0.0013948990046700695,2.299
0.001404311743236167,2.3
0.0014139464144903595,2.301
0.0014238079617142079,2.302
0.0014339004502466825,2.303
0.0014442269076081677,2.304
0.0014547892516043523,2.305
0.0014655882844597228,2.306
0.0014766237196887331,2.307
0.0014878941990090892,2.308
0.001499397252518033,2.309
0.0015111292067642413,2.31
0.0015230851679870526,2.311
0.001535259214760568,2.312
0.0015476447561967137,2.313
0.0015602348987357384,2.314
0.0015730227076446162,2.315
0.0015860013141567352,2.316
0.0015991638605927039,2.317
0.0016125033036810624,2.318
0.001626012104798142,2.319
0.001639681864201333,2.32
0.001653503048599476,2.321
0.0016674649867365258,2.322
0.0016815561284534476,2.323
0.001695764384648993,2.324
0.0017100774046146002,2.325
0.0017244827691946716,2.326
0.0017389681250958283,2.327
0.0017535212732550185,2.328
0.0017681301942429105,2.329
0.0017827829669636948,2.33
0.0017974675297279395,2.331
0.0018121712671899642,2.332
0.0018268805617621627,2.333
0.001841580634621489,2.334
0.001856255842421637,2.335
0.0018708901897097402,2.336
0.001885467726341106,2.337
0.00189997269046353,2.338
0.0019143893760022236,2.339
0.0019287017484602392,2.34
0.001942892921320343,2.341
0.001956944747494273,2.342
0.001970837774930139,2.343
0.0019845515369975074,2.344
0.0019980649167376536,2.345
0.002011356373817824,2.346
0.002024403945560049,2.347
0.002037184980692424,2.348
0.002049675743369883,2.349
0.002061851362288171,2.35
0.002073686502177024,2.351
0.0020851565295557754,2.352
0.0020962386499206445,2.353
0.002106912654098863,2.354
0.0021171610757799147,2.355
0.002126968677129902,2.356
0.0021363213450762636,2.357
0.0021452048656143996,2.358
0.0021536044610757066,2.359
0.002161505538465143,2.36
0.0021688950702742752,2.361
0.002175762811019137,2.362
0.0021821020324212133,2.363
0.00218790972752371,2.364
0.002193186287182614,2.365
0.002197934695609103,2.366
0.002202159326563902,2.367
0.002205864611603144,2.368
0.0022090542145695117,2.369
0.0022117312002914824,2.37
0.0022138988822979974,2.371
0.0022155616427478957,2.372
0.0022167253457979303,2.373
0.002217397299329906,2.374
0.002217585820911068,2.375
0.0022172994959751523,2.376
0.0022165463120739385,2.377
0.0022153330517837135,2.378
0.0022136652953756663,2.379
0.0022115479352863253,2.38
0.0022089857713370456,2.381
0.0022059838741183492,2.382
0.0022025476218996524,2.383
0.0021986823948620293,2.384
0.0021943930027684025,2.385
0.00218968319406592,2.386
0.0021845557574658417,2.387
0.0021790133383859747,2.388
0.0021730595422788236,2.389
0.0021666998384146314,2.39
0.0021599420170353586,2.391
0.002152796097072628,2.392
0.002145273657221882,2.393
0.002137386757296488,2.394
0.0021291470309029387,2.395
0.00212056566982809,2.396
0.002111654353586232,2.397
0.0021024264398775486,2.398
0.00209289778599923,2.399
0.0020830869861601137,2.4
0.0020730150252786517,2.401
0.002062704441501917,2.402
0.0020521781919599033,2.403
0.002041458609504283,2.404
0.0020305669592379613,2.405
0.002019523712318329,2.406
0.002008349069629339,2.407
0.0019970632653960726,2.408
0.001985686545453031,2.409
0.001974238895271728,2.41
0.0019627396279683334,2.411
0.0019512069564974809,2.412
0.0019396576579506686,2.413
0.0019281068966877381,2.414
0.0019165682228759918,2.415
0.0019050537188522525,2.416
0.0018935742398889267,2.417
0.0018821396960474724,2.418
0.001870759340661134,2.419
0.0018594420463683816,2.42
0.0018481965438419486,2.421
0.0018370315772815518,2.422
0.0018259559166188021,2.423
0.0018149781717440908,2.424
0.0018041064093010611,2.425
0.0017933477738630538,2.426
0.0017827085224302404,2.427
0.001772194660831406,2.428
0.001761812873224054,2.429
0.0017515712930948602,2.43
0.0017414798616043343,2.431
0.001731550201584634,2.432
0.0017217950715072029,2.433
0.0017122275799404969,2.434
0.0017028603891420632,2.435
0.0016937050989140343,2.436
0.0016847719040884192,2.437
0.0016760695114057453,2.438
0.001667605225735545,2.439
0.0016593850859947874,2.44
0.0016514139420151256,2.441
0.001643695417069245,2.442
0.0016362318155782318,2.443
0.0016290241304598517,2.444
0.001622072215304753,2.445
0.001615375003533563,2.446
0.001608930631689031,2.447
0.0016027364272825427,2.448
0.001596788795535025,2.449
0.0015910830739351684,2.45
0.0015856134452987768,2.451
0.0015803729994242769,2.452
0.0015753539991925946,2.453
0.0015705483425512085,2.454
0.0015659481405402489,2.455
0.001561546284234556,2.456
0.0015573368693270434,2.457
0.0015533153827073055,2.458
0.0015494786108285108,2.459
0.0015458242817079537,2.46
0.0015423504861190266,2.461
0.0015390550121026937,2.462
0.0015359349107636428,2.463
0.0015329865858060116,2.464
0.0015302063142144503,2.465
0.0015275908381489885,2.466
0.0015251377751140625,2.467
0.0015228457712271948,2.468
0.001520714398924102,2.469
0.0015187438410008503,2.47
0.0015169344412715516,2.471
0.001515286225577916,2.472
0.0015137984881761425,2.473
0.0015124694960002825,2.474
0.001511296309298945,2.475
0.0015102746796774225,2.476
0.0015093989876837591,2.477
0.0015086622214972871,2.478
