VaMe,time
0.0024791172539279306,0.001
0.0026118959973167512,0.002
0.0027448365249113935,0.003
0.0028778159488969633,0.004
0.0030107109760266243,0.005
0.003143398906141745,0.006
0.003275758629853607,0.007
0.003407671434930631,0.008
0.0035390213657286135,0.009
0.003669694920746593,0.01
0.0037995800102379566,0.011
0.003928564386709867,0.012
0.004056534310472594,0.013
0.0041833744588499824,0.014
0.0043089693143477294,0.015
0.004433205290640359,0.016
0.004555972798232301,0.017
0.0046771678310728385,0.018
0.004796692782268958,0.019
0.004914456226824053,0.02
0.005030371527777624,0.021
0.005144354323438406,0.022
0.005256319708967578,0.023
0.005366181053688374,0.024
0.005473851690748818,0.025
0.005579248325827601,0.026
0.005682294266391523,0.027
0.005782921550078752,0.028
0.005881071654452007,0.029
0.005976694644112365,0.03
0.006069746818156174,0.031
0.006160187200032618,0.032
0.006247974051263102,0.033
0.006333063564762449,0.034
0.006415411793119434,0.035
0.006494978332029828,0.036
0.0065717297415090825,0.037
0.006645641834725962,0.038
0.006716700571873956,0.039
0.006784901427281745,0.04
0.0068502472694805736,0.041
0.006912744955766859,0.042
0.00697240143424675,0.043
0.0070292213165623766,0.044
0.007083207656884571,0.045
0.007134365317606688,0.046
0.007182704853406338,0.047
0.007228245545632826,0.048
0.007271017110726198,0.049
0.0073110598595220845,0.05
0.0073484231648789766,0.051
0.007383162229825967,0.052
0.0074153338248858,0.053
0.007444993114649208,0.054
0.007472193819022243,0.055
0.00749699135066343,0.056
0.00751944639956535,0.057
0.007539627067266857,0.058
0.0075576091052161455,0.059
0.00757347444346548,0.06
0.007587308354355901,0.061
0.007599195908233207,0.062
0.007609219203018832,0.063
0.007617457068294171,0.064
0.007623987244100579,0.065
0.00762888921475699,0.066
0.007632246084822808,0.067
0.0076341449951502416,0.068
0.007634676133371476,0.069
0.007633930579765152,0.07
0.007631997539407351,0.071
0.007628962144906689,0.072
0.007624905132246067,0.073
0.007619904396452025,0.074
0.007614037109545104,0.075
0.007607381275146595,0.076
0.00760001640921809,0.077
0.007592023395793035,0.078
0.007583483641317817,0.079
0.007574477691833264,0.08
0.007565083495448708,0.081
0.007555374611506456,0.082
0.007545418957774247,0.083
0.007535278624372711,0.084
0.007525010527230412,0.085
0.00751466709297296,0.086
0.007504296399576925,0.087
0.007493941683649232,0.088
0.007483640477014334,0.089
0.00747342386472684,0.09
0.0074633161843349035,0.091
0.007453335201812195,0.092
0.007443493004416869,0.093
0.00743379792795106,0.094
0.007424257281937987,0.095
0.007414880172979629,0.096
0.007405679695506038,0.097
0.00739667388056397,0.098
0.007387884999941787,0.099
0.0073793371243359935,0.1
0.007371052842209386,0.101
0.00736305164906415,0.102
0.007355351773589531,0.103
0.007347974021565246,0.104
0.007340945080188102,0.105
0.007334299103058144,0.106
0.007328077442931246,0.107
0.007322326761546862,0.108
0.007317095992930758,0.109
0.007312432895064943,0.11
0.007308381287693722,0.111
0.007304979889920268,0.112
0.007302262424511247,0.113
0.007300257703649489,0.114
0.00729898909008879,0.115
0.007298473916369062,0.116
0.007298723388802888,0.117
0.0072997426863113946,0.118
0.007301531148481426,0.119
0.00730408322298814,0.12
0.007307390546323386,0.121
0.0073114446300940475,0.122
0.007316239365161361,0.123
0.007321772758402575,0.124
0.0073280474895395615,0.125
0.007335070066153472,0.126
0.007342848638304487,0.127
0.007351390047364001,0.128
0.007360697462102374,0.129
0.0073707699319331636,0.13
0.007381603676756155,0.131
0.0073931937235073245,0.132
0.007405534957487185,0.133
0.00741862255605462,0.134
0.007432452064407263,0.135
0.007447019321300624,0.136
0.007462320316795548,0.137
0.007478350903782947,0.138
0.007495106154464753,0.139
0.007512579136302198,0.14
0.007530759224343397,0.141
0.007549630791477549,0.142
0.007569173180406784,0.143
0.007589361701341944,0.144
0.007610168535320489,0.145
0.007631562833185113,0.146
0.007653509991722683,0.147
0.007675970483365048,0.148
0.0076988990261203935,0.149
0.007722244876652433,0.15
0.00774595317534895,0.151
0.0077699664976009185,0.152
0.00779422581227929,0.153
0.007818670421448579,0.154
0.007843236788805899,0.155
0.00786785691576013,0.156
0.00789245788128778,0.157
0.007916963610505093,0.158
0.007941298119149166,0.159
0.007965388922582297,0.16
0.007989170002555515,0.161
0.00801258410434707,0.162
0.008035584115774177,0.163
0.008058133212780599,0.164
0.00808020340511617,0.165
0.008101772177457537,0.166
0.008122818023759071,0.167
0.008143317989497093,0.168
0.008163250133526253,0.169
0.008182599857306561,0.17
0.008201366641687332,0.171
0.00821956880577794,0.172
0.008237245301809235,0.173
0.00825445423286852,0.174
0.008271268365065976,0.175
0.008287768453348957,0.176
0.008304036344164031,0.177
0.008320151224820379,0.178
0.008336190623791904,0.179
0.008352233636265425,0.18
0.00836836318883902,0.181
0.008384666538247218,0.182
0.008401234500907236,0.183
0.008418160018748785,0.184
0.008435536571175151,0.185
0.008453456747887533,0.186
0.008472011096005356,0.187
0.008491287207744726,0.188
0.008511368938884057,0.189
0.008532335633158425,0.19
0.008554261256529007,0.191
0.008577213432616198,0.192
0.008601252582926626,0.193
0.008626431518995701,0.194
0.008652795484462952,0.195
0.008680382207414766,0.196
0.008709221846816086,0.197
0.008739337254294067,0.198
0.008770744663125869,0.199
0.00880345422059855,0.2
0.008837469856958055,0.201
0.008872789011341857,0.202
0.008909403479718744,0.203
0.008947301854679202,0.204
0.008986472631073212,0.205
0.009026906735683802,0.206
0.009068598747356348,0.207
0.009111546522901226,0.208
0.009155749265655396,0.209
0.009201204487930716,0.21
0.009247905134028905,0.211
0.009295838645933701,0.212
0.009344988401924954,0.213
0.009395335908484575,0.214
0.00944686201825189,0.215
0.009499546643278293,0.216
0.009553367167188857,0.217
0.00960829613953247,0.218
0.009664299228211637,0.219
0.0097213342614828,0.22
0.009779351129946072,0.221
0.009838291710542214,0.222
0.009898089978981103,0.223
0.009958673302895151,0.224
0.010019965050959262,0.225
0.01008188756734907,0.226
0.010144364398632245,0.227
0.010207320903111435,0.228
0.010270682682105634,0.229
0.0103343724884121,0.23
0.010398308477630153,0.231
0.010462406486174509,0.232
0.010526585432620833,0.233
0.010590772778374306,0.234
0.010654907942607194,0.235
0.010718942849059325,0.236
0.010782839477292186,0.237
0.01084656488542269,0.238
0.010910085281069506,0.239
0.010973362243848636,0.24
0.01103635331308268,0.241
0.011099015594529055,0.242
0.01116130952242978,0.243
0.011223201436899975,0.244
0.01128466497793159,0.245
0.011345681556120648,0.246
0.01140624009578125,0.247
0.01146633611039585,0.248
0.011525970022634894,0.249
0.011585144551227382,0.25
0.011643861044553517,0.251
0.011702115618373326,0.252
0.011759897662116702,0.253
0.011817192488978787,0.254
0.011873986617788693,0.255
0.011930273071769453,0.256
0.01198605537888449,0.257
0.012041349737383746,0.258
0.012096185002473907,0.259
0.01215060044214093,0.26
0.012204641536184497,0.261
0.012258354419873706,0.262
0.012311780515368211,0.263
0.012364954056966476,0.264
0.012417903728732438,0.265
0.012470656291097244,0.266
0.012523239554028344,0.267
0.012575683880341665,0.268
0.012628022363911648,0.269
0.012680289956904208,0.27
0.012732521886208357,0.271
0.01278475171133275,0.272
0.01283700933161779,0.273
0.012889319147353123,0.274
0.012941698437827448,0.275
0.01299415588246721,0.276
0.013046690173781855,0.277
0.013099289055009572,0.278
0.013151929448335768,0.279
0.01320457889301055,0.28
0.013257197763107203,0.281
0.013309741632282752,0.282
0.013362163438448116,0.283
0.01341441521983732,0.284
0.013466449214581911,0.285
0.013518218164785406,0.286
0.013569674721626642,0.287
0.01362076989147438,0.288
0.01367145049570794,0.289
0.013721656114195202,0.29
0.013771317229368274,0.291
0.013820356465715956,0.292
0.013868692787157263,0.293
0.013916246815269082,0.294
0.013962945668286616,0.295
0.014008726406017625,0.296
0.01405353743469387,0.297
0.014097337448429571,0.298
0.014140091819032625,0.299
0.014181766877038812,0.3
0.01422232407231989,0.301
0.014261717704161195,0.302
0.014299897902985985,0.303
0.014336816141242121,0.304
0.014372429852703707,0.305
0.014406705059728764,0.306
0.014439617139569288,0.307
0.014471150005330247,0.308
0.014501294012789136,0.309
0.014530042916367317,0.31
0.014557390240968512,0.311
0.014583325492109655,0.312
0.01460783062057979,0.313
0.014630877112666592,0.314
0.014652424119489464,0.315
0.01467241795685057,0.316
0.014690792815640688,0.317
0.014707472139468512,0.318
0.014722370351613449,0.319
0.014735394979695785,0.32
0.014746449304687579,0.321
0.014755435585513791,0.322
0.014762258799230148,0.323
0.014766830682425179,0.324
0.014769073670348819,0.325
0.014768924131804619,0.326
0.014766334128434078,0.327
0.014761270848856657,0.328
0.014753712978066382,0.329
0.014743644065721083,0.33
0.014731045736103012,0.331
0.0147158963043374,0.332
0.014698177157831734,0.333
0.014677882649931811,0.334
0.01465502807799798,0.335
0.014629653567945322,0.336
0.014601823770338519,0.337
0.014571624028768838,0.338
0.014539154145930653,0.339
0.014504520994867265,0.34
0.01446783106921645,0.341
0.014429184195166088,0.342
0.014388670088782446,0.343
0.014346368446175256,0.344
0.014302351022753507,0.345
0.014256683773866925,0.346
0.01420942850893919,0.347
0.01416064432169431,0.348
0.014110389090291423,0.349
0.014058721202311573,0.35
0.014005701452998046,0.351
0.013951394832314766,0.352
0.013895871734550968,0.353
0.013839208068332682,0.354
0.013781483839821964,0.355
0.013722780001429869,0.356
0.0136631740620828,0.357
0.013602736507185655,0.358
0.013541530598317666,0.359
0.013479615579966879,0.36
0.013417050528058685,0.361
0.01335389640339007,0.362
0.013290215708702828,0.363
0.01322607023730359,0.364
0.013161517857964232,0.365
0.013096609429255356,0.366
0.013031386750025737,0.367
0.012965882015882243,0.368
0.012900118699081232,0.369
0.012834113232698625,0.37
0.012767876475329442,0.371
0.012701413779071942,0.372
0.012634723590474422,0.373
0.012567797150713106,0.374
0.012500622164005135,0.375
0.012433189621031213,0.376
0.012365500358278506,0.377
0.012297568672919191,0.378
0.012229421761888596,0.379
0.012161094824855596,0.38
0.012092623962492296,0.381
0.012024042295548255,0.382
0.011955383105999315,0.383
0.01188668711798464,0.384
0.011818008583482968,0.385
0.01174941776845346,0.386
0.011680999790140582,0.387
0.011612850576109194,0.388
0.01154507116087314,0.389
0.011477761639186415,0.39
0.0114110162299437,0.391
0.011344921021578526,0.392
0.011279554758723472,0.393
0.011214991174115192,0.394
0.011151301294642283,0.395
0.011088555182020891,0.396
0.011026822934821982,0.397
0.010966174797537464,0.398
0.010906680390464791,0.399
0.010848407266233163,0.4
0.010791419103016063,0.401
0.010735773840540502,0.402
0.010681522005829813,0.403
0.010628705416570627,0.404
0.01057735640656281,0.405
0.010527497678381053,0.406
0.010479142845267374,0.407
0.010432297674220128,0.408
0.010386961960427026,0.409
0.010343131805790707,0.41
0.010300801839363868,0.411
0.010259966698666299,0.412
0.010220621037597919,0.413
0.010182757715789446,0.414
0.010146365343543962,0.415
0.010111428101899361,0.416
0.010077929487301341,0.417
0.010045858141402852,0.418
0.010015212870634031,0.419
0.00998600529608217,0.42
0.009958259577538753,0.421
0.009932009191178091,0.422
0.009907291505835877,0.423
0.0098841424681793,0.424
0.009862594850426563,0.425
0.009842681122006132,0.426
0.009824438052001973,0.427
0.009807909792397039,0.428
0.009793148357615867,0.429
0.009780211666707903,0.43
0.009769159740106188,0.431
0.009760050260282411,0.432
0.009752935452137556,0.433
0.009747861600360497,0.434
0.009744870336989621,0.435
0.009743999842800735,0.436
0.00974528511023161,0.437
0.009748757440118423,0.438
0.009754443594927104,0.439
0.009762364966494574,0.44
0.009772536963897235,0.441
0.009784968656669623,0.442
0.009799662608468719,0.443
0.00981661484140953,0.444
0.009835814931168942,0.445
0.0098572462688171,0.446
0.009880886507454662,0.447
0.009906708158973626,0.448
0.009934679232098618,0.449
0.009964763706018944,0.45
0.009996921541110223,0.451
0.010031107904014663,0.452
0.010067271762029404,0.453
0.010105355141011397,0.454
0.010145294543501935,0.455
0.010187024452455572,0.456
0.010230481598472207,0.457
0.01027560884672734,0.458
0.010322357991614288,0.459
0.01037069091140308,0.46
0.010420578733158225,0.461
0.010471999000564976,0.462
0.010524931254706642,0.463
0.010579352188499593,0.464
0.010635232465820143,0.465
0.010692536566520767,0.466
0.010751224619043124,0.467
0.0108112543012694,0.468
0.010872582056253098,0.469
0.010935163750717566,0.47
0.010998954895850845,0.471
0.011063910352195552,0.472
0.011129983401860916,0.473
0.011197124247137001,0.474
0.011265278271437406,0.475
0.01133438458984314,0.476
0.011404375405748847,0.477
0.011475176490683877,0.478
0.01154670880101486,0.479
0.011618890907700775,0.48
0.011691641589996322,0.481
0.011764881708530257,0.482
0.011838534448503787,0.483
0.011912523298889309,0.484
0.011986768403407795,0.485
0.01206118416556073,0.486
0.012135680845314807,0.487
0.012210169247975728,0.488
0.01228456535806433,0.489
0.012358792884670379,0.49
0.012432783212283015,0.491
0.012506472925250001,0.492
0.012579799435835724,0.493
0.01265269598272158,0.494
0.012725088396853768,0.495
0.012796895349064787,0.496
0.012868030994384216,0.497
0.012938407672910435,0.498
0.013007937503388719,0.499
0.013076532771648155,0.5
0.013144105187098196,0.501
0.01321056398182579,0.502
0.013275813084527098,0.503
0.013339748942556821,0.504
0.013402261733464985,0.505
0.013463241170636726,0.506
0.013522585230584225,0.507
0.013580209176291727,0.508
0.013636052704124295,0.509
0.013690083295096776,0.51
0.01374229422665939,0.511
0.013792696617939058,0.512
0.013841308306903086,0.513
0.013888147823127613,0.514
0.013933239528624016,0.515
0.01397662552903378,0.516
0.014018375946352852,0.517
0.014058593700165519,0.518
0.014097413644959067,0.519
0.014134997109637839,0.52
0.014171523473429613,0.521
0.014207180563707445,0.522
0.014242155610237167,0.523
0.014276628597728477,0.524
0.014310769378962406,0.525
0.014344737879571039,0.526
0.014378685075044449,0.527
0.014412753197182758,0.528
0.014447075093085918,0.529
0.014481773066599502,0.53
0.014516957512778095,0.531
0.014552725770224187,0.532
0.01458916172952477,0.533
0.014626336753091386,0.534
0.014664312305372719,0.535
0.014703144281337408,0.536
0.01474288848908028,0.537
0.014783606314457985,0.538
0.014825369375846779,0.539
0.014868262009997048,0.54
0.014912380728617216,0.541
0.014957830326982245,0.542
0.01500471733122434,0.543
0.015053143495075758,0.544
0.015103203302578099,0.545
0.01515498635511046,0.546
0.015208580997580722,0.547
0.01526407564012716,0.548
0.015321557230807374,0.549
0.015381107912839923,0.55
0.015442801144181078,0.551
0.015506698551540963,0.552
0.015572848493943426,0.553
0.0156412863797744,0.554
0.0157120359173559,0.555
0.01578511059812576,0.556
0.015860515038214774,0.557
0.01593824556058801,0.558
0.016018289378238144,0.559
0.0161006232192842,0.56
0.016185214173247333,0.561
0.016272024402485964,0.562
0.016361017834603385,0.563
0.016452165686383736,0.564
0.01654544892926277,0.565
0.016640857087794128,0.566
0.016738383704479637,0.567
0.016838019776921467,0.568
0.01693974768133542,0.569
0.017043538450655996,0.57
0.017149352816933715,0.571
0.01725714345892215,0.572
0.017366856282783387,0.573
0.017478430612634845,0.574
0.017591798902155485,0.575
0.017706886362761864,0.576
0.0178236105904173,0.577
0.01794188101956457,0.578
0.018061597943906632,0.579
0.01818265094369039,0.58
0.018304916800634886,0.581
0.01842825731668002,0.582
0.018552517686551275,0.583
0.01867752597209353,0.584
0.018803094058242462,0.585
0.018929020323020903,0.586
0.01905509371373034,0.587
0.019181098249447887,0.588
0.01930681668109599,0.589
0.01943203210469455,0.59
0.019556526661636705,0.591
0.01968007734514563,0.592
0.01980245119153486,0.593
0.019923404253181395,0.594
0.0200426864452574,0.595
0.020160049539087684,0.596
0.02027525473770781,0.597
0.02038807851678964,0.598
0.02049831653683649,0.599
0.02060578543186852,0.6
0.020710322115141597,0.601
0.020811780039834873,0.602
0.020910021813456085,0.603
0.021004909542936455,0.604
0.02109629890193166,0.605
0.02118404300586099,0.606
0.021268004452518155,0.607
0.021348068534199377,0.608
0.02142415273096586,0.609
0.021496211010017124,0.61
0.02156423298203005,0.611
0.021628238625182688,0.612
0.021688269537941077,0.613
0.02174437761996993,0.614
0.02179661328598712,0.615
0.02184501846146411,0.616
0.021889629080928733,0.617
0.02193048516380244,0.618
0.021967642090389147,0.619
0.02200117826456639,0.62
0.022031196931661456,0.621
0.022057821412803304,0.622
0.022081184509003992,0.623
0.02210141587049317,0.624
0.022118634473162046,0.625
0.02213294961266319,0.626
0.022144464911623824,0.627
0.022153278281416045,0.628
0.022159477593665843,0.629
0.022163138217889,0.63
0.02216432722373291,0.631
0.02216311139540744,0.632
0.022159563008806258,0.633
0.0221537604983779,0.634
0.022145784168063922,0.635
0.022135708813067145,0.636
0.02212359687666334,0.637
0.022109495863479253,0.638
0.022093440285582334,0.639
0.022075455065899623,0.64
0.022055558202725353,0.641
0.022033762979071832,0.642
0.022010080773707946,0.643
0.0219845251364795,0.644
0.021957117123639187,0.645
0.021927891089853168,0.646
0.021896899363774484,0.647
0.02186421373570801,0.648
0.021829921790079098,0.649
0.021794117935755992,0.65
0.0217568940559709,0.651
0.0217183383506736,0.652
0.021678544819695916,0.653
0.021637625970551078,0.654
0.021595720635123158,0.655
0.02155299436153215,0.656
0.02150963337394957,0.657
0.021465834359210505,0.658
0.02142179291946932,0.659
0.021377693973187988,0.66
0.021333707003787825,0.661
0.02128998597780324,0.662
0.02124667059826232,0.663
0.021203886492775582,0.664
0.02116174457239197,0.665
0.021120340540428224,0.666
0.0210797550440574,0.667
0.02104005445030408,0.668
0.021001291933183903,0.669
0.020963508556237544,0.67
0.0209267342362804,0.671
0.02089098872087096,0.672
0.020856282849153234,0.673
0.020822620283076274,0.674
0.020789999584328634,0.675
0.020758416114263108,0.676
0.020727863003170765,0.677
0.020698330576034436,0.678
0.020669804112563955,0.679
0.020642260387170496,0.68
0.02061566373256454,0.681
0.020589962622987023,0.682
0.020565088273016528,0.683
0.020540956433258564,0.684
0.02051747222946813,0.685
0.02049453720256313,0.686
0.020472057645067862,0.687
0.020449952838283096,0.688
0.02042816130712083,0.689
0.020406643367889107,0.69
0.020385379011319597,0.691
0.020364361269235423,0.692
0.02034358631505744,0.693
0.020323043324149845,0.694
0.02030270888134198,0.695
0.020282547957271448,0.696
0.020262517941615547,0.697
0.020242571893359172,0.698
0.020222660668781717,0.699
0.020202735014578862,0.7
0.02018274826876538,0.701
0.020162659601335328,0.702
0.020142437007972053,0.703
0.02012205879245707,0.704
0.020101512235135694,0.705
0.020080788618833143,0.706
0.0200598757557533,0.707
0.02003875269543651,0.708
0.020017391190587003,0.709
0.01999576248252477,0.71
0.019973843776035935,0.711
0.01995162057214907,0.712
0.019929084112129496,0.713
0.01990622490962163,0.714
0.0198830255465391,0.715
0.019859457903124395,0.716
0.01983548705964811,0.717
0.01981107830748499,0.718
0.01978620281462285,0.719
0.0197608403717513,0.72
0.01973497901372908,0.721
0.019708611286708665,0.722
0.01968172784564189,0.723
0.019654312270276787,0.724
0.019626342765057047,0.725
0.019597801719664347,0.726
0.019568687840576967,0.727
0.019539025006601523,0.728
0.019508864861860167,0.729
0.019478282264925685,0.73
0.019447364540933827,0.731
0.01941619933104727,0.732
0.019384869428322613,0.733
0.019353457986624856,0.734
0.019322057405936618,0.735
0.019290773814212826,0.736
0.019259724818955538,0.737
0.0192290318611749,0.738
0.019198810751527167,0.739
0.01916916587462436,0.74
0.01914019022060412,0.741
0.019111967076546665,0.742
0.01908456916548566,0.743
0.019058056198742897,0.744
0.01903247403681884,0.745
0.019007856020642075,0.746
0.018984223982010766,0.747
0.01896158725414896,0.748
0.01893994128749758,0.749
0.018919268487417033,0.75
0.018899541306744986,0.751
0.018880725154534757,0.752
0.01886277901693071,0.753
0.01884565335145884,0.754
0.018829286900917733,0.755
0.018813605883210724,0.756
0.018798527441677062,0.757
0.018783965447484372,0.758
0.018769835921018538,0.759
0.018756060983771423,0.76
0.01874257095088389,0.761
0.018729303915068114,0.762
0.018716201932726384,0.763
0.018703204634750926,0.764
0.018690245569233658,0.765
0.018677257051298243,0.766
0.018664182100559604,0.767
0.01865098649451592,0.768
0.01863766544504826,0.769
0.018624242873910447,0.77
0.018610763635692473,0.771
0.01859728128274947,0.772
0.018583846953547315,0.773
0.018570505595076937,0.774
0.018557300001351168,0.775
0.018544276871225746,0.776
0.018531490049989698,0.777
0.018519000411912578,0.778
0.018506873679818896,0.779
0.01849517754331987,0.78
0.018483979073591845,0.781
0.018473342722124076,0.782
0.018463328351182636,0.783
0.018453988389306456,0.784
0.01844536486980838,0.785
0.018437489976967196,0.786
0.018430392587186054,0.787
0.018424108226420606,0.788
0.018418687677642764,0.789
0.018414201037878896,0.79
0.01841073572395876,0.791
0.01840838853238182,0.792
0.01840725565718159,0.793
0.018407428806997132,0.794
0.018409001753820698,0.795
0.018412081947005714,0.796
0.018416799541270935,0.797
0.01842331072601783,0.798
0.018431795052155527,0.799
0.018442447308359658,0.8
0.01845546639736777,0.801
0.01847104700527082,0.802
0.018489379454834413,0.803
0.018510656272589274,0.804
0.018535078998833453,0.805
0.01856286083703722,0.806
0.018594224545752654,0.807
0.01862939672344272,0.808
0.0186686003185063,0.809
0.018712047934861076,0.81
0.0187599386197898,0.811
0.018812458501204037,0.812
0.018869782798881653,0.813
0.018932077051888752,0.814
0.018999497320458504,0.815
0.019072189749152466,0.816
0.01915028965751988,0.817
0.019233920137791186,0.818
0.019323190176204486,0.819
0.019418192869634116,0.82
0.019519004909685403,0.821
0.01962568782872553,0.822
0.019738290090805646,0.823
0.01985684889324885,0.824
0.019981391234640652,0.825
0.020111934157888176,0.826
0.02024848415260995,0.827
0.020391035821262147,0.828
0.020539570059455517,0.829
0.02069405209040295,0.83
0.020854429655793157,0.831
0.021020631616506243,0.832
0.021192567270424543,0.833
0.02137012656945604,0.834
0.02155318109188756,0.835
0.0217415855600605,0.836
0.021935179804080343,0.837
0.022133790988482425,0.838
0.02233723571303114,0.839
0.022545321444382316,0.84
0.02275784670096658,0.841
0.02297459955695808,0.842
0.023195354534268922,0.843
0.023419869228475634,0.844
0.023647883040981,0.845
0.023879118763799067,0.846
0.02411328488141864,0.847
0.024350076144437557,0.848
0.024589171817755825,0.849
0.024830233223121608,0.85
0.02507290373297743,0.851
0.025316812684745473,0.852
0.025561580992465197,0.853
0.025806825093285028,0.854
0.026052157087350866,0.855
0.026297180738721025,0.856
0.026541486772198322,0.857
0.026784653947611654,0.858
0.027026258364112956,0.859
0.02726588611444908,0.86
0.027503142971132145,0.861
0.02773765789883789,0.862
0.02796907946516656,0.863
0.028197065493659936,0.864
0.028421269626361854,0.865
0.028641333707760855,0.866
0.02885689257539263,0.867
0.029067587066464215,0.868
0.029273076577024704,0.869
0.029473046795736164,0.87
0.029667211760491793,0.871
0.02985531039161252,0.872
0.030037098289646003,0.873
0.03021233611363573,0.874
0.030380776922549632,0.875
0.030542157016228887,0.876
0.030696194803012333,0.877
0.030842597478309083,0.878
0.030981071262732036,0.879
0.03111133200523413,0.88
0.031233115162662868,0.881
0.0313461843412721,0.882
0.031450336989404,0.883
0.03154540561940204,0.884
0.0316312532736762,0.885
0.031707762781531756,0.886
0.03177482147857911,0.887
0.031832307937111066,0.888
0.031880090058569885,0.889
0.03191803678986622,0.89
0.031946035817157485,0.891
0.03196400918475487,0.892
0.031971923719662114,0.893
0.03196979540457552,0.894
0.03195768732429207,0.895
0.031935701437608634,0.896
0.03190396516966978,0.897
0.031862614500815185,0.898
0.03181177739717456,0.899
0.03175156492181397,0.9
0.03168207473060866,0.901
0.03160340296310954,0.902
0.03151565776629248,0.903
0.0314189714915907,0.904
0.03131351063933208,0.905
0.031199482199903095,0.906
0.031077134667701612,0.907
0.030946752309966123,0.908
0.030808642293405266,0.909
0.03066311741450095,0.91
0.0305104830120836,0.911
0.030351037088556704,0.912
0.030185082325537148,0.913
0.030012939918373546,0.914
0.029834957504495923,0.915
0.029651509240511565,0.916
0.02946298880386847,0.917
0.02926979718399123,0.918
0.029072328904628082,0.919
0.02887096272483959,0.92
0.02866606095562889,0.921
0.02845797466328191,0.922
0.02824704892508827,0.923
0.02803362536710103,0.924
0.0278180421347265,0.925
0.0276006318973448,0.926
0.02738171814719364,0.927
0.02716161019085814,0.928
0.026940598817281232,0.929
0.02671895600192732,0.93
0.026496939551667386,0.931
0.026274799440426586,0.932
0.02605278207003875,0.933
0.025831130882232982,0.934
0.025610083362946203,0.935
0.02538986550368543,0.936
0.025170686119628,0.937
0.02495273415137446,0.938
0.02473617987670147,0.939
0.0245211777257131,0.94
0.024307868492285754,0.941
0.02409638072629354,0.942
0.023886831666471313,0.943
0.023679327614719654,0.944
0.023473963224306334,0.945
0.02327081928574964,0.946
0.023069960185402163,0.947
0.02287143410108581,0.948
0.022675277349426683,0.949
0.02248152016537503,0.95
0.022290190022743964,0.951
0.022101310460820017,0.952
0.02191489639205307,0.953
0.021730950835519264,0.954
0.021549467809795737,0.955
0.02137043983120936,0.956
0.021193864512398814,0.957
0.02101974673049924,0.958
0.02084809576360366,0.959
0.020678918611581894,0.96
0.0205122129768776,0.961
0.020347964734216045,0.962
0.020186151376917448,0.963
0.020026747911656706,0.964
0.01986973157339444,0.965
0.019715084562299492,0.966
0.019562795051455847,0.967
0.019412856386374223,0.968
0.019265264102141196,0.969
0.01912001065761113,0.97
0.018977079789892114,0.971
0.01883644483543908,0.972
0.018698073151305925,0.973
0.0185619332888978,0.974
0.01842800039260862,0.975
0.018296257985481727,0.976
0.01816669605128086,0.977
0.018039305973272527,0.978
0.01791407391756753,0.979
0.01779097571367048,0.98
0.01766997574501193,0.981
0.017551028771102702,0.982
0.017434081231901422,0.983
0.017319070148623092,0.984
0.017205920839654873,0.985
0.017094546221414847,0.986
0.016984848548521177,0.987
0.016876721189800444,0.988
0.016770048251795476,0.989
0.016664703609939668,0.99
0.01656055314743164,0.991
0.016457461468789587,0.992
0.016355300433922214,0.993
0.016253956114037807,0.994
0.01615333210656928,0.995
0.016053348132343916,0.996
0.015953933573142894,0.997
0.015855018450695493,0.998
0.01575652904063366,0.999
0.015658393299777626,1.0
0.015560552120154334,1.001
0.015462969012563313,1.002
0.015365634650073647,1.003
0.015268565688328399,1.004
0.015171798460717584,1.005
0.015075379096968577,1.006
0.01497935316692413,1.007
0.014883759699071466,1.008
0.014788631964676948,1.009
0.014694001762888926,1.01
0.014599902888449505,1.011
0.014506372741174911,1.012
0.014413452972620498,1.013
0.014321190099380775,1.014
0.014229636481646159,1.015
0.014138851324421019,1.016
0.014048900765041067,1.017
0.01395985596614131,1.018
0.013871788770018484,1.019
0.013784766722624249,1.02
0.013698851624352162,1.021
0.01361410349890353,1.022
0.013530586687141181,1.023
0.013448373853573533,1.024
0.013367546491193648,1.025
0.013288192389611434,1.026
0.013210401146069278,1.027
0.013134258971815629,1.028
0.01305984419609432,1.029
0.012987225062443148,1.03
0.012916460362438613,1.031
0.012847601693111279,1.032
0.012780695979707097,1.033
0.012715787720146088,1.034
0.012652920454976608,1.035
0.012592136698660415,1.036
0.01253347588528172,1.037
0.012476971537646559,1.038
0.01242265074405643,1.039
0.012370537464657374,1.04
0.012320657253971424,1.041
0.01227304006257044,1.042
0.012227719745308202,1.043
0.012184730538110443,1.044
0.012144102494334364,1.045
0.012105859581036072,1.046
0.012070022329985554,1.047
0.012036612751050986,1.048
0.012005658322043481,1.049
0.011977193791127154,1.05
0.011951260551973408,1.051
0.011927903551977362,1.052
0.011907166576087853,1.053
0.011889088594068032,1.054
0.011873703989310544,1.055
0.011861046145111668,1.056
0.011851151096982725,1.057
0.011844058843718766,1.058
0.011839811964974837,1.059
0.011838452219226532,1.06
0.011840016451104994,1.061
0.011844533871358748,1.062
0.011852026076396292,1.063
0.011862508897051757,1.064
0.011875994097826813,1.065
0.011892489843136596,1.066
0.01191199982492494,1.067
0.01193452135952127,1.068
0.01196004318472898,1.069
0.01198854407478634,1.07
0.012019992781415332,1.071
0.012054348575931295,1.072
0.012091561514040724,1.073
0.012131572235775899,1.074
0.012174311418569679,1.075
0.012219699157357166,1.076
0.012267644850828669,1.077
0.012318047890593462,1.078
0.012370798600427856,1.079
0.012425778569176852,1.08
0.012482860129906395,1.081
0.012541905839805441,1.082
0.012602769332540691,1.083
0.01266529789501294,1.084
0.012729335784817811,1.085
0.012794727141895976,1.086
0.012861317796348602,1.087
0.012928955547582183,1.088
0.012997488709341337,1.089
0.01306676305512223,1.09
0.013136618029623582,1.091
0.013206884029853474,1.092
0.013277381994038159,1.093
0.013347924352777636,1.094
0.013418315501217805,1.095
0.013488351123917013,1.096
0.013557816932615579,1.097
0.013626487845435676,1.098
0.01369412868647241,1.099
0.01376049724608697,1.1
0.013825350042980968,1.101
0.013888450444843185,1.102
0.013949578036714351,1.103
0.01400853741124701,1.104
0.014065164078880431,1.105
0.014119325184775749,1.106
0.014170913370180935,1.107
0.014219835392189892,1.108
0.01426600364315727,1.109
0.014309339487601432,1.11
0.014349787088514277,1.111
0.01438732804089909,1.112
0.01442198943676145,1.113
0.014453843482859894,1.114
0.014482999804777403,1.115
0.014509592986665498,1.116
0.014533768477724212,1.117
0.014555670554828213,1.118
0.014575436136126552,1.119
0.014593194850521294,1.12
0.014609071261512452,1.121
0.014623185631652165,1.122
0.014635652940778277,1.123
0.014646581191282221,1.124
0.014656069888238572,1.125
0.014664209304056153,1.126
0.014671080807349244,1.127
0.014676758234185627,1.128
0.014681310065210293,1.129
0.014684802061570088,1.13
0.014687299972509097,1.131
0.014688871897239133,1.132
0.01468958983155063,1.133
0.0146895298988428,1.134
0.014688770861263465,1.135
0.014687390819375097,1.136
0.014685462713840945,1.137
0.014683050295591981,1.138
0.014680206192426718,1.139
0.01467697163288446,1.14
0.01467337642153487,1.141
0.014669439711095316,1.142
0.014665172491086353,1.143
0.014660579988589802,1.144
0.014655661674945053,1.145
0.01465041048479119,1.146
0.01464481585434716,1.147
0.014638872093524638,1.148
0.014632588248962667,1.149
0.014625994634663225,1.15
0.014619143630311587,1.151
0.014612104570621941,1.152
0.0146049545128865,1.153
0.014597769368820368,1.154
0.01459062084807813,1.155
0.014583580111316911,1.156
0.014576723439821263,1.157
0.01457013562226093,1.158
0.014563910227553881,1.159
0.014558147418780198,1.16
0.01455295001956377,1.161
0.014548418459355878,1.162
0.014544645814620678,1.163
0.014541715428694283,1.164
0.014539702598383365,1.165
0.014538678580169764,1.166
0.014538714179386264,1.167
0.01453988159127538,1.168
0.0145422540704745,1.169
0.014545903366749683,1.17
0.014550895697957086,1.171
0.014557288359491643,1.172
0.014565129049412272,1.173
0.01457445754341067,1.174
0.014585307457274554,1.175
0.014597706665578292,1.176
0.014611676507759623,1.177
0.014627230493856667,1.178
0.014644373176222091,1.179
0.014663099611736773,1.18
0.014683395511642211,1.181
0.0147052378626205,1.182
0.014728595586248725,1.183
0.014753429752004775,1.184
0.014779692992862588,1.185
0.014807328051467242,1.186
0.014836265963061306,1.187
0.014866424986499099,1.188
0.014897710772070617,1.189
0.014930016825861344,1.19
0.014963224255311589,1.191
0.014997200887549845,1.192
0.015031800551445856,1.193
0.015066863370537599,1.194
0.015102217592697625,1.195
0.015137682928102001,1.196
0.015173074824706112,1.197
0.015208208765374393,1.198
0.015242903585579889,1.199
0.01527698297921164,1.2
0.015310274732387094,1.201
0.015342607695143028,1.202
0.015373807096929907,1.203
0.015403690048334183,1.204
0.01543206414886437,1.205
0.01545873046754326,1.206
0.015483489108908184,1.207
0.015506145234941225,1.208
0.015526514879205831,1.209
0.015544430287632822,1.21
0.015559744051729217,1.211
0.0155723308498421,1.212
0.015582085468975479,1.213
0.015588916146089976,1.214
0.015592735054581528,1.215
0.015593452995437072,1.216
0.015590984498001724,1.217
0.0155852604419201,1.218
0.015576240362499853,1.219
0.01556391958730722,1.22
0.01554832981063776,1.221
0.015529533340452617,1.222
0.01550761236716971,1.223
0.015482656257684694,1.224
0.015454752372726043,1.225
0.015423984999425032,1.226
0.015390440761103335,1.227
0.01535421472456881,1.228
0.015315413544268372,1.229
0.015274155284732808,1.23
0.015230566775681445,1.231
0.015184779555514349,1.232
0.015136925400272153,1.233
0.015087132157548767,1.234
0.015035520212668983,1.235
0.014982199661004118,1.236
0.01492726850923994,1.237
0.014870812601528444,1.238
0.014812907455874944,1.239
0.01475362122813843,1.24
0.01469301786349677,1.241
0.01463115986686051,1.242
0.014568110250291422,1.243
0.014503933197178428,1.244
0.014438693034698363,1.245
0.014372451247916772,1.246
0.014305262526663642,1.247
0.014237173220928557,1.248
0.014168224820172845,1.249
0.014098460659714348,1.25
0.014027932189870033,1.251
0.013956702706246302,1.252
0.013884847711690556,1.253
0.013812451683073474,1.254
0.013739601958593558,1.255
0.013666382491059035,1.256
0.013592871812218448,1.257
0.013519146736102612,1.258
0.013445288421384947,1.259
0.013371386885726205,1.26
0.013297542658228198,1.261
0.013223865682516326,1.262
0.013150471975128973,1.263
0.01307747881490132,1.264
0.013004999557553194,1.265
0.012933139763135305,1.266
0.012861996190494765,1.267
0.0127916583727992,1.268
0.012722210831586476,1.269
0.01265373439278839,1.27
0.012586306212703244,1.271
0.012519998628110466,1.272
0.01245487712472534,1.273
0.012390998120828325,1.274
0.012328407734213922,1.275
0.012267142084887182,1.276
0.012207228261046999,1.277
0.01214868481037668,1.278
0.012091521403999207,1.279
0.012035737999837346,1.28
0.01198132444830322,1.281
0.011928261524543897,1.282
0.011876523492829085,1.283
0.011826081656113482,1.284
0.011776908313755859,1.285
0.011728980409838314,1.286
0.011682281801656435,1.287
0.0116368029384207,1.288
0.011592537399216906,1.289
0.011549477335736155,1.29
0.011507612619403293,1.291
0.011466935990872352,1.292
0.011427450665276187,1.293
0.011389175682092056,1.294
0.01135214722549138,1.295
0.01131641610171261,1.296
0.011282042235902734,1.297
0.011249087748844195,1.298
0.011217611277348166,1.299
0.011187666165779155,1.3
0.011159302334367594,1.301
0.011132568978545277,1.302
0.01110751597482642,1.303
0.01108419384366524,1.304
0.011062652873948758,1.305
0.011042941995440297,1.306
0.01102510782830585,1.307
0.011009194094162816,1.308
0.010995241301336113,1.309
0.010983286398636391,1.31
0.010973362017170203,1.311
0.010965495040906255,1.312
0.010959704797169928,1.313
0.01095600195942868,1.314
0.010954388947311874,1.315
0.010954861199385746,1.316
0.010957408268783239,1.317
0.010962014477551442,1.318
0.01096865941283182,1.319
0.010977318538573328,1.32
0.010987963958123284,1.321
0.011000565074444501,1.322
0.011015088721761034,1.323
0.011031498391211465,1.324
0.011049752443136702,1.325
0.011069801940670282,1.326
0.011091589665992068,1.327
0.011115051291097173,1.328
0.011140117833180497,1.329
0.01116671803042154,1.33
0.011194780034382856,1.331
0.011224232136822044,1.332
0.01125500218468907,1.333
0.011287015431920051,1.334
0.011320191643573898,1.335
0.011354444057809637,1.336
0.01138968198098246,1.337
0.011425815317456947,1.338
0.011462758099218344,1.339
0.011500429560658587,1.34
0.01153875253229035,1.341
0.011577649622489352,1.342
0.011617038975744167,1.343
0.011656832752219683,1.344
0.011696939960473383,1.345
0.011737271769048508,1.346
0.011777746521730435,1.347
0.011818292992552102,1.348
0.01185885104477203,1.349
0.011899369030085477,1.35
0.011939798415031254,1.351
0.011980088838853254,1.352
0.01202018795598433,1.353
0.012060046392954596,1.354
0.01209962334307782,1.355
0.012138888540529162,1.356
0.012177819275055813,1.357
0.012216394236071942,1.358
0.012254589438043317,1.359
0.012292380333727366,1.36
0.01232974761274095,1.361
0.012366680966647293,1.362
0.012403177703366025,1.363
0.012439237351110957,1.364
0.01247485775713207,1.365
0.012510037812370272,1.366
0.012544785174126393,1.367
0.012579123183043557,1.368
0.012613093358693563,1.369
0.012646753004912609,1.37
0.012680168951195794,1.371
0.012713409637208838,1.372
0.01274653915081822,1.373
0.012779616057952862,1.374
0.012812696021858553,1.375
0.0128458348165503,1.376
0.012879089724645012,1.377
0.012912519247887702,1.378
0.012946181617211667,1.379
0.012980132602005362,1.38
0.013014423161396168,1.381
0.013049097539655703,1.382
0.013084192372785889,1.383
0.013119737126055048,1.384
0.01315575571906011,1.385
0.013192268679032877,1.386
0.013229294840699261,1.387
0.013266851655020786,1.388
0.013304953580533825,1.389
0.013343609058163178,1.39
0.013382818111547562,1.391
0.013422572621644532,1.392
0.01346285891959183,1.393
0.01350366060457251,1.394
0.013544960136474802,1.395
0.013586738872026414,1.396
0.013628975657028154,1.397
0.013671644263098675,1.398
0.013714710360882523,1.399
0.013758129380848116,1.4
0.013801846295075849,1.401
0.013845796680265796,1.402
0.013889907483479997,1.403
0.013934096629264998,1.404
0.013978271721787379,1.405
0.014022328902280277,1.406
0.01406615294631033,1.407
0.0141096186951722,1.408
0.014152593140756741,1.409
0.014194937671107345,1.41
0.014236510272863198,1.411
0.014277167321327304,1.412
0.014316764277682581,1.413
0.014355154479156335,1.414
0.01439218617671756,1.415
0.014427700565092627,1.416
0.014461534401535357,1.417
0.014493527323758587,1.418
0.014523530427498045,1.419
0.014551412637272118,1.42
0.014577062769719182,1.421
0.014600386157420445,1.422
0.014621296670520739,1.423
0.01463970929438433,1.424
0.014655540396900202,1.425
0.014668716711013602,1.426
0.014679186474166018,1.427
0.014686926245946136,1.428
0.014691941172227715,1.429
0.01469425904479726,1.43
0.014693919827844832,1.431
0.014690964756666126,1.432
0.014685431513839232,1.433
0.014677358298918565,1.434
0.014666792130744762,1.435
0.014653795583404483,1.436
0.014638450007756288,1.437
0.01462085523028309,1.438
0.01460112597614159,1.439
0.014579385540658154,1.44
0.014555758056855586,1.441
0.014530362469941336,1.442
0.01450331153573602,1.443
0.014474715544402439,1.444
0.014444687054017628,1.445
0.014413343677422445,1.446
0.014380808291110759,1.447
0.014347207110603104,1.448
0.014312666390965406,1.449
0.014277308650565012,1.45
0.01424124923551545,1.451
0.014204593750098454,1.452
0.014167436473267106,1.453
0.01412985952265563,1.454
0.014091932377176469,1.455
0.014053711618411296,1.456
0.01401524126949013,1.457
0.0139765541982731,1.458
0.013937674573547127,1.459
0.013898621025676943,1.46
0.01385941009304674,1.461
0.01382005939318551,1.462
0.013780589812052798,1.463
0.013741026047323059,1.464
0.013701395107869888,1.465
0.013661722792989828,1.466
0.013622029261026288,1.467
0.013582326432518513,1.468
0.013542619297391584,1.469
0.01350290992356712,1.47
0.013463201581655532,1.471
0.013423501742124908,1.472
0.01338382378811065,1.473
0.013344187439575609,1.474
0.013304617828377642,1.475
0.013265143153542165,1.476
0.013225790971967572,1.477
0.01318658385347533,1.478
0.013147536386348848,1.479
0.013108655351895922,1.48
0.013069942447642065,1.481
0.013031397332965333,1.482
0.012993019608402918,1.483
0.012954809593216562,1.484
0.012916768245799546,1.485
0.012878896660485924,1.486
0.012841195489651937,1.487
0.012803664399312688,1.488
0.012766301363830907,1.489
0.012729101378854921,1.49
0.012692054256716939,1.491
0.012655142225055245,1.492
0.012618339521472028,1.493
0.01258161529299407,1.494
0.012544938258913767,1.495
0.012508280717527163,1.496
0.01247162070122783,1.497
0.012434942052879887,1.498
0.01239823266290537,1.499
0.012361481419239189,1.5
0.01232467452272831,1.501
0.012287791870990468,1.502
0.012250804446596006,1.503
0.012213673595471998,1.504
0.012176352151771297,1.505
0.01213878652762264,1.506
0.012100919190234427,1.507
0.012062691561541595,1.508
0.012024047416475184,1.509
0.011984936550282389,1.51
0.011945318124180149,1.511
0.011905162800132974,1.512
0.011864452700891296,1.513
0.011823178488142277,1.514
0.011781333943923248,1.515
0.011738910991420508,1.516
0.011695899504616759,1.517
0.011652292793544222,1.518
0.011608094858827835,1.519
0.011563325257122009,1.52
0.011518019940519979,1.521
0.011472228101073567,1.522
0.01142600597719866,1.523
0.011379409681220124,1.524
0.011332490036159668,1.525
0.011285290995587605,1.526
0.011237849804674595,1.527
0.011190196515953857,1.528
0.011142353590623278,1.529
0.011094337447000023,1.53
0.011046161323132676,1.531
0.010997837210507504,1.532
0.010949375521809121,1.533
0.01090078283988972,1.534
0.01085205990964315,1.535
0.010803202358248123,1.536
0.010754204262847027,1.537
0.010705062579419961,1.538
0.010655780834418285,1.539
0.010606371586992142,1.54
0.010556857533068698,1.541
0.010507271119946414,1.542
0.010457652547517755,1.543
0.010408046117748385,1.544
0.01035849558203662,1.545
0.010309040709929055,1.546
0.01025971750341541,1.547
0.010210561671405521,1.548
0.010161612526124667,1.549
0.010112915076621825,1.55
0.010064519709954119,1.551
0.010016479659998174,1.552
0.009968847091747076,1.553
0.009921669706422621,1.554
0.00987499000781845,1.555
0.009828847288709431,1.556
0.00978328013452365,1.557
0.009738327437723371,1.558
0.00969402727822439,1.559
0.009650414373195098,1.56
0.00960751847158288,1.561
0.009565365827050384,1.562
0.009523982920525793,1.563
0.009483399848516368,1.564
0.009443651740499236,1.565
0.009404777880359852,1.566
0.009366818906639327,1.567
0.009329813098625737,1.568
0.00929379343847543,1.569
0.009258786777297922,1.57
0.009224814618394125,1.571
0.009191893885150116,1.572
0.009160036776640255,1.573
0.009129249904984153,1.574
0.009099533273696428,1.575
0.009070879587953226,1.576
0.009043274156759868,1.577
0.009016695346670591,1.578
0.008991115305570403,1.579
0.008966500578670824,1.58
0.008942812293363633,1.581
0.008920005744529865,1.582
0.008898029545089413,1.583
0.00887682499706556,1.584
0.008856326298545771,1.585
0.008836461370028203,1.586
0.008817152505731568,1.587
0.008798316265508142,1.588
0.008779862752718673,1.589
0.008761695408889405,1.59
0.00874371242882133,1.591
0.008725809529527085,1.592
0.00870788301717172,1.593
0.008689832420973253,1.594
0.008671562288112878,1.595
0.00865298282282279,1.596
0.008634009135078969,1.597
0.008614558967192371,1.598
0.008594549372993797,1.599
0.008573894323330007,1.6
0.00855250568289339,1.601
0.00853029773018682,1.602
0.008507193026877365,1.603
0.008483127491180536,1.604
0.008458053502401666,1.605
0.008431940335065339,1.606
0.008404771554556406,1.607
0.008376539502846178,1.608
0.008347238675485362,1.609
0.008316862259638153,1.61
0.008285404417047075,1.611
0.008252865440782018,1.612
0.008219255469468926,1.613
0.008184595205946053,1.614
0.008148913908422878,1.615
0.008112245390693896,1.616
0.008074623346597136,1.617
0.008036078125064336,1.618
0.007996636529746502,1.619
0.007956323865208498,1.62
0.007915166137914553,1.621
0.007873191190651725,1.622
0.00783042866216239,1.623
0.007786909085991956,1.624
0.007742662566330476,1.625
0.0076977174388013995,1.626
0.00765209912502623,1.627
0.007605829099836386,1.628
0.007558923894534707,1.629
0.007511394735554255,1.63
0.007463248886667772,1.631
0.0074144929512569725,1.632
0.007365137218707413,1.633
0.007315199811021777,1.634
0.007264709583979162,1.635
0.007213707016435439,1.636
0.007162242754554691,1.637
0.0071103740369178195,1.638
0.0070581600270302955,1.639
0.007005658139839927,1.64
0.0069529233049034755,1.641
0.006900009911337305,1.642
0.006846974499082557,1.643
0.006793877901392105,1.644
0.00674078666856695,1.645
0.006687773820290523,1.646
0.006634918834281212,1.647
0.006582306765984451,1.648
0.006530026516403464,1.649
0.006478168425422262,1.65
0.006426821590580273,1.651
0.006376071772377338,1.652
0.006326000909129482,1.653
0.006276688275709047,1.654
0.0062282121295477565,1.655
0.006180650759122613,1.656
0.006134082599533575,1.657
0.006088585509271625,1.658
0.00604423547947391,1.659
0.00600110516131775,1.66
0.005959262691572306,1.661
0.005918771238126661,1.662
0.005879689238065642,1.663
0.005842070860556731,1.664
0.005805966330688299,1.665
0.005771422059298437,1.666
0.005738480594602678,1.667
0.005707180361233733,1.668
0.005677555238509468,1.669
0.005649634288870024,1.67
0.005623441953643796,1.671
0.005598998587488929,1.672
0.005576320895614318,1.673
0.005555421986232125,1.674
0.0055363110161577075,1.675
0.005518992671734126,1.676
0.005503466953741427,1.677
0.005489729513033455,1.678
0.005477772246281863,1.679
0.005467583722948542,1.68
0.005459149231349528,1.681
0.005452450424540314,1.682
0.005447464898282685,1.683
0.005444166384565761,1.684
0.005442525885366607,1.685
0.005442513266325867,1.686
0.005444098553205646,1.687
0.005447252399460342,1.688
0.005451945430175181,1.689
0.005458146727446004,1.69
0.005465822719177906,1.691
0.005474937685722425,1.692
0.0054854554408305225,1.693
0.005497340642785673,1.694
0.005510558722802936,1.695
0.0055250744771274144,1.696
0.005540850418717143,1.697
0.005557846330183926,1.698
0.0055760201466412305,1.699
0.00559532876851902,1.7
0.005615727639145531,1.701
0.00563716938222476,1.702
0.005659602820189065,1.703
0.005682972954080677,1.704
0.005707221103506646,1.705
0.005732284996370972,1.706
0.005758099737294696,1.707
0.0057845996981696485,1.708
0.005811720069910434,1.709
0.005839396939507413,1.71
0.0058675658748856,1.711
0.005896160517218007,1.712
0.005925113154368066,1.713
0.0059543574791519685,1.714
0.005983831863987706,1.715
0.006013481644163839,1.716
0.006043259935369691,1.717
0.006073127075559258,1.718
0.006103048997241802,1.719
0.0061329949075736275,1.72
0.006162934583869942,1.721
0.0061928357697186125,1.722
0.0062226627628639165,1.723
0.006252377087781735,1.724
0.006281939735894619,1.725
0.006311313690956333,1.726
0.006340465930732673,1.727
0.006369368628228257,1.728
0.006397999503966366,1.729
0.006426341442461214,1.73
0.006454381592311853,1.731
0.006482110188716435,1.732
0.0065095192923475525,1.733
0.006536601574478483,1.734
0.0065633492222381615,1.735
0.006589752986470797,1.736
0.006615801326272237,1.737
0.006641479504619393,1.738
0.006666768616566591,1.739
0.006691645166190971,1.74
0.006716082161715303,1.741
0.006740051924094396,1.742
0.0067635298176277,1.743
0.006786497902311426,1.744
0.0068089476995229995,1.745
0.006830881469696251,1.746
0.006852311708763232,1.747
0.006873258967215397,1.748
0.006893748445641458,1.749
0.00691380605337747,1.75
0.006933454974461486,1.751
0.006952714036503123,1.752
0.006971598208122984,1.753
0.006990120075081131,1.754
0.007008291204107246,1.755
0.007026123283406108,1.756
0.007043629273633249,1.757
0.007060824664565415,1.758
0.007077728749125305,1.759
0.007094365653004567,1.76
0.007110764755365474,1.761
0.007126960157094341,1.762
0.0071429890139972025,1.763
0.007158888810083573,1.764
0.00717469435768319,1.765
0.007190436280209882,1.766
0.0072061419917238195,1.767
0.007221838018880733,1.768
0.00723755203482134,1.769
0.007253314050149931,1.77
0.007269156707620374,1.771
0.0072851145593495845,1.772
0.00730122216780991,1.773
0.007317511576711194,1.774
0.007334011114296003,1.775
0.0073507469221021525,1.776
0.0073677458120505026,1.777
0.007385037031981494,1.778
0.007402651847113877,1.779
0.007420621264926975,1.78
0.0074389735476227525,1.781
0.007457733599307446,1.782
0.007476924477583493,1.783
0.007496569182576608,1.784
0.007516691150866846,1.785
0.007537313321478319,1.786
0.007558456344397969,1.787
0.007580136592211321,1.788
0.007602364594185277,1.789
0.007625144292565856,1.79
0.007648472987596072,1.791
0.0076723414122039325,1.792
0.007696733603650647,1.793
0.00772162682584302,1.794
0.007746992006785215,1.795
0.007772794796374056,1.796
0.007798996941998841,1.797
0.007825557598056648,1.798
0.007852434239980093,1.799
0.00787958288773375,1.8
0.007906957421051143,1.801
0.007934508124191683,1.802
0.007962180445638529,1.803
0.007989915391446454,1.804
0.008017651869700559,1.805
0.008045329854689913,1.806
0.008072893098932535,1.807
0.00810029070167135,1.808
0.008127477190848971,1.809
0.008154410992829762,1.81
0.008181051424589815,1.811
0.008207355178133632,1.812
0.008233274508458224,1.813
0.008258758432529944,1.814
0.008283755388528886,1.815
0.008308215009975408,1.816
0.00833208804633942,1.817
0.008355324489071336,1.818
0.008377871055548795,1.819
0.008399670444622065,1.82
0.008420663671992916,1.821
0.008440793861219237,1.822
0.00846000897481538,1.823
0.008478262133134554,1.824
0.008495509231745033,1.825
0.008511705393337982,1.826
0.008526804066731616,1.827
0.008540761033946733,1.828
0.00855354093720728,1.829
0.00856512253571443,1.83
0.008575500891913118,1.831
0.008584686226576651,1.832
0.008592699918152915,1.833
0.008599568638661403,1.834
0.008605318436629025,1.835
0.008609971610151625,1.836
0.00861354781816613,1.837
0.008616067597302032,1.838
0.008617555838425366,1.839
0.008618044479572264,1.84
0.008617574432265606,1.841
0.008616196585467634,1.842
0.008613971550718942,1.843
0.00861096778304323,1.844
0.008607257905198173,1.845
0.008602914144290505,1.846
0.008598005587733404,1.847
0.008592599203572263,1.848
0.008586762888608903,1.849
0.008580567253679434,1.85
0.008574084559709219,1.851
0.008567385635354577,1.852
0.008560537677823546,1.853
0.008553605043895539,1.854
0.008546651484337356,1.855
0.0085397408429837,1.856
0.008532935427056224,1.857
0.008526294007123552,1.858
0.008519871955051366,1.859
0.008513723594782556,1.86
0.008507904554503265,1.861
0.008502472449226375,1.862
0.008497485839786604,1.863
0.00849300220657447,1.864
0.008489075799772454,1.865
0.008485756048088886,1.866
0.008483086842806284,1.867
0.008481106613692217,1.868
0.008479848806748194,1.869
0.008479342244131919,1.87
0.008479610929074899,1.871
0.008480673226440418,1.872
0.00848254099158961,1.873
0.00848521949122695,1.874
0.008488708264150165,1.875
0.008493002269147938,1.876
0.008498092748548918,1.877
0.008503967681097154,1.878
0.008510611844888636,1.879
0.008518006480110935,1.88
0.008526128521114543,1.881
0.008534949463011844,1.882
0.008544434309344725,1.883
0.008554541338556664,1.884
0.00856522283130621,1.885
0.008576425908607166,1.886
0.008588092547075614,1.887
0.008600158971115835,1.888
0.008612556040158034,1.889
0.008625211944828072,1.89
0.008638056479841671,1.891
0.008651025069512635,1.892
0.008664061141230183,1.893
0.008677116030289134,1.894
0.008690146169108355,1.895
0.008703108617143799,1.896
0.008715957892770252,1.897
0.008728646618644802,1.898
0.00874112895416996,1.899
0.0087533638443926,1.9
0.008765316527485736,1.901
0.00877695847026822,1.902
0.00878826650450975,1.903
0.008799221917905026,1.904
0.008809809917842226,1.905
0.008820019419263213,1.906
0.008829842722930102,1.907
0.008839274485977709,1.908
0.008848309469534268,1.909
0.008856939558124192,1.91
0.008865152465377071,1.911
0.008872934217076455,1.912
0.008880274320682903,1.913
0.008887170949240663,1.914
0.008893634446837433,1.915
0.008899688371627128,1.916
0.008905367717535391,1.917
0.008910714455826184,1.918
0.008915771825275837,1.919
0.00892058072622779,1.92
0.008925180649243684,1.921
0.008929613443616393,1.922
0.008933926487192064,1.923
0.008938173662602958,1.924
0.008942414250981048,1.925
0.00894671034415977,1.926
0.008951123436038277,1.927
0.00895571105719398,1.928
0.008960524763364753,1.929
0.008965610257389213,1.93
0.008971008830658725,1.931
0.008976758730710844,1.932
0.008982895815943175,1.933
0.00898945346349743,1.934
0.008996461818760064,1.935
0.009003946496380017,1.936
0.00901192704859954,1.937
0.009020415938190635,1.938
0.009029418594592288,1.939
0.009038934136039586,1.94
0.00904895575782906,1.941
0.009059470345979632,1.942
0.0090704579864653,1.943
0.009081892512926447,1.944
0.009093743295661249,1.945
0.009105977251624873,1.946
0.009118559945816817,1.947
0.009131455213274626,1.948
0.00914462346766084,1.949
0.009158020082757826,1.95
0.009171595776177828,1.951
0.009185299315399366,1.952
0.00919908089487004,1.953
0.009212894515633119,1.954
0.009226698716353043,1.955
0.009240455623720794,1.956
0.009254128589156571,1.957
0.009267678946939825,1.958
0.009281062926532203,1.959
0.009294230117806153,1.96
0.00930712385818499,1.961
0.009319682317677682,1.962
0.009331839179075084,1.963
0.009343524019696318,1.964
0.009354663051963323,1.965
0.009365180795089804,1.966
0.009375002920135886,1.967
0.00938406000472304,1.968
0.009392291400036492,1.969
0.009399648056964232,1.97
0.009406093158276814,1.971
0.009411599796566255,1.972
0.00941614601634358,1.973
0.009419709899490564,1.974
0.009422268921553595,1.975
0.009423804834442684,1.976
0.009424310732600073,1.977
0.009423796593411107,1.978
0.009422291961280825,1.979
0.00941984579061958,1.98
0.009416523870573902,1.981
0.00941240447102709,1.982
0.009407572885357878,1.983
0.009402115687411632,1.984
0.009396116268803966,1.985
0.009389653614800436,1.986
0.00938280449210758,1.987
0.00937564691625003,1.988
0.009368262882787552,1.989
0.009360739756760623,1.99
0.009353170371050011,1.991
0.00934565202647185,1.992
0.009338284697404293,1.993
0.009331168808683099,1.994
0.009324402950078805,1.995
0.009318081832787978,1.996
0.009312294681348731,1.997
0.00930712412200178,1.998
0.009302645512238602,1.999
0.009298926589566261,2.0
0.009296027311895296,2.001
0.00929399979748053,2.002
0.00929288830631199,2.003
0.009292729201084189,2.004
0.009293550787977228,2.005
0.009295373050051433,2.006
0.009298207637298874,2.007
0.009302058522540402,2.008
0.009306923239406092,2.009
0.009312794287150242,2.01
0.009319660366304444,2.011
0.009327507227482192,2.012
0.009336317992914575,2.013
0.0093460729094971,2.014
0.009356748590957996,2.015
0.00936831688987499,2.016
0.009380743604440436,2.017
0.009393987262088493,2.018
0.009407998214306667,2.019
0.009422718214259426,2.02
0.009438080542900023,2.021
0.00945401062160335,2.022
0.009470426918663495,2.023
0.009487241848771975,2.024
0.009504362322360531,2.025
0.009521689666711559,2.026
0.009539118856430499,2.027
0.009556537502251857,2.028
0.00957382555345526,2.029
0.009590856240405995,2.03
0.009607497776150546,2.031
0.009623615192029162,2.032
0.009639072243672756,2.033
0.009653733607100179,2.034
0.009667467502737809,2.035
0.009680148608532085,2.036
0.009691660726607966,2.037
0.009701898319054882,2.038
0.009710765903076074,2.039
0.009718174496685494,2.04
0.009724036274859515,2.041
0.009728262267061001,2.042
0.009730767031854383,2.043
0.00973147785246936,2.044
0.009730343135334142,2.045
0.00972733704068743,2.046
0.009722459539190072,2.047
0.009715732156062872,2.048
0.009707190530214056,2.049
0.009696875795267271,2.05
0.009684827907964997,2.051
0.009671083619908804,2.052
0.009655678513121506,2.053
0.009638649973942176,2.054
0.009620039044196615,2.055
0.009599891093095864,2.056
0.009578255838423127,2.057
0.009555187089970248,2.058
0.009530742393639574,2.059
0.009504982598875203,2.06
0.009477971289655286,2.061
0.009449774005962757,2.062
0.00942045721193419,2.063
0.009390087004350012,2.064
0.009358727571375843,2.065
0.009326439398347057,2.066
0.009293277397762232,2.067
0.009259289708396325,2.068
0.00922451807350583,2.069
0.009188999785585612,2.07
0.009152770294473256,2.071
0.009115865685263111,2.072
0.00907832465954871,2.073
0.009040189818366415,2.074
0.009001508115699282,2.075
0.008962330448378212,2.076
0.00892271043554137,2.077
0.008882702486719402,2.078
0.008842359267734896,2.079
0.0088017290541405,2.08
0.008760854266186438,2.081
0.00871977213806551,2.082
0.008678516724867705,2.083
0.00863712070532751,2.084
0.00859561622714619,2.085
0.00855403477850853,2.086
0.008512406333172283,2.087
0.008470758122716504,2.088
0.008429113406672083,2.089
0.008387490557811711,2.09
0.008345902680401494,2.091
0.008304357850100247,2.092
0.008262859912206011,2.093
0.008221409613372907,2.094
0.00818000570834082,2.095
0.008138645629396667,2.096
0.008097325356823028,2.097
0.008056038255858844,2.098
0.008014773333075924,2.099
0.00797351464952793,2.1
0.00793224335432779,2.101
0.007890941607849637,2.102
0.007849596631159098,2.103
0.007808203779858779,2.104
0.007766768073369351,2.105
0.007725303826461015,2.106
0.0076838323249771474,2.107
0.007642377867408629,2.108
0.007600963499218126,2.109
0.007559608977595616,2.11
0.007518332196098414,2.111
0.0074771521838328135,2.112
0.007436091291144324,2.113
0.007395175922892849,2.114
0.007354436157088059,2.115
0.007313904729417063,2.116
0.007273615851319156,2.117
0.00723360418966184,2.118
0.007193904124565871,2.119
0.007154549183817433,2.12
0.007115571392942436,2.121
0.007077000233076171,2.122
0.007038861278518573,2.123
0.007001175464045783,2.124
0.006963960021329864,2.125
0.006927230842152961,2.126
0.0068910051065840675,2.127
0.006855303278032356,2.128
0.006820150019613893,2.129
0.006785573810946421,2.13
0.006751605266500537,2.131
0.006718274528147544,2.132
0.006685608802739729,2.133
0.006653631486425332,2.134
0.006622363155362634,2.135
0.0065918230917866895,2.136
0.006562030052203816,2.137
0.0065330020080279026,2.138
0.006504755141426803,2.139
0.006477302540372066,2.14
0.006450653087627402,2.141
0.006424810932771917,2.142
0.006399775686516562,2.143
0.006375543169052566,2.144
0.00635210630011718,2.145
0.006329455624616014,2.146
0.0063075790367723575,2.147
0.006286460852450034,2.148
0.006266081494295773,2.149
0.0062464190030433655,2.15
0.006227451904359998,2.151
0.006209161982404284,2.152
0.006191535955834268,2.153
0.006174565629675511,2.154
0.006158246467917666,2.155
0.00614257493488989,2.156
0.006127545712011718,2.157
0.006113150588973016,2.158
0.006099379774385694,2.159
0.006086224298289154,2.16
0.006073677871884547,2.161
0.006061737637696583,2.162
0.006050403813724371,2.163
0.006039678346442062,2.164
0.006029562785820176,2.165
0.00602005602162168,2.166
0.0060111531649493085,2.167
0.006002846246297351,2.168
0.005995125742761673,2.169
0.005987981600605123,2.17
0.005981403318647532,2.171
0.005975379208152518,2.172
0.005969895077762226,2.173
0.005964932834273423,2.174
0.005960469783904369,2.175
0.005956479004790478,2.176
0.005952930240678121,2.177
0.005949790639551064,2.178
0.00594702521319683,2.179
0.005944597196195419,2.18
0.005942468482445143,2.181
0.0059406002002082665,2.182
0.005938953298544816,2.183
0.0059374888606356264,2.184
0.005936167825101427,2.185
0.005934949901928094,2.186
0.005933792026503369,2.187
0.005932647672042296,2.188
0.005931468167649542,2.189
0.0059302055658395445,2.19
0.0059288158087178215,2.191
0.005927261399225776,2.192
0.005925513142775901,2.193
0.005923550600954887,2.194
0.005921361028228497,2.195
0.005918936770738061,2.196
0.005916271736793682,2.197
0.005913358774781273,2.198
0.005910189894872528,2.199
0.0059067590821500985,2.2
0.005903065585776586,2.201
0.00589911602921027,2.202
0.005894924870537644,2.203
0.005890513310497791,2.204
0.0058859069771097046,2.205
0.005881132858333428,2.206
0.005876216272099567,2.207
0.0058711791022799005,2.208
0.005866039899378273,2.209
0.005860814929137518,2.21
0.005855518925087334,2.211
0.005850165179430425,2.212
0.005844765185777907,2.213
0.005839328134344742,2.214
0.0058338605130709865,2.215
0.005828365964131367,2.216
0.0058228454216704,2.217
0.005817297442962581,2.218
0.005811718558632092,2.219
0.005806103420811887,2.22
0.005800444537578869,2.221
0.00579473150300261,2.222
0.005788950063006184,2.223
0.00578308184986726,2.224
0.00577710520837447,2.225
0.005770996486773422,2.226
0.005764730929274304,2.227
0.005758282844126226,2.228
0.0057516251225682245,2.229
0.00574472836408239,2.23
0.005737559959850239,2.231
0.005730083485799464,2.232
0.005722258679969648,2.233
0.005714042146320091,2.234
0.0057053887427524486,2.235
0.005696253383254263,2.236
0.005686592756750168,2.237
0.005676366327640636,2.238
0.005665536026586969,2.239
0.005654064550343413,2.24
0.005641913555633963,2.241
0.005629044035895362,2.242
0.0056154196994491,2.243
0.005601011665310323,2.244
0.005585802345627997,2.245
0.0055697874078026845,2.246
0.005552975423543194,2.247
0.005535385257972547,2.248
0.005517041704469253,2.249
0.005497970761477525,2.25
0.005478197038484584,2.251
0.005457744595330816,2.252
0.005436639540447338,2.253
0.0054149120978417625,2.254
0.005392597428486954,2.255
0.005369735375557549,2.256
0.005346369398140174,2.257
0.005322544982031117,2.258
0.0052983078213903875,2.259
0.005273702050865754,2.26
0.005248768757205583,2.261
0.005223544918275979,2.262
0.0051980628323719524,2.263
0.005172350001174664,2.264
0.005146429350344749,2.265
0.005120319697379863,2.266
0.005094036439507334,2.267
0.005067592402825628,2.268
0.005040998693811812,2.269
0.005014265324131105,2.27
0.00498740138248579,2.271
0.004960414600725669,2.272
0.004933310425268632,2.273
0.0049060912538990385,2.274
0.004878756691684496,2.275
0.004851304910530283,2.276
0.004823734355608824,2.277
0.0047960450756481,2.278
0.004768239377868807,2.279
0.004740321745011688,2.28
0.004712298068694284,2.281
0.004684174337380319,2.282
0.00465595506944458,2.283
0.004627642148081654,2.284
0.004599234832331151,2.285
0.004570731038087274,2.286
0.00454212923256249,2.287
0.004513430311719152,2.288
0.004484639153376694,2.289
0.004455765613380645,2.29
0.004426824717416742,2.291
0.004397835873113838,2.292
0.004368821087898328,2.293
0.0043398026334258545,2.294
0.004310801355735546,2.295
0.004281836715425397,2.296
0.004252928173411578,2.297
0.004224096576230947,2.298
0.004195364716015688,2.299
0.004166757025672654,2.3
0.004138298672882977,2.301
0.004110014361254367,2.302
0.00408192710195958,2.303
0.004054057178524463,2.304
0.004026421529368572,2.305
0.003999033620417049,2.306
0.003971903579947004,2.307
0.003945038296564014,2.308
0.00391844136523769,2.309
0.003892112947650907,2.31
0.003866049764825958,2.311
0.003840245460635137,2.312
0.0038146913648195654,2.313
0.003789377474046903,2.314
0.00376429339170793,2.315
0.0037394289300592474,2.316
0.0037147740850086487,2.317
0.003690318304025597,2.318
0.0036660496090188863,2.319
0.0036419546926811557,2.32
0.003618020454413378,2.321
0.0035942361636213567,2.322
0.0035705951829898353,2.323
0.0035470957558970196,2.324
0.003523740773333094,2.325
0.0035005366372538376,2.326
0.0034774914800090873,2.327
0.0034546132128736844,2.328
0.0034319082064791927,2.329
0.0034093812046943547,2.33
0.0033870361497274925,2.331
0.003364877088583629,2.332
0.00334290870310041,2.333
0.003321136457285246,2.334
0.0032995664951961374,2.335
0.003278205431077986,2.336
0.0032570601502533926,2.337
0.003236137696061514,2.338
0.003215445265136502,2.339
0.003194990275396915,2.34
0.003174780418273987,2.341
0.003154823580581443,2.342
0.0031351275423317226,2.343
0.0031156994241469953,2.344
0.003096544948865195,2.345
0.0030776677292941867,2.346
0.003059068925257321,2.347
0.003040747416921082,2.348
0.0030227002629144013,2.349
0.0030049231905302357,2.35
0.0029874110828489934,2.351
0.002970158490041253,2.352
0.002953160141425205,2.353
0.0029364113974632193,2.354
0.0029199085744802313,2.355
0.002903649100529611,2.356
0.0028876315044783184,2.357
0.0028718552766460064,2.358
0.0028563206428880725,2.359
0.0028410282604647706,2.36
0.002825978798622777,2.361
0.002811172346007789,2.362
0.002796607702190839,2.363
0.0027822819021263686,2.364
0.002768190373208996,2.365
0.0027543276719784143,2.366
0.00274068837219149,2.367
0.0027272677759520147,2.368
0.0027140623401085725,2.369
0.0027010698027564264,2.37
0.002688289037716109,2.371
0.0026757197066057782,2.372
0.002663361804185712,2.373
0.0026512151907597883,2.374
0.002639279175313156,2.375
0.002627552167830108,2.376
0.0026160313790016087,2.377
0.002604712525719958,2.378
0.0025935895161803245,2.379
0.0025826541852716697,2.38
0.002571896275800422,2.381
0.002561303794557905,2.382
0.0025508636572731534,2.383
0.0025405624695887703,2.384
0.0025303873480379564,2.385
0.0025203266839078694,2.386
0.0025103707189923666,2.387
0.0025005118030639586,2.388
0.0024907442426653666,2.389
0.0024810637113610026,2.39
0.002471466258138296,2.391
0.0024619472173494374,2.392
0.002452500741663805,2.393
0.0024431203914244697,2.394
0.002433800272468205,2.395
0.0024245359391491957,2.396
0.002415324713077411,2.397
0.0024061653719077655,2.398
0.002397057284199937,2.399
0.0023879993105869616,2.4
0.002378989117079803,2.401
0.0023700233029349304,2.402
0.0023610979344597725,2.403
0.002352208785279067,2.404
0.0023433510357368393,2.405
0.0023345187749313745,2.406
0.0023257049593764794,2.407
0.002316902095738784,2.408
0.002308103212853534,2.409
0.002299302577585394,2.41
0.002290495948203212,2.411
0.0022816803704094986,2.412
0.0022728535789801117,2.413
0.0022640131420995535,2.414
0.002255155727314731,2.415
0.0022462770570679607,2.416
0.002237372731068237,2.417
0.0022284394542874393,2.418
0.002219476118449619,2.419
0.002210484476459108,2.42
0.002201469328249527,2.421
0.002192438211175722,2.422
0.002183400645953762,2.423
0.0021743670275580053,2.424
0.0021653474371356534,2.425
0.0021563509759201676,2.426
0.0021473860043805,2.427
0.002138460895972277,2.428
0.002129584665809951,2.429
0.0021207672225453653,2.43
0.0021120192769634853,2.431
0.0021033519942168163,2.432
0.002094776470011087,2.433
0.00208630310395987,2.434
0.002077941024688897,2.435
0.002069697831265151,2.436
0.002061579742227946,2.437
0.002053591891700641,2.438
0.0020457384733129982,2.439
0.0020380226395295864,2.44
0.0020304462376052996,2.441
0.002023009636090052,2.442
0.00201571189892334,2.443
0.0020085512735870496,2.444
0.002001525739281844,2.445
0.0019946334125365795,2.446
0.001987872722270891,2.447
0.00198124232174937,2.448
0.001974740732079724,2.449
0.0019683658062491223,2.45
0.001962114335027746,2.451
0.0019559821802328267,2.452
0.0019499649402183253,2.453
0.0019440587724750685,2.454
0.0019382610406177866,2.455
0.0019325706621031193,2.456
0.0019269881467256517,2.457
0.0019215153711317067,2.458
0.001916155168902798,2.459
0.0019109108178756542,2.46
0.0019057854784628458,2.461
0.0019007816178033953,2.462
0.0018959005402218673,2.463
0.0018911422641343088,2.464
0.0018865058391891933,2.465
0.0018819898850896551,2.466
0.0018775930897079504,2.467
0.0018733145717765324,2.468
0.0018691541072747566,2.469
0.0018651122377973174,2.47
0.0018611902826832756,2.471
0.001857390267884808,2.472
0.0018537147721304282,2.473
0.0018501666807239942,2.474
0.0018467488351053937,2.475
0.001843463581130426,2.476
0.0018403122797337344,2.477
0.0018372949346440763,2.478
0.0018344100522292527,2.479
0.0018316546436181022,2.48
0.0018290241922720258,2.481
0.001826512559372496,2.482
0.00182411195283966,2.483
0.0018218130932773104,2.484
0.0018196056201675397,2.485
0.0018174786717267337,2.486
0.00181542150059438,2.487
0.0018134239872221569,2.488
0.0018114769740503593,2.489
0.001809572423521131,2.49
0.0018077034524323842,2.491
0.0018058642877614125,2.492
0.0018040501351047314,2.493
0.0018022568906382003,2.494
0.0018004806082240353,2.495
0.0017987168263735528,2.496
0.0017969602474505254,2.497
0.0017952051677737491,2.498
0.0017934463857942184,2.499
0.001791680030052834,2.5
0.0017899040258465449,2.501
0.0017881181683613353,2.502
0.00178632387788139,2.503
0.0017845237781859936,2.504
0.0017827212510235797,2.505
0.0017809200764142563,2.506
0.0017791241896724735,2.507
0.001777337502024034,2.508
0.0017755636752948402,2.509
0.0017738057697939673,2.51
0.001772065892659772,2.511
0.001770345200233509,2.512
0.0017686444230723636,2.513
0.0017669646373025404,2.514
0.0017653079003742975,2.515
0.0017636775665813647,2.516
0.0017620782447103594,2.517
0.0017605154348329522,2.518
0.001758994935968394,2.519
0.0017575221503207162,2.52
0.0017561014685772778,2.521
0.0017547359443359522,2.522
0.0017534272634180212,2.523
0.0017521757677353214,2.524
0.001750980414121622,2.525
0.0017498388316875217,2.526
0.00174874760888733,2.527
0.0017477027137005434,2.528
0.0017466998966798864,2.529
0.0017457350170118197,2.53
0.001744804279564904,2.531
0.0017439043667414895,2.532
0.0017430324359923035,2.533
0.0017421859443839136,2.534
0.0017413622640346977,2.535
0.0017405581666731145,2.536
0.0017397695224401247,2.537
0.0017389915738912423,2.538
0.001738219706097886,2.539
0.0017374503080371494,2.54
0.0017366814228591176,2.541
0.0017359130912425183,2.542
0.0017351474126152107,2.543
0.0017343884129818693,2.544
0.0017336418187986588,2.545
0.0017329147968951966,2.546
0.0017322156622832108,2.547
0.0017315535172608492,2.548
0.0017309377866465893,2.549
0.0017303776456839147,2.55
