VaMe,time
-0.003064056573887142,0.001
-0.0028443493932859814,0.002
-0.00262491288670815,0.003
-0.0024059236716826994,0.004
-0.0021875507234941256,0.005
-0.0019699530350719458,0.006
-0.0017532774787235787,0.007
-0.0015376570820230878,0.008
-0.0013232098253964202,0.009
-0.0011100380393759346,0.01
-0.0008982284604446939,0.011
-0.0006878529884584614,0.012
-0.00047897014885915406,0.013
-0.0002716271859726221,0.014
-6.586261678479891e-05,0.015
0.00013829100559177313,0.016
0.0003408045191860568,0.017
0.0005416503997110087,0.018
0.0007408022199286145,0.019
0.0009382348927236682,0.02
0.0011339248481312297,0.021
0.0013278496562187793,0.022
0.0015199872323799508,0.023
0.001710315320579653,0.024
0.001898811801966187,0.025
0.0020854554835238715,0.026
0.0022702266123565966,0.027
0.002453106712352187,0.028
0.002634077740886413,0.029
0.002813121021272117,0.03
0.0029902168532933435,0.031
0.0031653452941509458,0.032
0.0033384875958764946,0.033
0.003509627508661988,0.034
0.003678752053366232,0.035
0.003845851632174958,0.036
0.00401091948327894,0.037
0.0041739506437253136,0.038
0.004334940704947821,0.039
0.004493884685235517,0.04
0.004650776297800684,0.041
0.004805607786435812,0.042
0.004958370364304283,0.043
0.005109055145800029,0.044
0.005257654317539521,0.045
0.005404162176598513,0.046
0.005548575624998604,0.047
0.005690893801722018,0.048
0.005831116751113864,0.049
0.0059692433889633485,0.05
0.006105269609407902,0.051
0.006239187620684759,0.052
0.006370986689566984,0.053
0.006500654322505126,0.054
0.006628176970548318,0.055
0.006753540059018068,0.056
0.006876727510830999,0.057
0.006997721055424664,0.058
0.007116499707224513,0.059
0.007233039813807815,0.06
0.007347315967522887,0.061
0.007459302835900021,0.062
0.007568977648536456,0.063
0.007676322785760953,0.064
0.007781327757390384,0.065
0.007883989901135117,0.066
0.007984313358922879,0.067
0.008082306228345538,0.068
0.008177976642879461,0.069
0.008271330049723587,0.07
0.008362369915072826,0.071
0.008451101405710986,0.072
0.008537535643303513,0.073
0.008621692813192429,0.074
0.0087036036639958,0.075
0.008783309482675366,0.076
0.008860860818700743,0.077
0.008936315255390015,0.078
0.009009734417623405,0.079
0.009081180277238678,0.08
0.009150711439253457,0.081
0.009218381474171387,0.082
0.00928424072304976,0.083
0.009348340158853285,0.084
0.009410734901014703,0.085
0.009471486172954773,0.086
0.009530661300675402,0.087
0.009588331633768418,0.088
0.009644568813195399,0.089
0.009699441034015998,0.09
0.009753011752320776,0.091
0.00980534140058477,0.092
0.009856489812510683,0.093
0.009906516983418018,0.094
0.00995548156526904,0.095
0.0100034380460049,0.096
0.010050434839931201,0.097
0.010096514786196241,0.098
0.010141716763708035,0.099
0.010186076048849638,0.1
0.010229622933121704,0.101
0.010272381621336094,0.102
0.010314371463025789,0.103
0.010355609843120641,0.104
0.010396114350486636,0.105
0.010435902676534317,0.106
0.010474990342783614,0.107
0.010513388293515795,0.108
0.01055110318830029,0.109
0.010588140898320973,0.11
0.01062451083688365,0.111
0.010660228766472584,0.112
0.010695317248290235,0.113
0.0107298037473211,0.114
0.010763716730844263,0.115
0.010797081153074265,0.116
0.010829916380582743,0.117
0.010862238435473896,0.118
0.010894064606592334,0.119
0.010925417351979008,0.12
0.0109563261157501,0.121
0.010986826764612817,0.122
0.011016958678041764,0.123
0.011046760321637223,0.124
0.011076265689702347,0.125
0.011105504226157461,0.126
0.011134504001157872,0.127
0.01116329526844848,0.128
0.011191912044969088,0.129
0.011220391119786373,0.13
0.01124876888364907,0.131
0.011277077285131129,0.132
0.011305341316492893,0.133
0.011333579537464994,0.134
0.011361806403845584,0.135
0.01139003428919245,0.136
0.011418274423020302,0.137
0.011446536955814128,0.138
0.011474830531476363,0.139
0.011503161684266685,0.14
0.011531534216613081,0.141
0.01155994852357357,0.142
0.011588400683442296,0.143
0.011616881072638004,0.144
0.01164537262378161,0.145
0.011673849831052407,0.146
0.011702279868078886,0.147
0.01173062576956856,0.148
0.011758850301988012,0.149
0.011786919196601211,0.15
0.011814802926368044,0.151
0.011842476566984474,0.152
0.011869917678087432,0.153
0.011897102589436116,0.154
0.01192400222465438,0.155
0.011950579419325319,0.156
0.011976788744452764,0.157
0.012002577401731215,0.158
0.012027885168645492,0.159
0.012052643360653535,0.16
0.01207677464727962,0.161
0.012100194800767346,0.162
0.012122815005621904,0.163
0.012144542516593554,0.164
0.012165279277393583,0.165
0.012184921192955877,0.166
0.012203361405921877,0.167
0.012220497409232273,0.168
0.012236238749740318,0.169
0.012250512413614212,0.17
0.012263264385382477,0.171
0.012274456823158359,0.172
0.012284061214569517,0.173
0.01229205036553737,0.174
0.01229839522856458,0.175
0.012303069874547481,0.176
0.012306060529677323,0.177
0.01230737272274466,0.178
0.012307034093352246,0.179
0.012305092762933333,0.18
0.012301611983024733,0.181
0.012296662289564188,0.182
0.012290313446632827,0.183
0.012282630027541791,0.184
0.012273672773893856,0.185
0.012263503198736602,0.186
0.012252187599874089,0.187
0.012239798914882258,0.188
0.012226416324387031,0.189
0.0122121228283292,0.19
0.012197001249949121,0.191
0.01218112973228366,0.192
0.01216457869009022,0.193
0.012147410478222041,0.194
0.012129680556453063,0.195
0.012111437870101148,0.196
0.012092723803010899,0.197
0.012073571358344769,0.198
0.01205400650795263,0.199
0.012034051491625395,0.2
0.012013728178846618,0.201
0.01199305996155001,0.202
0.011972071511718564,0.203
0.011950786245698123,0.204
0.011929222622438578,0.205
0.011907392502512605,0.206
0.011885303883316743,0.207
0.011862966260244653,0.208
0.0118403954103824,0.209
0.011817616103230035,0.21
0.01179466251017794,0.211
0.011771576538767632,0.212
0.011748404619862013,0.213
0.011725193549151733,0.214
0.011701986176496836,0.215
0.011678818456145598,0.216
0.011655719445187823,0.217
0.011632714086984103,0.218
0.011609826918414907,0.219
0.011587085025833482,0.22
0.011564519482456036,0.221
0.011542164988125264,0.222
0.011520057739107881,0.223
0.011498231912453565,0.224
0.011476716071472562,0.225
0.011455531919771006,0.226
0.011434696662152615,0.227
0.011414227311165124,0.228
0.011394144480164375,0.229
0.011374474373304286,0.23
0.011355248400290117,0.231
0.011336500150991783,0.232
0.011318260888353282,0.233
0.011300557187371111,0.234
0.01128341357791175,0.235
0.011266858421739625,0.236
0.01125092913991853,0.237
0.011235674621622742,0.238
0.011221154290848658,0.239
0.011207434066108943,0.24
0.011194580560990226,0.241
0.011182656534762874,0.242
0.011171720301249983,0.243
0.011161828275571798,0.244
0.011153037295944176,0.245
0.0111454045049741,0.246
0.011138984820016252,0.247
0.01113382775058642,0.248
0.011129976149423437,0.249
0.011127467712553537,0.25
0.011126337216884956,0.251
0.011126617310510676,0.252
0.011128337321620616,0.253
0.01113152088832345,0.254
0.011136184353426698,0.255
0.011142337644960719,0.256
0.011149987278242459,0.257
0.011159139862866298,0.258
0.011169805052829457,0.259
0.011181997518191787,0.26
0.011195737621040034,0.261
0.011211050511871525,0.262
0.011227963508894928,0.263
0.011246502205758131,0.264
0.011266687162345614,0.265
0.011288533685394024,0.266
0.011312055027716901,0.267
0.011337266620649367,0.268
0.011364189002384513,0.269
0.011392848628456362,0.27
0.011423276614002345,0.271
0.011455505812656945,0.272
0.01148956686558809,0.273
0.011525484311744156,0.274
0.011563274481395526,0.275
0.011602946045867195,0.276
0.011644502022081575,0.277
0.011687941548926854,0.278
0.011733260802199458,0.279
0.01178045303338616,0.28
0.011829507800078602,0.281
0.011880409469612455,0.282
0.011933135248145906,0.283
0.011987653591169874,0.284
0.012043924151268695,0.285
0.012101899354043799,0.286
0.012161526324979062,0.287
0.01222274785064169,0.288
0.01228550180603124,0.289
0.012349719338614682,0.29
0.012415323342452652,0.291
0.012482229101151878,0.292
0.012550347204212435,0.293
0.01261958701806121,0.294
0.012689859038340252,0.295
0.012761075267167344,0.296
0.012833147257854427,0.297
0.012905982530520558,0.298
0.01297948213372264,0.299
0.013053542287699591,0.3
0.01312805979188457,0.301
0.013202938355292156,0.302
0.013278093540444713,0.303
0.013353455173454676,0.304
0.013428966562424757,0.305
0.013504580266293285,0.306
0.013580251402641635,0.307
0.013655932123308921,0.308
0.013731571727294308,0.309
0.013807122708489675,0.31
0.013882548497590142,0.311
0.013957828903947209,0.312
0.0140329616103154,0.313
0.014107959304929424,0.314
0.014182842718328443,0.315
0.01425763205723404,0.316
0.014332342560414381,0.317
0.014406987558913393,0.318
0.014481585109941,0.319
0.014556162344460773,0.32
0.014630755295309005,0.321
0.014705404392680971,0.322
0.014780147766961453,0.323
0.014855017278891153,0.324
0.01493004069536452,0.325
0.015005247514482362,0.326
0.015080673744846286,0.327
0.015156363547316318,0.328
0.015232367723746663,0.329
0.015308739604205184,0.33
0.015385529453951713,0.331
0.015462779817180491,0.332
0.015540524702034979,0.333
0.01561879298193262,0.334
0.01569761337050824,0.335
0.01577701844769028,0.336
0.01585704689496604,0.337
0.01593774390767609,0.338
0.01601915998797291,0.339
0.016101348481973584,0.34
0.01618436225139792,0.341
0.016268249781774623,0.342
0.016353051149305964,0.343
0.016438795013802205,0.344
0.0165254981987464,0.345
0.01661316800729721,0.346
0.016701805653557347,0.347
0.016791409223863005,0.348
0.016881975494116987,0.349
0.016973500311411767,0.35
0.017065977352243345,0.351
0.017159395273442117,0.352
0.017253733853706047,0.353
0.017348960772900532,0.354
0.017445030667449374,0.355
0.017541885955675258,0.356
0.017639457129560367,0.357
0.017737661618722794,0.358
0.017836403388837112,0.359
0.01793557545035594,0.36
0.01803506418922276,0.361
0.018134752801132945,0.362
0.018234522136745642,0.363
0.018334248356816206,0.364
0.018433798631820403,0.365
0.018533029130633195,0.366
0.01863178869996307,0.367
0.018729926319542664,0.368
0.018827298028854456,0.369
0.01892377082881837,0.37
0.0190192226089636,0.371
0.01911353780688257,0.372
0.019206600007177936,0.373
0.01929828571425535,0.374
0.01938846437063512,0.375
0.01947700477847642,0.376
0.0195637829725698,0.377
0.019648687178125016,0.378
0.019731618500062813,0.379
0.019812487536632586,0.38
0.01989120766456136,0.381
0.019967686994068465,0.382
0.02004182322587538,0.383
0.020113504964165453,0.384
0.02018261817409661,0.385
0.020249053600473143,0.386
0.020312712450623265,0.387
0.02037350943508546,0.388
0.020431372730945477,0.389
0.020486240604695928,0.39
0.02053805474785074,0.391
0.020586752021550192,0.392
0.020632259441449877,0.393
0.020674496647081972,0.394
0.020713384203108202,0.395
0.020748852640553067,0.396
0.020780848919083748,0.397
0.020809339121627888,0.398
0.02083430696701208,0.399
0.020855748230785887,0.4
0.020873661815388574,0.401
0.020888040452513704,0.402
0.02089886705148426,0.403
0.02090612002878463,0.404
0.0209097836641948,0.405
0.020909857625505235,0.406
0.020906362953450327,0.407
0.020899343592767242,0.408
0.0208888630101771,0.409
0.02087499602979129,0.41
0.020857818113400074,0.411
0.02083739834014523,0.412
0.020813801904603045,0.413
0.020787100334980015,0.414
0.020757382515856897,0.415
0.020724761724058016,0.416
0.0206893772802488,0.417
0.020651390972881375,0.418
0.020610979234721858,0.419
0.020568322593303143,0.42
0.02052359525002729,0.421
0.020476959561509075,0.422
0.020428567847197907,0.423
0.02037856813312514,0.424
0.020327109299772456,0.425
0.020274344255247694,0.426
0.020220431471040932,0.427
0.020165535316649327,0.428
0.02010982554658294,0.429
0.02005347615465224,0.43
0.019996663668872375,0.431
0.019939564858198176,0.432
0.019882353794880903,0.433
0.019825198276423085,0.434
0.019768255731094437,0.435
0.019711669380541034,0.436
0.019655566492722414,0.437
0.019600059828454707,0.438
0.01954525107015165,0.439
0.01949123451781567,0.44
0.019438100469304078,0.441
0.01938593814989105,0.442
0.01933483791401123,0.443
0.019284892396422063,0.444
0.01923619640079546,0.445
0.019188845538113838,0.446
0.019142933849372757,0.447
0.01909855076197718,0.448
0.019055777707678287,0.449
0.01901468462821669,0.45
0.018975326952049332,0.451
0.018937744487214032,0.452
0.018901963231400268,0.453
0.018867999275862635,0.454
0.018835863369007992,0.455
0.018805565308203237,0.456
0.018777117460752814,0.457
0.018750536517944043,0.458
0.018725842640733428,0.459
0.018703055525482862,0.46
0.01868218856904917,0.461
0.018663245234332628,0.462
0.018646221225863655,0.463
0.018631110837055872,0.464
0.018617912745070842,0.465
0.018606632140650094,0.466
0.01859727824963187,0.467
0.018589858315226915,0.468
0.018584372345549497,0.469
0.018580813690035634,0.47
0.018579175466478512,0.471
0.01857945788071567,0.472
0.018581672149678725,0.473
0.01858583968575318,0.474
0.018591986792395595,0.475
0.018600136915209935,0.476
0.018610305380222854,0.477
0.018622500824294633,0.478
0.01863673170141393,0.479
0.01865301276587683,0.48
0.01867136831692254,0.481
0.018691831533172266,0.482
0.018714440291609857,0.483
0.018739230500534984,0.484
0.018766229410814753,0.485
0.018795452819918946,0.486
0.018826907787637084,0.487
0.018860597889928478,0.488
0.018896527306856658,0.489
0.018934702347701577,0.49
0.018975130232086343,0.491
0.019017815220842123,0.492
0.019062753327504095,0.493
0.019109928986649538,0.494
0.019159316667649254,0.495
0.01921088633299846,0.496
0.01926460916036655,0.497
0.019320461140912935,0.498
0.019378423741831352,0.499
0.019438481472252744,0.5
0.019500616611906347,0.501
0.019564802847556018,0.502
0.019631002029753753,0.503
0.01969916705438764,0.504
0.019769248750382537,0.505
0.01984120274979433,0.506
0.01991499438957823,0.507
0.01999060114647978,0.508
0.02006801241151462,0.509
0.020147226615351538,0.51
0.02022824590143131,0.511
0.0203110690356627,0.512
0.020395684967963693,0.513
0.020482071031463992,0.514
0.020570197206071297,0.515
0.020660033220249403,0.516
0.02075155464535564,0.517
0.02084474642214609,0.518
0.020939603471034265,0.519
0.021036128391892773,0.52
0.021134326677050144,0.521
0.021234200249762584,0.522
0.02133574074635283,0.523
0.021438924819465906,0.524
0.02154371314267426,0.525
0.021650052178895093,0.526
0.021757876231134444,0.527
0.02186710826947748,0.528
0.021977659315362934,0.529
0.02208942658197922,0.53
0.022202290901621555,0.531
0.02231611462328713,0.532
0.022430741059336432,0.533
0.022545994995933287,0.534
0.02266168281559164,0.535
0.022777592392773615,0.536
0.022893494956358153,0.537
0.02300915023246844,0.538
0.023124313521206218,0.539
0.02323874217826981,0.54
0.02335219935300206,0.541
0.023464453484867576,0.542
0.023575272914385555,0.543
0.023684417837365752,0.544
0.02379163632926293,0.545
0.023896669469182116,0.546
0.023999262243724066,0.547
0.024099173606327722,0.548
0.02419618225035092,0.549
0.024290087103248984,0.55
0.024380702472238513,0.551
0.024467848657425774,0.552
0.024551340838134417,0.553
0.024630982162056447,0.554
0.024706565681183346,0.555
0.024777883046122214,0.556
0.024844734571303408,0.557
0.02490693774783393,0.558
0.02496433350015602,0.559
0.02501678966546053,0.56
0.025064200887282045,0.561
0.025106484010105214,0.562
0.02514356831837848,0.563
0.02517538294462626,0.564
0.025201849842458456,0.565
0.025222889913139226,0.566
0.02523843913778981,0.567
0.025248465321739834,0.568
0.02525297927377433,0.569
0.025252038237567817,0.57
0.02524574126432475,0.571
0.025234217620078058,0.572
0.0252176104292694,0.573
0.025196060151200482,0.574
0.025169695628616606,0.575
0.025138636493411914,0.576
0.025103001211629464,0.577
0.025062913270878482,0.578
0.025018503266603324,0.579
0.024969907636372485,0.58
0.024917265244804133,0.581
0.024860713190074213,0.582
0.02480038317129281,0.583
0.024736399497289938,0.584
0.02466887933155671,0.585
0.02459793511286757,0.586
0.024523678388022722,0.587
0.0244462237061026,0.588
0.024365690913448992,0.589
0.024282204264751594,0.59
0.02419588725818331,0.591
0.024106854946331784,0.592
0.024015210575569518,0.593
0.023921052144420488,0.594
0.023824485624711317,0.595
0.023725637622897217,0.596
0.02362466335798869,0.597
0.02352174847461702,0.598
0.023417104302565512,0.599
0.02331095723055571,0.6
0.023203535318396782,0.601
0.02309505928344777,0.602
0.02298574370993038,0.603
0.022875805689699987,0.604
0.022765473128442213,0.605
0.022654988074452667,0.606
0.02254460446331721,0.607
0.022434581274358073,0.608
0.022325173378286104,0.609
0.022216624381685993,0.61
0.022109165391333358,0.611
0.022003018801803234,0.612
0.021898402472857646,0.613
0.021795531112859985,0.614
0.02169461459217705,0.615
0.021595854146655734,0.616
0.021499437789906758,0.617
0.021405536481200742,0.618
0.02131430214626776,0.619
0.021225867210923486,0.62
0.021140344588554173,0.621
0.02105782800990414,0.622
0.020978392974621726,0.623
0.020902097668080752,0.624
0.02082898299822952,0.625
0.020759072216174672,0.626
0.020692371828768114,0.627
0.02062887483961774,0.628
0.020568565492190924,0.629
0.020511423986361643,0.63
0.020457430083170795,0.631
0.02040656488265068,0.632
0.020358810323953667,0.633
0.020314146340195165,0.634
0.020272546039534194,0.635
0.020233970390999986,0.636
0.020198365372264757,0.637
0.02016566322261343,0.638
0.020135785832310314,0.639
0.02010864753388893,0.64
0.020084156490053528,0.641
0.020062214970876662,0.642
0.020042718939343947,0.643
0.020025557351050965,0.644
0.020010611470905146,0.645
0.01999775437730813,0.646
0.019986850728687344,0.647
0.01997775680698085,0.648
0.01997032076215046,0.649
0.019964382839183475,0.65
0.019959775262719914,0.651
0.019956321494557158,0.652
0.019953834756408842,0.653
0.01995211588082961,0.654
0.01995095091419939,0.655
0.01995010976639819,0.656
0.019949347544497648,0.657
0.01994840905375442,0.658
0.01994703574274746,0.659
0.019944974250793557,0.66
0.019941985708561916,0.661
0.01993785445937007,0.662
0.019932394394859276,0.663
0.019925451013023354,0.664
0.01991689768457913,0.665
0.019906625435017616,0.666
0.019894529523378984,0.667
0.019880502859263464,0.668
0.019864443560953553,0.669
0.019846270900288256,0.67
0.01982593892686415,0.671
0.019803442589496338,0.672
0.019778815689179368,0.673
0.01975212192631572,0.674
0.019723441770689028,0.675
0.019692858592626726,0.676
0.019660447286720926,0.677
0.0196262675047101,0.678
0.01959036182346283,0.679
0.019552757649056007,0.68
0.01951347093040993,0.681
0.019472509390349543,0.682
0.019429873091139725,0.683
0.019385552227323112,0.684
0.019339526112230297,0.685
0.01929176800953313,0.686
0.01924225535627872,0.687
0.019190981036810217,0.688
0.019137962245654446,0.689
0.019083245346824183,0.69
0.019026906177710832,0.691
0.01896904604971884,0.692
0.018909784380993864,0.693
0.01884924931024479,0.694
0.018787567898262556,0.695
0.018724858348252417,0.696
0.01866122719206033,0.697
0.018596771929262932,0.698
0.018531586181644216,0.699
0.018465764597991482,0.7
0.018399406873188716,0.701
0.01833262091147857,0.702
0.018265524827613372,0.703
0.018198247226844995,0.704
0.018130925213290846,0.705
0.01806369985886761,0.706
0.017996709727821213,0.707
0.017930085019561795,0.708
0.017863945866888973,0.709
0.017798405086446867,0.71
0.01773357148890583,0.711
0.017669550169345613,0.712
0.017606439574371174,0.713
0.01754432831199819,0.714
0.01748329555394848,0.715
0.017423415722254223,0.716
0.01736476440968671,0.717
0.0173074224641256,0.718
0.017251477047300293,0.719
0.017197019554407732,0.72
0.017144140761921618,0.721
0.01709292487970227,0.722
0.017043446368293268,0.723
0.016995772426492636,0.724
0.01694996940800878,0.725
0.016906109299526142,0.726
0.016864274014349787,0.727
0.016824556755192295,0.728
0.016787060354716582,0.729
0.016751893121683847,0.73
0.016719163250452748,0.731
0.016688973129154933,0.732
0.016661414840723775,0.733
0.016636567795386303,0.734
0.016614498804405887,0.735
0.016595264106238943,0.736
0.016578912102586205,0.737
0.01656548514907158,0.738
0.016555018935356318,0.739
0.016547539938596114,0.74
0.016543064738828283,0.741
0.016541604353033663,0.742
0.016543171629785244,0.743
0.016547787520142708,0.744
0.016555483953170975,0.745
0.016566302845503422,0.746
0.016580291769041834,0.747
0.01659749754555607,0.748
0.016617959705511134,0.749
0.016641706245887327,0.75
0.016668752763123,0.751
0.016699103249843913,0.752
0.01673275012229777,0.753
0.01676967299041745,0.754
0.016809837638232433,0.755
0.016853196403951765,0.756
0.016899689080386658,0.757
0.016949242895743295,0.758
0.01700177228071962,0.759
0.01705718068848202,0.76
0.017115365136923414,0.761
0.017176221611987317,0.762
0.017239648926991993,0.763
0.01730554949439209,0.764
0.017373826386973528,0.765
0.017444377888829663,0.766
0.017517093634840157,0.767
0.017591856107251957,0.768
0.017668546272142774,0.769
0.017747048977621898,0.77
0.017827255237647655,0.771
0.017909060766572688,0.772
0.017992361218387324,0.773
0.018077045874657215,0.774
0.01816299326917172,0.775
0.018250071302300774,0.776
0.01833814031788309,0.777
0.01842705565913182,0.778
0.01851666797749906,0.779
0.01860682152730949,0.78
0.01869735147431789,0.781
0.01878808154862544,0.782
0.018878823367425336,0.783
0.018969378345635304,0.784
0.01905954228490812,0.785
0.01914911165028796,0.786
0.01923788956842806,0.787
0.019325689121589582,0.788
0.019412331822362232,0.789
0.019497641329553155,0.79
0.01958143747355345,0.791
0.019663538254709543,0.792
0.019743771475669258,0.793
0.019821989793461132,0.794
0.019898082481462267,0.795
0.01997198077287853,0.796
0.02004365586445438,0.797
0.020113109852997274,0.798
0.020180361344771816,0.799
0.02024543116688713,0.8
0.020308337392093742,0.801
0.02036910370451932,0.802
0.02042777432371601,0.803
0.020484426597886168,0.804
0.020539177359272385,0.805
0.02059218196392523,0.806
0.02064362590609994,0.807
0.02069371060846419,0.808
0.020742638959109008,0.809
0.020790609293618416,0.81
0.02083782037225609,0.811
0.020884479503348714,0.812
0.020930805468898174,0.813
0.020977024531272474,0.814
0.021023361943508765,0.815
0.021070033250342797,0.816
0.02111723952216999,0.817
0.02116516646109167,0.818
0.021213984056781415,0.819
0.021263846426090173,0.82
0.021314894121299048,0.821
0.02136725825227205,0.822
0.021421063179420705,0.823
0.021476425720575475,0.824
0.02153345151810826,0.825
0.021592231969778875,0.826
0.02165284490907969,0.827
0.021715358039831736,0.828
0.021779831410057272,0.829
0.02184631662974989,0.83
0.021914853368808315,0.831
0.021985466068734527,0.832
0.022058163618755667,0.833
0.02213294121084287,0.834
0.022209781140186916,0.835
0.022288651214769563,0.836
0.02236950318390445,0.837
0.022452274352896893,0.838
0.022536892187547723,0.839
0.022623278887760404,0.84
0.022711353428534843,0.841
0.02280103014385637,0.842
0.022892214346049548,0.843
0.022984797724081654,0.844
0.023078657563828844,0.845
0.023173660811973192,0.846
0.02326966961732276,0.847
0.02336654465576236,0.848
0.02346414473123738,0.849
0.023562322574935818,0.85
0.023660919107910072,0.851
0.02375976157458604,0.852
0.023858668668128455,0.853
0.023957458826273932,0.854
0.02405595564978632,0.855
0.024153987348156894,0.856
0.02425138056762659,0.857
0.02434795364994572,0.858
0.02444351695869344,0.859
0.02453788207340427,0.86
0.024630873535535853,0.861
0.02472233635936221,0.862
0.02481213665762511,0.863
0.024900155251555922,0.864
0.024986276369388865,0.865
0.025070377932971188,0.866
0.025152331484641275,0.867
0.025232012677635533,0.868
0.02530931502995517,0.869
0.02538415981524351,0.87
0.025456499214701347,0.871
0.025526312141314667,0.872
0.02559359321249618,0.873
0.02565833839588005,0.874
0.025720536024116607,0.875
0.025780170282658544,0.876
0.02583723379670012,0.877
0.025891740351932674,0.878
0.025943732413289396,0.879
0.02599328214595483,0.88
0.026040486075513673,0.881
0.02608545424931026,0.882
0.026128296739930123,0.883
0.026169114127213913,0.884
0.026207998062686016,0.885
0.026245040025509113,0.886
0.02628034065381065,0.887
0.026314014361770513,0.888
0.026346188191794826,0.889
0.026376995951080735,0.89
0.026406569667910763,0.891
0.02643503083326836,0.892
0.026462483617902637,0.893
0.02648901135047687,0.894
0.026514676305050274,0.895
0.026539521711890515,0.896
0.026563574273179767,0.897
0.026586845493138406,0.898
0.026609330670702463,0.899
0.026631006137671595,0.9
0.02665182819060361,0.901
0.02667173699819677,0.902
0.026690664551065297,0.903
0.026708543262897903,0.904
0.026725312675142433,0.905
0.02674092260514228,0.906
0.02675533151002386,0.907
0.026768499646835975,0.908
0.02678037931656559,0.909
0.02679090862749135,0.91
0.026800013416678658,0.911
0.026807613517909935,0.912
0.02681362597815068,0.913
0.02681796202263944,0.914
0.026820520880910307,0.915
0.026821188088196824,0.916
0.026819842289656608,0.917
0.026816365578761995,0.918
0.02681065007614303,0.919
0.02680259748501119,0.92
0.02679211178817486,0.921
0.026779089797199323,0.922
0.02676341910936375,0.923
0.02674498858627622,0.924
0.02672370553239991,0.925
0.026699510862795095,0.926
0.026672388029450923,0.927
0.026642364338643563,0.928
0.02660950430637794,0.929
0.026573895746365084,0.93
0.026535632420776317,0.931
0.026494802698528275,0.932
0.026451492257231632,0.933
0.026405797338399536,0.934
0.02635783826436759,0.935
0.026307766882828282,0.936
0.02625576682439778,0.937
0.026202047648688123,0.938
0.0261468349505514,0.939
0.0260903589479477,0.94
0.026032843858692176,0.941
0.025974499585888697,0.942
0.025915516164755435,0.943
0.025856060682486255,0.944
0.025796276429962278,0.945
0.025736284274915384,0.946
0.02567618607425236,0.947
0.02561606976464838,0.948
0.02555601561153557,0.949
0.025496102686315313,0.95
0.025436414262159906,0.951
0.025377040747679158,0.952
0.025318079070870195,0.953
0.025259628101000953,0.954
0.025201780947860034,0.955
0.025144617249188737,0.956
0.02508819972882397,0.957
0.025032575609759765,0.958
0.02497777843454267,0.959
0.02492382685349651,0.96
0.024870722273879854,0.961
0.024818449285148224,0.962
0.02476697908206149,0.963
0.02471627207610597,0.964
0.02466627680968113,0.965
0.024616927108487504,0.966
0.02456814291124815,0.967
0.02451983742868765,0.968
0.024471927322244347,0.969
0.024424341164475397,0.97
0.024377023813744195,0.971
0.024329935976025792,0.972
0.02428304898485118,0.973
0.024236335575560215,0.974
0.024189759635026984,0.975
0.0241432710165232,0.976
0.024096808756769093,0.977
0.02405030849012167,0.978
0.02400370839295172,0.979
0.02395695215282136,0.98
0.02390998979889295,0.981
0.023862777469142688,0.982
0.023815276980323496,0.983
0.023767455511002872,0.984
0.023719285006465196,0.985
0.023670740313430395,0.986
0.023621794814473563,0.987
0.023572414014441722,0.988
0.023522551706207994,0.989
0.02347215402906668,0.99
0.02342117059110444,0.991
0.023369566881441536,0.992
0.023317333250130547,0.993
0.023264488353764736,0.994
0.02321107654315464,0.995
0.02315715986775736,0.996
0.023102806284537612,0.997
0.023048077563359526,0.998
0.022993023000993134,0.999
0.022937682142968093,1.0
0.02288209227847878,1.001
0.022826294957979287,1.002
0.022770339738201043,1.003
0.022714285544152026,1.004
0.0226582002513831,1.005
0.022602159061694566,1.006
0.02254624204471366,1.007
0.022490530914472187,1.008
0.02243510482423856,1.009
0.02238003498819222,1.01
0.022325379387971783,1.011
0.02227118100042602,1.012
0.022217471421808833,1.013
0.02216427711165628,1.014
0.022111624298621263,1.015
0.022059540880827178,1.016
0.022008055284596005,1.017
0.021957192905703114,1.018
0.021906971112805193,1.019
0.021857394109759704,1.02
0.021808449600431486,1.021
0.02176010888434034,1.022
0.021712329909627515,1.023
0.02166506123492638,1.024
0.021618245194249663,1.025
0.021571819234642943,1.026
0.021525714556686008,1.027
0.021479852423864222,1.028
0.021434141673509228,1.029
0.021388481750646855,1.03
0.021342771030307524,1.031
0.0212969160281061,1.032
0.021250837628548177,1.033
0.02120447262506569,1.034
0.02115777021644334,1.035
0.021110684008409097,1.036
0.02106316237189764,1.037
0.021015143491974576,1.038
0.020966559324887495,1.039
0.020917345045161385,1.04
0.02086744804432362,1.041
0.020816833815988423,1.042
0.02076548817398674,1.043
0.02071341565330858,1.044
0.020660634305930507,1.045
0.020607167502524244,1.046
0.020553034634551007,1.047
0.02049824497457843,1.048
0.020442798326485045,1.049
0.020386690982992544,1.05
0.020329922358510034,1.051
0.020272499332624497,1.052
0.020214437536706667,1.053
0.020155759491440356,1.054
0.020096489713301087,1.055
0.020036647907316536,1.056
0.019976243676012806,1.057
0.01991527661509379,1.058
0.019853741525065825,1.059
0.019791634506029863,1.06
0.01972895636855326,1.061
0.019665712203973115,1.062
0.01960190718058664,1.063
0.01953754019456206,1.064
0.019472599674220662,1.065
0.019407065208448013,1.066
0.019340913446918063,1.067
0.019274123740180442,1.068
0.019206680862877114,1.069
0.019138574573911063,1.07
0.01906979680978762,1.071
0.019000337683612704,1.072
0.018930181378577386,1.073
0.01885930249537371,1.074
0.018787663023959376,1.075
0.01871521084455222,1.076
0.018641881660544934,1.077
0.01856760525131286,1.078
0.018492314578691882,1.079
0.01841595504556311,1.08
0.018338491109181492,1.081
0.018259907725495225,1.082
0.01818020506231846,1.083
0.018099388424940716,1.084
0.018017461043362708,1.085
0.017934426542981424,1.086
0.017850298001580577,1.087
0.017765104625548634,1.088
0.017678890730877528,1.089
0.01759170786075736,1.09
0.01750360640368046,1.091
0.017414634253807793,1.092
0.017324842668920974,1.093
0.01723429184426466,1.094
0.01714304994622001,1.095
0.01705118645845218,1.096
0.016958767523774818,1.097
0.01686586005767463,1.098
0.016772542103053057,1.099
0.016678911650575553,1.1
0.016585089298118326,1.101
0.016491214189456295,1.102
0.01639743475104334,1.103
0.016303898247584405,1.104
0.01621074549376342,1.105
0.016118113424868446,1.106
0.016026140916074395,1.107
0.015934972318285796,1.108
0.01584475736306049,1.109
0.0157556483592022,1.11
0.01566779595942564,1.111
0.015581344808434518,1.112
0.015496430121912036,1.113
0.015413175779182246,1.114
0.015331693984940688,1.115
0.015252086133098556,1.116
0.015174444308785246,1.117
0.015098852911733587,1.118
0.01502539008875592,1.119
0.014954128875317368,1.12
0.014885138027336278,1.121
0.014818482431587308,1.122
0.014754222810400607,1.123
0.014692414349884648,1.124
0.01463310433959651,1.125
0.014576330255910049,1.126
0.014522120359579312,1.127
0.014470497051443156,1.128
0.014421481014715373,1.129
0.01437509419745897,1.13
0.014331360907396782,1.131
0.01429030710308739,1.132
0.014251958388571597,1.133
0.01421633740587935,1.134
0.01418346122506286,1.135
0.014153339066006963,1.136
0.014125970447693061,1.137
0.014101343783890097,1.138
0.01407943550297434,1.139
0.014060209826621756,1.14
0.014043619285372374,1.141
0.014029605864595552,1.142
0.014018102420227656,1.143
0.014009033768009714,1.144
0.0140023167387875,1.145
0.013997859092523992,1.146
0.013995558824220615,1.147
0.01399530595998494,1.148
0.013996986793290941,1.149
0.014000488310801239,1.15
0.014005700616846372,1.151
0.014012516280625179,1.152
0.014020826712020061,1.153
0.014030517658380332,1.154
0.014041467531836807,1.155
0.01405354993794482,1.156
0.014066637354943323,1.157
0.014080602266994566,1.158
0.014095314908101767,1.159
0.014110640287551334,1.16
0.014126439155958388,1.161
0.014142574603370747,1.162
0.014158920727868183,1.163
0.014175368602531095,1.164
0.014191826811480186,1.165
0.014208215772794764,1.166
0.014224458930925108,1.167
0.014240479095551926,1.168
0.014256205022914562,1.169
0.014271582785637029,1.17
0.014286583358903197,1.171
0.014301202861132354,1.172
0.01431545577625903,1.173
0.014329364154386758,1.174
0.014342948921226052,1.175
0.014356228309441341,1.176
0.014369221596290891,1.177
0.014381952108251567,1.178
0.014394446038558733,1.179
0.014406727823956415,1.18
0.01441881546005584,1.181
0.01443071918158062,1.182
0.014442443411494109,1.183
0.014453988679858198,1.184
0.014465351066047264,1.185
0.01447651951236608,1.186
0.014487473372462279,1.187
0.014498182433259245,1.188
0.014508609306913785,1.189
0.014518712528981011,1.19
0.014528449493351313,1.191
0.014537779418118112,1.192
0.014546666546079407,1.193
0.014555083234400204,1.194
0.01456301200624003,1.195
0.01457044531318313,1.196
0.014577381889777858,1.197
0.014583820598794454,1.198
0.01458975681041509,1.199
0.014595186403944105,1.2
0.014600115925289045,1.201
0.014604573017201854,1.202
0.01460861292200303,1.203
0.014612319591952042,1.204
0.014615801410884203,1.205
0.014619182520743568,1.206
0.014622592185403738,1.207
0.014626156808061832,1.208
0.01462999866342355,1.209
0.014634240174355065,1.21
0.014639008729277198,1.211
0.01464443864472587,1.212
0.0146506698316978,1.213
0.014657843949350576,1.214
0.014666099168435998,1.215
0.014675565155175598,1.216
0.014686360203954902,1.217
0.014698590917018231,1.218
0.014712352508015086,1.219
0.014727728294798155,1.22
0.014744789403346597,1.221
0.01476359606064553,1.222
0.014784200053159028,1.223
0.014806647041186635,1.224
0.01483097797829089,1.225
0.014857229425129265,1.226
0.01488543275196162,1.227
0.014915612358965453,1.228
0.014947783293602563,1.229
0.014981949271049195,1.23
0.015018102410807978,1.231
0.015056224910183956,1.232
0.015096291450431919,1.233
0.01513827108405368,1.234
0.015182128071615146,1.235
0.015227821534206275,1.236
0.015275303965441018,1.237
0.015324518881364286,1.238
0.015375398507900588,1.239
0.015427863069605089,1.24
0.015481822418943008,1.241
0.015537178926028149,1.242
0.015593830096876279,1.243
0.01565167010599408,1.244
0.015710589865778685,1.245
0.015770475480573955,1.246
0.01583120535523435,1.247
0.015892647144393073,1.248
0.01595465651828195,1.249
0.016017078551894513,1.25
0.01607975039803032,1.251
0.016142503787222044,1.252
0.01620516716379712,1.253
0.01626756777116005,1.254
0.016329533818959192,1.255
0.016390896581860184,1.256
0.01645149200822407,1.257
0.01651116124738491,1.258
0.016569749506646917,1.259
0.016627102845099086,1.26
0.016683063281900463,1.261
0.016737464538113565,1.262
0.016790131923382412,1.263
0.0168408872572123,1.264
0.01688955588612081,1.265
0.016935972488144314,1.266
0.016979984120129948,1.267
0.01702145002936983,1.268
0.01706023832092198,1.269
0.017096220133681575,1.27
0.01712926270796642,1.271
0.017159223870085408,1.272
0.017185950353657737,1.273
0.017209279431623408,1.274
0.01722904052880502,1.275
0.01724505455634194,1.276
0.017257132762015116,1.277
0.017265079471944163,1.278
0.017268700457008467,1.279
0.017267813666879777,1.28
0.01726225740749313,1.281
0.01725189234868674,1.282
0.017236595489463144,1.283
0.017216249452181538,1.284
0.0171907386330402,1.285
0.017159960567129835,1.286
0.01712384611689328,1.287
0.017082376593646233,1.288
0.017035591849817098,1.289
0.016983588183627458,1.29
0.016926507155082756,1.291
0.016864518165418643,1.292
0.016797800137730842,1.293
0.016726530614950982,1.294
0.0166508868669922,1.295
0.016571053958633893,1.296
0.016487231970321422,1.297
0.016399639422429963,1.298
0.016308513355179972,1.299
0.016214107130853514,1.3
0.0161166870580606,1.301
0.016016528742364377,1.302
0.015913913662186082,1.303
0.01580912598985933,1.304
0.015702449327825444,1.305
0.015594162953387463,1.306
0.015484537870724973,1.307
0.015373834430727075,1.308
0.015262303121968189,1.309
0.015150187591326142,1.31
0.015037727488949666,1.311
0.014925159730817325,1.312
0.01481271804315677,1.313
0.014700631211203434,1.314
0.014589120678276345,1.315
0.01447839817002311,1.316
0.014368663867606393,1.317
0.014260105388568603,1.318
0.014152897553533345,1.319
0.014047202709049666,1.32
0.013943171279285148,1.321
0.013840942220007783,1.322
0.013740643118718008,1.323
0.01364238986794896,1.324
0.013546286250060633,1.325
0.013452424101102778,1.326
0.013360884345539227,1.327
0.013271738489996179,1.328
0.013185050051923221,1.329
0.013100875699905881,1.33
0.013019266015843552,1.331
0.012940265773435138,1.332
0.01286391362338538,1.333
0.012790241126715927,1.334
0.012719271247782566,1.335
0.012651016888849686,1.336
0.012585480479938701,1.337
0.012522655061755523,1.338
0.012462526192132211,1.339
0.012405073873854108,1.34
0.012350274246351007,1.341
0.01229810099113146,1.342
0.012248526352019708,1.343
0.012201521656179767,1.344
0.012157057257606569,1.345
0.012115101878954754,1.346
0.012075621350874319,1.347
0.012038576716434959,1.348
0.01200392199839688,1.349
0.011971602960453201,1.35
0.011941558471458167,1.351
0.011913724457665848,1.352
0.011888038845577183,1.353
0.011864445875903209,1.354
0.01184289870452269,1.355
0.011823359594462483,1.356
0.01180579747635899,1.357
0.011790183252792023,1.358
0.011776484382340103,1.359
0.011764661657163146,1.36
0.011754669835917766,1.361
0.011746460406896052,1.362
0.011739984035132482,1.363
0.011735192130115249,1.364
0.011732037986398281,1.365
0.011730477758353718,1.366
0.011730471086368361,1.367
0.011731980840388727,1.368
0.011734971398961465,1.369
0.011739405357870724,1.37
0.011745240023835401,1.371
0.01175242642256935,1.372
0.011760912010231042,1.373
0.01177064509496563,1.374
0.011781578438378284,1.375
0.011793671003061997,1.376
0.011806887592068585,1.377
0.011821196285836192,1.378
0.011836564219022332,1.379
0.011852953904403012,1.38
0.011870323117103248,1.381
0.01188862875874653,1.382
0.011907831824186225,1.383
0.011927900589815372,1.384
0.011948810983193964,1.385
0.011970544214095314,1.386
0.011993082242789544,1.387
0.012016402680042854,1.388
0.012040476084454427,1.389
0.012065267280303738,1.39
0.012090738688699885,1.391
0.012116852805482338,1.392
0.01214357280829984,1.393
0.012170861437474539,1.394
0.012198678630507614,1.395
0.012226978661452052,1.396
0.012255707712414519,1.397
0.012284802807182266,1.398
0.012314192777888443,1.399
0.012343801387595641,1.4
0.012373551991478614,1.401
0.012403372402602045,1.402
0.012433198202606,1.403
0.012462972819296602,1.404
0.012492643781302345,1.405
0.012522157795281999,1.406
0.012551460403747394,1.407
0.012580502934551603,1.408
0.012609252668755493,1.409
0.01263770056188207,1.41
0.01266586387258575,1.411
0.01269378337314579,1.412
0.012721516095414314,1.413
0.012749125702855458,1.414
0.012776673874201073,1.415
0.01280421638376796,1.416
0.012831804414736204,1.417
0.012859487835207701,1.418
0.012887317633512982,1.419
0.01291534723334916,1.42
0.012943633147833332,1.421
0.01297223503172802,1.422
0.01300121489960373,1.423
0.01303063527616449,1.424
0.013060556321226552,1.425
0.01309103235673327,1.426
0.013122108614942419,1.427
0.01315381910324777,1.428
0.013186185796933389,1.429
0.013219218750636311,1.43
0.013252916892154494,1.431
0.013287269199286226,1.432
0.013322255479226807,1.433
0.013357846116199232,1.434
0.013394001234454285,1.435
0.013430670861370902,1.436
0.013467797109037968,1.437
0.013505317531596958,1.438
0.01354316817742048,1.439
0.013581285520179709,1.44
0.013619606970103797,1.441
0.013658069906161967,1.442
0.01369660938921807,1.443
0.013735154901413872,1.444
0.01377362702385277,1.445
0.013811935741812264,1.446
0.013849981170085256,1.447
0.01388765530753594,1.448
0.013924843047430571,1.449
0.013961421915468852,1.45
0.013997260790731077,1.451
0.014032218130843637,1.452
0.014066140397566927,1.453
0.014098861412989524,1.454
0.014130203252225977,1.455
0.014159979012026735,1.456
0.01418799742456444,1.457
0.01421406885204194,1.458
0.01423801174324436,1.459
0.014259658236730087,1.46
0.0142788573898179,1.461
0.014295474634776045,1.462
0.014309386569230283,1.463
0.014320472827588436,1.464
0.014328611652533938,1.465
0.014333684992256129,1.466
0.014335590518545235,1.467
0.014334253430320102,1.468
0.014329633742565758,1.469
0.014321727962626856,1.47
0.01431056544043857,1.471
0.014296200478619476,1.472
0.014278701713852858,1.473
0.014258141139578948,1.474
0.014234586771853398,1.475
0.014208102059449328,1.476
0.01417875049187483,1.477
0.014146601162170737,1.478
0.014111732832681082,1.479
0.01407423626752628,1.48
0.014034215164432425,1.481
0.013991785954646712,1.482
0.013947076625984824,1.483
0.013900224602688119,1.484
0.01385137363049089,1.485
0.013800669611257248,1.486
0.013748255683498349,1.487
0.013694268103093238,1.488
0.013638835469185033,1.489
0.013582082023901968,1.49
0.01352413275338528,1.491
0.013465117691511689,1.492
0.013405174289699463,1.493
0.013344447513667175,1.494
0.013283087630599103,1.495
0.01322124599617713,1.496
0.01315906998977097,1.497
0.013096699592897292,1.498
0.013034267583796236,1.499
0.012971902270715758,1.5
0.012909729977807677,1.501
0.012847875666515329,1.502
0.012786461593308224,1.503
0.012725604588716808,1.504
0.012665413019409098,1.505
0.01260598470331596,1.506
0.012547406214689845,1.507
0.012489753125557545,1.508
0.012433091143277173,1.509
0.012377478296429498,1.51
0.01232296742656832,1.511
0.01226960785268152,1.512
0.012217445550422689,1.513
0.012166521727392231,1.514
0.012116870464095611,1.515
0.012068517173084749,1.516
0.012021479281218682,1.517
0.011975768510492113,1.518
0.011931393185114264,1.519
0.01188835983371784,1.52
0.011846674144526774,1.521
0.011806341475767887,1.522
0.011767367039964345,1.523
0.011729755756568355,1.524
0.011693511671099261,1.525
0.01165863680692066,1.526
0.011625129360267772,1.527
0.011592981386278314,1.528
0.011562176760981636,1.529
0.01153269060159649,1.53
0.011504490342796624,1.531
0.011477537263541233,1.532
0.011451787307859137,1.533
0.011427190979509349,1.534
0.011403692618850627,1.535
0.011381229504931123,1.536
0.011359731219631896,1.537
0.01133911959772858,1.538
0.0113193094281476,1.539
0.01130020991773598,1.54
0.011281726801860814,1.541
0.011263764880287727,1.542
0.011246230651508093,1.543
0.01122903460329876,1.544
0.01121209261198954,1.545
0.011195325863945936,1.546
0.011178658815980886,1.547
0.011162015420151808,1.548
0.011145315709937495,1.549
0.011128475961200996,1.55
0.011111413208829475,1.551
0.011094051469339653,1.552
0.011076326804493889,1.553
0.011058190038530891,1.554
0.011039606915238866,1.555
0.011020555912372262,1.556
0.01100102427877026,1.557
0.010981003042614056,1.558
0.010960481790157746,1.559
0.010939444316618772,1.56
0.010917866552773188,1.561
0.010895717051330673,1.562
0.010872958565394131,1.563
0.010849549368501223,1.564
0.010825444247261241,1.565
0.010800595626669822,1.566
0.010774955202821533,1.567
0.010748476251138565,1.568
0.010721116497269872,1.569
0.010692841161412406,1.57
0.010663625595168369,1.571
0.010633456869074876,1.572
0.010602333739826091,1.573
0.010570264601677957,1.574
0.010537263275034833,1.575
0.0105033436507625,1.576
0.010468516507642738,1.577
0.010432791567636417,1.578
0.010396183719331022,1.579
0.010358719760899056,1.58
0.010320443180196766,1.581
0.01028141607348817,1.582
0.010241717982181658,1.583
0.010201441915933345,1.584
0.010160688320041201,1.585
0.010119558464428734,1.586
0.010078149669796083,1.587
0.010036554202114571,1.588
0.009994860985408156,1.589
0.00995315771787763,1.59
0.009911532085909626,1.591
0.009870072164007064,1.592
0.009828866380276524,1.593
0.009788003255631476,1.594
0.009747570953126165,1.595
0.00970765656718153,1.596
0.009668345058886087,1.597
0.009629717783723091,1.598
0.009591850705120837,1.599
0.009554812837493244,1.6
0.009518665861818886,1.601
0.009483465235794021,1.602
0.009449261978186458,1.603
0.009416104145006807,1.604
0.009384037585417785,1.605
0.009353105912303952,1.606
0.009323349763771348,1.607
0.009294805540548288,1.608
0.009267503855491802,1.609
0.009241468097152728,1.61
0.009216713743603127,1.611
0.009193248691759144,1.612
0.009171074085007598,1.613
0.009150185063809012,1.614
0.009130571379057503,1.615
0.009112218068640127,1.616
0.00909510639208257,1.617
0.00907921512813047,1.618
0.009064522179370442,1.619
0.009051006232619023,1.62
0.009038648046313567,1.621
0.009027430840996878,1.622
0.009017339317889247,1.623
0.009008357240760129,1.624
0.009000464806585493,1.625
0.008993638256150889,1.626
0.008987852791041686,1.627
0.008983086977747466,1.628
0.008979326235443827,1.629
0.008976564326450423,1.63
0.008974802672573941,1.631
0.008974047762261598,1.632
0.008974307295961222,1.633
0.00897558613307462,1.634
0.008977883470286534,1.635
0.008981192040940528,1.636
0.00898549855368717,1.637
0.008990784026072235,1.638
0.008997023503004974,1.639
0.009004185366241407,1.64
0.009012230539474973,1.641
0.009021111840333048,1.642
0.009030773637787143,1.643
0.009041151775125388,1.644
0.009052173698797333,1.645
0.009063758953645619,1.646
0.009075820197191135,1.647
0.00908826463240261,1.648
0.009100995659342585,1.649
0.009113914609665673,1.65
0.00912692247928556,1.651
0.009139921573957857,1.652
0.00915281692724918,1.653
0.009165517244776005,1.654
0.009177935007498791,1.655
0.009189985293135406,1.656
0.0092015831409715,1.657
0.009212640702100984,1.658
0.00922306710252765,1.659
0.00923277260608814,1.66
0.009241675139300874,1.661
0.009249706191948232,1.662
0.00925681440736791,1.663
0.009262966083108394,1.664
0.009268142267327382,1.665
0.009272332731381318,1.666
0.009275528873847002,1.667
0.009277720127249174,1.668
0.009278896539667491,1.669
0.009279054498816665,1.67
0.009278201209314807,1.671
0.00927635642850734,1.672
0.009273551688140824,1.673
0.009269827567322577,1.674
0.00926522973648505,1.675
0.009259804465724464,1.676
0.009253594503034063,1.677
0.009246636770598312,1.678
0.009238962723220534,1.679
0.009230600365362584,1.68
0.009221576274080674,1.681
0.009211916840186822,1.682
0.009201648614051943,1.683
0.009190797806080281,1.684
0.009179389041800767,1.685
0.009167443481056074,1.686
0.00915497675463915,1.687
0.009141997920412972,1.688
0.009128510344934873,1.689
0.009114513793993372,1.69
0.009100006220529354,1.691
0.009084984266748643,1.692
0.009069442139570099,1.693
0.009053369656316857,1.694
0.009036751801563771,1.695
0.009019571350917216,1.696
0.009001813189390284,1.697
0.008983467902915581,1.698
0.008964533361546765,1.699
0.008945013972804321,1.7
0.008924917810547299,1.701
0.008904252537563363,1.702
0.008883022036811572,1.703
0.0088612256678115,1.704
0.008838860039557259,1.705
0.008815921397063907,1.706
0.008792407215738492,1.707
0.00876831685624473,1.708
0.008743651602078429,1.709
0.008718414399617265,1.71
0.008692609539331313,1.711
0.008666242409451094,1.712
0.00863931937133744,1.713
0.008611847772560379,1.714
0.008583836103697007,1.715
0.008555294253498071,1.716
0.008526233675680752,1.717
0.008496667080723065,1.718
0.008466607122960382,1.719
0.008436064183393375,1.72
0.008405045142763232,1.721
0.008373555549932587,1.722
0.008341605113512427,1.723
0.008309214109708805,1.724
0.008276418390539199,1.725
0.00824327162987152,1.726
0.008209844190160923,1.727
0.008176218778688996,1.728
0.008142484040075596,1.729
0.00810872859991391,1.73
0.008075038562805047,1.731
0.008041498903038824,1.732
0.008008195996278444,1.733
0.00797521888160744,1.734
0.007942659027497941,1.735
0.007910609282797411,1.736
0.007879162615484702,1.737
0.007848410980869497,1.738
0.007818444359980622,1.739
0.007789349813501996,1.74
0.007761210372876084,1.741
0.00773410381122121,1.742
0.0077081017509914255,1.743
0.0076832695769926155,1.744
0.007659666941562009,1.745
0.007637348153194037,1.746
0.007616362003092944,1.747
0.007596751169239031,1.748
0.007578551770982313,1.749
0.007561793439289153,1.75
0.007546499549745316,1.751
0.007532687167709952,1.752
0.007520366974233501,1.753
0.007509543735949747,1.754
0.007500217253661723,1.755
0.007492383142951072,1.756
0.0074860328882145645,1.757
0.007481153165200341,1.758
0.007477725216457346,1.759
0.00747572523918073,1.76
0.00747512575074363,1.761
0.007475897017871551,1.762
0.007478007868232821,1.763
0.007481425817214173,1.764
0.007486116754295941,1.765
0.007492044478303105,1.766
0.0074991702517138974,1.767
0.0075074523393273635,1.768
0.007516845331911077,1.769
0.007527299161363433,1.77
0.007538758248313468,1.771
0.007551161534666226,1.772
0.007564443441674884,1.773
0.0075785348782562035,1.774
0.007593363519670701,1.775
0.007608853294182206,1.776
0.00762492355713007,1.777
0.007641488679242396,1.778
0.007658458730100455,1.779
0.007675741582169544,1.78
0.007693246221828125,1.781
0.007710886540174987,1.782
0.007728584581847174,1.783
0.0077462722496784465,1.784
0.007763890766914298,1.785
0.007781387673920349,1.786
0.007798712309220144,1.787
0.007815812673227524,1.788
0.007832636344365686,1.789
0.007849134571501656,1.79
0.007865266345584356,1.791
0.007881000344755005,1.792
0.00789631435285334,1.793
0.007911192559662996,1.794
0.007925621525716155,1.795
0.007939585983624431,1.796
0.00795306597349652,1.797
0.007966035990518495,1.798
0.007978465070772116,1.799
0.007990316545896083,1.8
0.008001547926770394,1.801
0.008012112165898309,1.802
0.008021960403615584,1.803
0.00803104532258324,1.804
0.008039324340230719,1.805
0.008046762090344049,1.806
0.008053331591777924,1.807
0.008059013457435924,1.808
0.008063792759662267,1.809
0.00806765489837059,1.81
0.008070584436091915,1.811
0.008072569517250501,1.812
0.008073609424948208,1.813
0.008073721066428511,1.814
0.008072942206529866,1.815
0.008071330900488125,1.816
0.008068961449175738,1.817
0.008065917978316166,1.818
0.00806228747188191,1.819
0.008058154720894974,1.82
0.008053600772495508,1.821
0.008048703863349623,1.822
0.008043540512828516,1.823
0.008038185650872996,1.824
0.008032712025943745,1.825
0.008027189436400635,1.826
0.008021684175174957,1.827
0.008016258884348306,1.828
0.008010972828825576,1.829
0.008005882448002011,1.83
0.008001041956957371,1.831
0.007996503761974234,1.832
0.007992318527485014,1.833
0.007988534854874932,1.834
0.007985198659724349,1.835
0.007982352412580353,1.836
0.007980034406075571,1.837
0.007978278130355676,1.838
0.007977111726795988,1.839
0.00797655741933057,1.84
0.007976630896457438,1.841
0.007977340849255197,1.842
0.007978688929530669,1.843
0.007980670046482164,1.844
0.007983272614718134,1.845
0.007986478472193942,1.846
0.007990262545135674,1.847
0.007994592721917,1.848
0.007999430390028497,1.849
0.008004731601861203,1.85
0.00801044850686472,1.851
0.008016530695396377,1.852
0.00802292608656472,1.853
0.008029580936121095,1.854
0.008036438755683068,1.855
0.008043438968248552,1.856
0.00805051730086997,1.857
0.008057609041178197,1.858
0.00806465394898506,1.859
0.008071600841903075,1.86
0.008078410653790483,1.861
0.00808505740723887,1.862
0.008091526942072316,1.863
0.008097813658658224,1.864
0.008103915864747428,1.865
0.008109830949504977,1.866
0.008115552496356695,1.867
0.008121070612757353,1.868
0.008126374255515588,1.869
0.00813145353467896,1.87
0.008136301232201154,1.871
0.008140913686439061,1.872
0.00814529132834905,1.873
0.008149439107287446,1.874
0.008153366962063023,1.875
0.008157090386174933,1.876
0.008160630997182112,1.877
0.008164016856382563,1.878
0.00816728214819725,1.879
0.008170465800796327,1.88
0.008173608767657858,1.881
0.008176750563235686,1.882
0.008179927246773112,1.883
0.008183172759295249,1.884
0.00818652269236648,1.885
0.008190018048911837,1.886
0.008193707526506994,1.887
0.008197647937877391,1.888
0.008201902833117903,1.889
0.008206539666547363,1.89
0.00821162606739319,1.891
0.008217226315311174,1.892
0.008223399732808301,1.893
0.008230201638509516,1.894
0.008237685358103989,1.895
0.008245903494321551,1.896
0.008254907860161212,1.897
0.008264748165062567,1.898
0.008275470023870406,1.899
0.00828711365035961,1.9
0.00829971439475524,1.901
0.00831330469527648,1.902
0.00832791606995504,1.903
0.008343580260021112,1.904
0.008360329278869606,1.905
0.0083781943790298,1.906
0.008397204120265383,1.907
0.008417382297095835,1.908
0.008438747230895657,1.909
0.008461313215379303,1.91
0.008485093039260105,1.911
0.008510100002464088,1.912
0.008536348652189253,1.913
0.008563854030955564,1.914
0.008592629549764584,1.915
0.008622684407392618,1.916
0.008654022384305996,1.917
0.008686642884536555,1.918
0.008720542837230788,1.919
0.008755717663963365,1.92
0.008792160777490846,1.921
0.008829861915909397,1.922
0.008868805168854556,1.923
0.008908968031534648,1.924
0.008950322090268789,1.925
0.008992834483088475,1.926
0.009036469056334633,1.927
0.009081186880040447,1.928
0.009126946144111105,1.929
0.009173701476362872,1.93
0.009221402741818771,1.931
0.009269993587361464,1.932
0.00931941047234461,1.933
0.009369582925882051,1.934
0.009420434866401296,1.935
0.009471886093797451,1.936
0.009523853189613036,1.937
0.009576249403992612,1.938
0.009628983459799805,1.939
0.009681958125156083,1.94
0.009735070302455871,1.941
0.009788213460817284,1.942
0.009841281225157655,1.943
0.00989417038292277,1.944
0.009946782276297104,1.945
0.009999022053067437,1.946
0.01005079570886967,1.947
0.010102006370719974,1.948
0.010152553118636939,1.949
0.010202334214605433,1.95
0.01025125267757903,1.951
0.01029922111354142,1.952
0.01034616443808802,1.953
0.010392020216819103,1.954
0.010436736681378688,1.955
0.010480268783613014,1.956
0.01052257294977996,1.957
0.010563602043553002,1.958
0.010603303025371708,1.959
0.01064161835707559,1.96
0.01067848919870995,1.961
0.010713858076769084,1.962
0.010747670408361118,1.963
0.010779875121270868,1.964
0.010810424670475811,1.965
0.010839274700814885,1.966
0.010866383453457551,1.967
0.010891710819374798,1.968
0.010915216801349456,1.969
0.010936859137767848,1.97
0.010956590442896295,1.971
0.010974356523059186,1.972
0.010990097521355156,1.973
0.011003751398103997,1.974
0.011015257806769433,1.975
0.011024560942297193,1.976
0.0110316107321086,1.977
0.011036362093711423,1.978
0.011038772248504124,1.979
0.0110387967529253,1.98
0.011036386384445733,1.981
0.011031487574373252,1.982
0.011024046787667314,1.983
0.011014016605566094,1.984
0.011001361211163355,1.985
0.010986060062271251,1.986
0.010968108975750233,1.987
0.010947518029458848,1.988
0.010924306061181428,1.989
0.010898493584730369,1.99
0.010870099508972985,1.991
0.01083914559963169,1.992
0.010805665684054668,1.993
0.010769713900453424,1.994
0.010731369047613246,1.995
0.010690734281554709,1.996
0.010647932337017727,1.997
0.010603097302260674,1.998
0.010556365611846965,1.999
0.010507870878394613,2.0
0.01045774489620659,2.001
0.010406121550684225,2.002
0.01035313924420072,2.003
0.010298940576030483,2.004
0.010243669930104546,2.005
0.010187469944717439,2.006
0.010130477986613304,2.007
0.010072823787705172,2.008
0.01001462866062327,2.009
0.009956005456718977,2.01
0.009897058381417844,2.011
0.00983788296364033,2.012
0.009778566792288081,2.013
0.009719190768916842,2.014
0.009659830244141967,2.015
0.009600555769858687,2.016
0.009541433473964132,2.017
0.009482525128738177,2.018
0.009423888002740558,2.019
0.009365574581339317,2.02
0.009307632230557819,2.021
0.009250102860920921,2.022
0.009193022609774474,2.023
0.009136421500935195,2.024
0.009080322982355093,2.025
0.009024743316088558,2.026
0.008969691149780454,2.027
0.008915167862737291,2.028
0.008861168894791055,2.029
0.008807685656329346,2.03
0.008754707502137481,2.031
0.008702223421678541,2.032
0.00865022317294866,2.033
0.00859869764560418,2.034
0.00854763837930738,2.035
0.008497036344707757,2.036
0.00844688024315441,2.037
0.008397154631618978,2.038
0.008347838237796936,2.039
0.008298903010151447,2.04
0.008250314367041888,2.041
0.008202032598578162,2.042
0.008154015085306094,2.043
0.00810621911663275,2.044
0.008058605073649394,2.045
0.008011139464963676,2.046
0.00796379707993932,2.047
0.007916561548078285,2.048
0.00786942387390229,2.049
0.007822378938354493,2.05
0.007775421151012024,2.051
0.007728542227466967,2.052
0.0076817330789466926,2.053
0.00763498804938834,2.054
0.007588308495240264,2.055
0.0075417044331199095,2.056
0.007495194270608257,2.057
0.0074488030539607755,2.058
0.007402559876309174,2.059
0.007356495097506599,2.06
0.007310637873493232,2.061
0.007265014262349597,2.062
0.0072196459477945835,2.063
0.0071745494517048945,2.064
0.007129735613713004,2.065
0.00708520918931574,2.066
0.007040968727844684,2.067
0.006997007077078109,2.068
0.006953312588407223,2.069
0.0069098707521827105,2.07
0.006866665948224065,2.071
0.0068236830746162625,2.072
0.0067809088671558675,2.073
0.006738332780029734,2.074
0.006695947372095389,2.075
0.006653748204760077,2.076
0.00661173328794661,2.077
0.006569902107518581,2.078
0.006528254250607463,2.079
0.006486787646857493,2.08
0.006445496756079287,2.081
0.006404371666161295,2.082
0.006363398853075503,2.083
0.0063225631255128655,2.084
0.006281849745163724,2.085
0.006241246160715029,2.086
0.006200743114394673,2.087
0.006160334925333644,2.088
0.006120018823115492,2.089
0.006079793335252291,2.09
0.006039656046362203,2.091
0.005999601710972583,2.092
0.005959621967348152,2.093
0.005919706787489996,2.094
0.005879846455503898,2.095
0.005840032907675518,2.096
0.005800260007382547,2.097
0.005760522706736513,2.098
0.005720815299046916,2.099
0.005681129615583156,2.1
0.005641454576556188,2.101
0.00560177763368741,2.102
0.005562087036516486,2.103
0.005522373612161964,2.104
0.0054826315244115575,2.105
0.005442857924960617,2.106
0.0054030515680796995,2.107
0.0053632107256008825,2.108
0.005323331275628792,2.109
0.005283406105766904,2.11
0.005243426048780541,2.111
0.005203381353768078,2.112
0.005163262767562512,2.113
0.005123062070685367,2.114
0.005082772252232927,2.115
0.005042387512657587,2.116
0.00500190322382744,2.117
0.004961315882823155,2.118
0.00492062301056184,2.119
0.004879822900793263,2.12
0.0048389141227492905,2.121
0.004797894700893204,2.122
0.004756760983395279,2.123
0.004715506601188992,2.124
0.004674122382478066,2.125
0.004632597678679499,2.126
0.004590922534745553,2.127
0.004549089857583893,2.128
0.004507097118566315,2.129
0.004464947346826782,2.13
0.0044226492449552625,2.131
0.004380216383044619,2.132
0.004337665580823895,2.133
0.004295014726955484,2.134
0.004252280584551449,2.135
0.004209477540659344,2.136
0.004166617834173292,2.137
0.004123712628102287,2.138
0.004080772970766871,2.139
0.004037810290379653,2.14
0.003994836475972363,2.141
0.00395186367974397,2.142
0.003908904001364558,2.143
0.0038659692114332337,2.144
0.003823070630064781,2.145
0.0037802192058091324,2.146
0.003737425764759438,2.147
0.003694701342955454,2.148
0.003652057481326503,2.149
0.003609506344825141,2.15
0.0035670605305801765,2.151
0.0035247324692229626,2.152
0.003482533494294311,2.153
0.0034404730579986583,2.154
0.0033985587784056324,2.155
0.003356797450871503,2.156
0.0033151964373692787,2.157
0.003273764832762798,2.158
0.0032325141736626747,2.159
0.003191458656847914,2.16
0.003150614913471453,2.161
0.003110001437396886,2.162
0.0030696377784577046,2.163
0.0030295435933046736,2.164
0.002989737636921057,2.165
0.0029502369106901333,2.166
0.0029110563771661026,2.167
0.002872209420515012,2.168
0.0028337087041304916,2.169
0.0027955669882521713,2.17
0.0027577977357317643,2.171
0.002720415462293791,2.172
0.0026834357991425647,2.173
0.002646875253682807,2.174
0.0026107506785600534,2.175
0.0025750784897435063,2.176
0.002539873835951161,2.177
0.0025051501921399084,2.178
0.00247091967267446,2.179
0.0024371937426404576,2.18
0.002403983810386346,2.181
0.0023713014662965454,2.182
0.0023391583370485415,2.183
0.002307565603395811,2.184
0.0022765333624388106,2.185
0.0022460701987681597,2.186
0.002216183246102852,2.187
0.00218687859767898,2.188
0.0021581616836254406,2.189
0.0021300373770086296,2.19
0.00210250978345413,2.191
0.002075581834958135,2.192
0.0020492550073039316,2.193
0.00202352940656435,2.194
0.001998404070191624,2.195
0.001973877140600061,2.196
0.0019499457507256835,2.197
0.0019266057317121551,2.198
0.0019038514638104458,2.199
0.0018816760794055792,2.2
0.0018600718342430811,2.201
0.001839030328598458,2.202
0.0018185424354618396,2.203
0.0017985980150962417,2.204
0.0017791857258576962,2.205
0.0017602932067494863,2.206
0.0017419075127224886,2.207
0.0017240154448591918,2.208
0.0017066035399859554,2.209
0.0016896577525507296,2.21
0.001673163189506147,2.211
0.0016571043302197838,2.212
0.0016414657469547296,2.213
0.0016262329592027609,2.214
0.001611393101709664,2.215
0.0015969352647662582,2.216
0.0015828504411953728,2.217
0.0015691310501304134,2.218
0.0015557701236972885,2.219
0.0015427605616940867,2.22
0.0015300950712130845,2.221
0.0015177669533916406,2.222
0.0015057712141529373,2.223
0.0014941054248098216,2.224
0.0014827701129924893,2.225
0.0014717686683117074,2.226
0.0014611068185399936,2.227
0.0014507917856524347,2.228
0.0014408312907934662,2.229
0.0014312327035216246,2.23
0.0014220026865906206,2.231
0.0014131473769567761,2.232
0.0014046727378503165,2.233
0.0013965847475246214,2.234
0.0013888893630660093,2.235
0.0013815923273050607,2.236
0.0013746989156264485,2.237
0.0013682137279895858,2.238
0.0013621406008085567,2.239
0.0013564826487418608,2.24
0.0013512423809797496,2.241
0.0013464218049949875,2.242
0.0013420224407170317,2.243
0.0013380452018800363,2.244
0.0013344901805581863,2.245
0.0013313564899507145,2.246
0.0013286422901423074,2.247
0.0013263448988245813,2.248
0.0013244607974221367,2.249
0.0013229855363296997,2.25
0.0013219137364512829,2.251
0.0013212392807925677,2.252
0.001320955545388269,2.253
0.0013210554890736542,2.254
0.0013215315697709849,2.255
0.0013223755617299002,2.256
0.0013235783836648967,2.257
0.0013251300376581141,2.258
0.0013270197031557073,2.259
0.0013292359457309324,2.26
0.001331766919709907,2.261
0.001334600408365267,2.262
0.001337723654009334,2.263
0.00134112320713028,2.264
0.0013447851084884385,2.265
0.001348695374849817,2.266
0.0013528404502023254,2.267
0.0013572073655268898,2.268
0.0013617835690596237,2.269
0.0013665565132349765,2.27
0.001371513153501046,2.271
0.001376639572056883,2.272
0.0013819208692638632,2.273
0.001387341235525522,2.274
0.0013928839918078593,2.275
0.0013985314985776663,2.276
0.0014042649878774156,2.277
0.001410064430751259,2.278
0.0014159085312558776,2.279
0.0014217749014060353,2.28
0.001427640438494752,2.281
0.0014334818662311939,2.282
0.001439276336365127,2.283
0.0014450019608132473,2.284
0.0014506381490545135,2.285
0.0014561656503699737,2.286
0.001461566243099197,2.287
0.0014668221071329982,2.288
0.001471915177296474,2.289
0.0014768270229156024,2.29
0.0014815394981152947,2.291
0.0014860357956815397,2.292
0.001490301424176423,2.293
0.0014943249035487304,2.294
0.0014980981207322493,2.295
0.0015016163084233599,2.296
0.0015048776267703953,2.297
0.0015078823494315198,2.298
0.0015106317688067643,2.299
0.0015131272633383361,2.3
0.001515370156894855,2.301
0.0015173624816981399,2.302
0.0015191080517769815,2.303
0.0015206132509039396,2.304
0.001521887339913035,2.305
0.0015229423093054805,2.306
0.0015237923783997143,2.307
0.0015244532877911924,2.308
0.001524941542404519,2.309
0.0015252737356283175,2.31
0.0015254660243592883,2.311
0.0015255337500402603,2.312
0.0015254911695237211,2.313
0.0015253513187151284,2.314
0.0015251260829994293,2.315
0.0015248264713074492,2.316
0.001524462986669989,2.317
0.0015240459820343936,2.318
0.0015235859285641234,2.319
0.0015230935418119747,2.32
0.001522579728918256,2.321
0.0015220553525975243,2.322
0.0015215308505012735,2.323
0.0015210158120576337,2.324
0.0015205186726038882,2.325
0.0015200466171165542,2.326
0.0015196056167626358,2.327
0.0015192004735280285,2.328
0.0015188348400407823,2.329
0.001518511236511267,2.33
0.001518231071716326,2.331
