VaMe,time
0.0277,0.001
0.0262,0.002
0.018,0.003
0.0105,0.004
0.0067,0.005
0.0045,0.006
0.0067,0.007
0.0045,0.008
0.003,0.009
0.0007,0.01
0.0,0.011
0.003,0.012
0.0007,0.013
0.003,0.014
-0.0023,0.015
-0.0068,0.016
-0.0053,0.017
-0.0083,0.018
0.0015,0.019
0.0105,0.02
0.0195,0.021
0.0255,0.022
0.0247,0.023
0.0217,0.024
0.0015,0.025
-0.0173,0.026
-0.0278,0.027
-0.0375,0.028
-0.0368,0.029
-0.0315,0.03
-0.0188,0.031
-0.003,0.032
0.009,0.033
0.021,0.034
0.0217,0.035
0.0172,0.036
0.0187,0.037
0.009,0.038
-0.0038,0.039
-0.0143,0.04
-0.0188,0.041
-0.0098,0.042
0.0007,0.043
0.0142,0.044
0.0277,0.045
0.0345,0.046
0.033,0.047
0.027,0.048
0.009,0.049
-0.0053,0.05
-0.0105,0.051
-0.0143,0.052
-0.0075,0.053
-0.0046,0.054
0.0022,0.055
0.003,0.056
-0.0053,0.057
-0.0091,0.058
-0.0113,0.059
-0.006,0.06
-0.0046,0.061
-0.003,0.062
0.009,0.063
0.0097,0.064
0.0052,0.065
-0.0046,0.066
-0.0098,0.067
-0.0083,0.068
-0.0105,0.069
-0.0091,0.07
-0.0083,0.071
-0.0046,0.072
-0.0008,0.073
-0.0008,0.074
0.003,0.075
0.0067,0.076
0.0105,0.077
0.0127,0.078
0.0142,0.079
0.0127,0.08
0.006,0.081
0.0015,0.082
0.0067,0.083
0.0165,0.084
0.0217,0.085
0.0195,0.086
0.0202,0.087
0.0165,0.088
0.0037,0.089
-0.006,0.09
-0.021,0.091
-0.0315,0.092
-0.033,0.093
-0.0375,0.094
-0.0315,0.095
-0.0173,0.096
0.0067,0.097
0.0345,0.098
0.0547,0.099
0.0667,0.1
0.057,0.101
0.0427,0.102
0.024,0.103
-0.003,0.104
-0.0218,0.105
-0.0346,0.106
-0.0256,0.107
-0.0105,0.108
-0.0068,0.109
-0.0046,0.11
-0.0105,0.111
-0.0083,0.112
-0.003,0.113
0.0105,0.114
0.0345,0.115
0.045,0.116
0.048,0.117
0.0435,0.118
0.0247,0.119
-0.0038,0.12
-0.0405,0.121
-0.0743,0.122
-0.0923,0.123
-0.1058,0.124
-0.0938,0.125
-0.0593,0.126
-0.0256,0.127
0.0142,0.128
0.0562,0.129
0.09,0.13
0.1087,0.131
0.1027,0.132
0.0787,0.133
0.0472,0.134
0.009,0.135
-0.0308,0.136
-0.0735,0.137
-0.096,0.138
-0.096,0.139
-0.0795,0.14
-0.0375,0.141
-0.0098,0.142
0.0142,0.143
0.03,0.144
0.0405,0.145
0.063,0.146
0.0652,0.147
0.0607,0.148
0.0562,0.149
0.0412,0.15
0.0247,0.151
0.0022,0.152
-0.024,0.153
-0.0428,0.154
-0.042,0.155
-0.0285,0.156
-0.0113,0.157
0.006,0.158
0.024,0.159
0.0345,0.16
0.0405,0.161
0.0397,0.162
0.039,0.163
0.0382,0.164
0.0202,0.165
-0.0008,0.166
-0.0203,0.167
-0.0308,0.168
-0.0361,0.169
-0.045,0.17
-0.0525,0.171
-0.057,0.172
-0.0413,0.173
-0.0256,0.174
0.0015,0.175
0.018,0.176
0.0187,0.177
0.027,0.178
0.018,0.179
0.0232,0.18
0.024,0.181
0.0142,0.182
0.009,0.183
-0.0105,0.184
-0.0173,0.185
-0.024,0.186
-0.0173,0.187
0.0007,0.188
0.009,0.189
0.0195,0.19
0.0202,0.191
0.0247,0.192
0.0255,0.193
0.0255,0.194
0.03,0.195
0.0345,0.196
0.0427,0.197
0.0345,0.198
0.0195,0.199
-0.0015,0.2
-0.0203,0.201
-0.0285,0.202
-0.039,0.203
-0.0443,0.204
-0.0533,0.205
-0.0465,0.206
-0.0353,0.207
-0.0256,0.208
-0.0075,0.209
0.0037,0.21
0.0352,0.211
0.0645,0.212
0.075,0.213
0.0915,0.214
0.0877,0.215
0.0585,0.216
0.0165,0.217
-0.0353,0.218
-0.0833,0.219
-0.1163,0.22
-0.1208,0.221
-0.1028,0.222
-0.0668,0.223
-0.0181,0.224
0.0277,0.225
0.0547,0.226
0.0562,0.227
0.063,0.228
0.0577,0.229
0.0405,0.23
0.018,0.231
-0.0135,0.232
-0.0315,0.233
-0.0473,0.234
-0.0458,0.235
-0.027,0.236
-0.0218,0.237
-0.0128,0.238
-0.0091,0.239
-0.0068,0.24
0.009,0.241
0.0307,0.242
0.0457,0.243
0.0472,0.244
0.0442,0.245
0.0352,0.246
0.03,0.247
0.0345,0.248
0.0322,0.249
0.0367,0.25
0.0307,0.251
0.0082,0.252
-0.015,0.253
-0.0248,0.254
-0.0248,0.255
-0.0233,0.256
-0.0135,0.257
-0.0181,0.258
-0.0256,0.259
-0.0383,0.26
-0.0495,0.261
-0.054,0.262
-0.0555,0.263
-0.0353,0.264
-0.0091,0.265
0.0352,0.266
0.078,0.267
0.1012,0.268
0.1065,0.269
0.0937,0.27
0.0675,0.271
0.024,0.272
-0.0143,0.273
-0.0585,0.274
-0.0915,0.275
-0.105,0.276
-0.1028,0.277
-0.0608,0.278
-0.0091,0.279
0.0345,0.28
0.0742,0.281
0.0817,0.282
0.0652,0.283
0.0427,0.284
0.018,0.285
0.0015,0.286
-0.0128,0.287
-0.0203,0.288
-0.027,0.289
-0.0278,0.29
-0.0195,0.291
-0.0105,0.292
-0.0008,0.293
-0.003,0.294
-0.0113,0.295
-0.012,0.296
0.0007,0.297
0.0142,0.298
0.0315,0.299
0.054,0.3
0.0667,0.301
0.0832,0.302
0.0802,0.303
0.054,0.304
0.0172,0.305
-0.0375,0.306
-0.0825,0.307
-0.123,0.308
-0.1485,0.309
-0.1523,0.31
-0.1253,0.311
-0.075,0.312
-0.0293,0.313
0.033,0.314
0.0817,0.315
0.1125,0.316
0.1372,0.317
0.1222,0.318
0.1087,0.319
0.081,0.32
0.0487,0.321
0.0105,0.322
-0.0495,0.323
-0.084,0.324
-0.0975,0.325
-0.081,0.326
-0.0495,0.327
-0.015,0.328
0.03,0.329
0.0637,0.33
0.0915,0.331
0.1125,0.332
0.1087,0.333
0.0765,0.334
0.0217,0.335
-0.0458,0.336
-0.0938,0.337
-0.1328,0.338
-0.1441,0.339
-0.1335,0.34
-0.1065,0.341
-0.0436,0.342
-0.0008,0.343
0.0495,0.344
0.0682,0.345
0.0607,0.346
0.06,0.347
0.0292,0.348
0.0367,0.349
0.0345,0.35
0.0465,0.351
0.0577,0.352
0.0292,0.353
0.0195,0.354
-0.0218,0.355
-0.0458,0.356
-0.0653,0.357
-0.0728,0.358
-0.0405,0.359
-0.0008,0.36
0.0502,0.361
0.0532,0.362
0.0517,0.363
0.0442,0.364
0.03,0.365
0.0352,0.366
0.0217,0.367
0.0202,0.368
0.0067,0.369
-0.0075,0.37
-0.012,0.371
-0.0195,0.372
-0.0181,0.373
-0.0248,0.374
-0.015,0.375
0.0097,0.376
0.03,0.377
0.0442,0.378
0.0495,0.379
0.033,0.38
0.012,0.381
0.0007,0.382
-0.0218,0.383
-0.0473,0.384
-0.063,0.385
-0.0608,0.386
-0.0338,0.387
0.0232,0.388
0.054,0.389
0.0765,0.39
0.1065,0.391
0.0915,0.392
0.0712,0.393
0.0285,0.394
-0.0308,0.395
-0.0863,0.396
-0.1275,0.397
-0.1508,0.398
-0.1838,0.399
-0.1838,0.4
-0.15,0.401
-0.0915,0.402
-0.0361,0.403
-0.0008,0.404
0.048,0.405
0.0997,0.406
0.1402,0.407
0.1642,0.408
0.1537,0.409
0.111,0.41
0.0487,0.411
0.0052,0.412
-0.0248,0.413
-0.0555,0.414
-0.0518,0.415
-0.0233,0.416
0.012,0.417
0.015,0.418
0.0232,0.419
0.0367,0.42
0.0052,0.421
0.0045,0.422
-0.0038,0.423
-0.0203,0.424
-0.0413,0.425
-0.0668,0.426
-0.0518,0.427
-0.0225,0.428
0.0345,0.429
0.075,0.43
0.0877,0.431
0.0967,0.432
0.0892,0.433
0.0795,0.434
0.0802,0.435
0.0615,0.436
0.0232,0.437
-0.024,0.438
-0.0735,0.439
-0.09,0.44
-0.0691,0.441
-0.033,0.442
-0.012,0.443
-0.0068,0.444
-0.0225,0.445
-0.0525,0.446
-0.0728,0.447
-0.0825,0.448
-0.0691,0.449
-0.0315,0.45
-0.0008,0.451
0.015,0.452
0.012,0.453
0.012,0.454
0.009,0.455
0.0127,0.456
0.0442,0.457
0.057,0.458
0.072,0.459
0.0817,0.46
0.09,0.461
0.1065,0.462
0.1087,0.463
0.105,0.464
0.072,0.465
0.027,0.466
-0.0293,0.467
-0.1103,0.468
-0.2085,0.469
-0.2633,0.47
-0.2363,0.471
-0.1448,0.472
-0.006,0.473
0.0892,0.474
0.1357,0.475
0.129,0.476
0.0667,0.477
0.0285,0.478
-0.0173,0.479
-0.0675,0.48
-0.0885,0.481
-0.0555,0.482
0.0127,0.483
0.0877,0.484
0.1522,0.485
0.1702,0.486
0.1522,0.487
0.1192,0.488
0.0855,0.489
0.0142,0.49
-0.078,0.491
-0.1665,0.492
-0.2378,0.493
-0.2573,0.494
-0.2273,0.495
-0.1485,0.496
-0.0735,0.497
0.0337,0.498
0.12,0.499
0.1402,0.5
0.156,0.501
0.1275,0.502
0.1095,0.503
0.0915,0.504
0.0682,0.505
0.0607,0.506
0.06,0.507
0.0555,0.508
-0.0008,0.509
-0.054,0.51
-0.132,0.511
-0.1815,0.512
-0.1688,0.513
-0.1223,0.514
-0.057,0.515
-0.0173,0.516
0.0667,0.517
0.1335,0.518
0.1635,0.519
0.1567,0.52
0.1155,0.521
0.0825,0.522
0.0277,0.523
-0.012,0.524
-0.0675,0.525
-0.1013,0.526
-0.084,0.527
-0.039,0.528
0.0217,0.529
0.0772,0.53
0.1522,0.531
0.1815,0.532
0.195,0.533
0.1627,0.534
0.0502,0.535
-0.063,0.536
-0.1928,0.537
-0.2625,0.538
-0.27,0.539
-0.2198,0.54
-0.1538,0.541
-0.1785,0.542
-0.1973,0.543
-0.1965,0.544
-0.1035,0.545
0.0427,0.546
0.1012,0.547
0.189,0.548
0.2107,0.549
0.1927,0.55
0.189,0.551
0.1305,0.552
0.0952,0.553
0.03,0.554
0.0142,0.555
0.0382,0.556
0.0607,0.557
0.0945,0.558
0.045,0.559
0.0052,0.56
-0.0623,0.561
-0.1373,0.562
-0.1448,0.563
-0.093,0.564
0.0345,0.565
0.0742,0.566
0.1042,0.567
0.1492,0.568
0.141,0.569
0.1237,0.57
0.0157,0.571
-0.1268,0.572
-0.2806,0.573
-0.3443,0.574
-0.264,0.575
-0.1305,0.576
0.0435,0.577
0.1545,0.578
0.2175,0.579
0.216,0.58
0.1552,0.581
0.1012,0.582
0.0472,0.583
0.0352,0.584
0.0472,0.585
0.102,0.586
0.0982,0.587
0.0052,0.588
-0.0863,0.589
-0.2588,0.59
-0.3518,0.591
-0.3293,0.592
-0.24,0.593
-0.1088,0.594
-0.0555,0.595
0.024,0.596
0.0465,0.597
0.081,0.598
0.141,0.599
0.1275,0.6
0.1695,0.601
0.1897,0.602
0.2497,0.603
0.2797,0.604
0.2437,0.605
0.2107,0.606
0.0675,0.607
-0.0818,0.608
-0.2333,0.609
-0.3728,0.61
-0.3975,0.611
-0.261,0.612
-0.0436,0.613
0.1065,0.614
0.2265,0.615
0.2332,0.616
0.1447,0.617
0.0075,0.618
-0.1013,0.619
-0.1058,0.62
-0.0585,0.621
0.033,0.622
0.0937,0.623
0.1005,0.624
-0.0015,0.625
-0.1605,0.626
-0.3421,0.627
-0.4268,0.628
-0.2625,0.629
-0.0878,0.63
0.042,0.631
0.177,0.632
0.2587,0.633
0.312,0.634
0.3082,0.635
0.2745,0.636
0.2032,0.637
0.0915,0.638
-0.0263,0.639
-0.1088,0.64
-0.0833,0.641
-0.0218,0.642
0.0502,0.643
0.081,0.644
0.0195,0.645
-0.0405,0.646
-0.129,0.647
-0.2026,0.648
-0.2093,0.649
-0.1726,0.65
-0.075,0.651
-0.0038,0.652
0.0592,0.653
0.0975,0.654
0.0967,0.655
0.0825,0.656
0.0135,0.657
-0.0368,0.658
-0.0795,0.659
-0.063,0.66
0.0142,0.661
0.0982,0.662
0.1927,0.663
0.2047,0.664
0.195,0.665
0.1387,0.666
0.0607,0.667
-0.012,0.668
-0.0458,0.669
-0.0015,0.67
-0.054,0.671
-0.1268,0.672
-0.2011,0.673
-0.2595,0.674
-0.2235,0.675
-0.1283,0.676
-0.0083,0.677
0.0345,0.678
0.0015,0.679
-0.0308,0.68
-0.0091,0.681
0.0082,0.682
-0.0413,0.683
-0.1058,0.684
-0.1575,0.685
-0.1058,0.686
0.0195,0.687
0.1477,0.688
0.2647,0.689
0.3135,0.69
0.3517,0.691
0.2985,0.692
0.1762,0.693
0.024,0.694
-0.1995,0.695
-0.2648,0.696
-0.2513,0.697
-0.1875,0.698
-0.0083,0.699
0.0727,0.7
0.1252,0.701
0.1192,0.702
-0.0068,0.703
-0.0465,0.704
-0.012,0.705
0.0735,0.706
0.0615,0.707
-0.048,0.708
-0.0818,0.709
-0.1178,0.71
-0.1381,0.711
-0.1823,0.712
-0.1935,0.713
-0.093,0.714
0.0067,0.715
0.1297,0.716
0.2107,0.717
0.2587,0.718
0.273,0.719
0.207,0.72
0.114,0.721
-0.0346,0.722
-0.1515,0.723
-0.207,0.724
-0.2498,0.725
-0.2183,0.726
-0.1448,0.727
-0.0765,0.728
0.0195,0.729
0.1125,0.73
0.1867,0.731
0.1522,0.732
0.0802,0.733
0.0547,0.734
-0.0173,0.735
-0.024,0.736
-0.0068,0.737
0.0,0.738
0.0277,0.739
0.0427,0.74
0.1162,0.741
0.1537,0.742
0.1987,0.743
0.2122,0.744
0.1155,0.745
0.0307,0.746
-0.0953,0.747
-0.1328,0.748
-0.1935,0.749
-0.3421,0.75
-0.3173,0.751
-0.2595,0.752
-0.1485,0.753
-0.0091,0.754
0.0765,0.755
0.135,0.756
0.0907,0.757
0.036,0.758
-0.0495,0.759
-0.0046,0.76
0.1297,0.761
0.1695,0.762
0.2827,0.763
0.3195,0.764
0.315,0.765
0.2242,0.766
0.0255,0.767
-0.1238,0.768
-0.3653,0.769
-0.4313,0.77
-0.3458,0.771
-0.2445,0.772
-0.1148,0.773
-0.0518,0.774
0.0435,0.775
0.1455,0.776
0.2302,0.777
0.2325,0.778
0.2092,0.779
0.123,0.78
-0.0458,0.781
-0.1013,0.782
-0.1283,0.783
-0.1988,0.784
-0.1988,0.785
-0.0353,0.786
0.1012,0.787
0.1267,0.788
0.1267,0.789
0.0022,0.79
-0.195,0.791
-0.3458,0.792
-0.3436,0.793
-0.1508,0.794
0.0427,0.795
0.1912,0.796
0.3232,0.797
0.3262,0.798
0.2527,0.799
0.1252,0.8
0.0322,0.801
-0.0053,0.802
-0.0938,0.803
-0.114,0.804
-0.0871,0.805
0.003,0.806
0.108,0.807
0.153,0.808
0.1747,0.809
0.12,0.81
0.039,0.811
-0.0728,0.812
-0.1485,0.813
-0.1748,0.814
-0.114,0.815
0.0675,0.816
0.2437,0.817
0.3615,0.818
0.3547,0.819
0.2947,0.82
0.165,0.821
0.0217,0.822
-0.12,0.823
-0.273,0.824
-0.3308,0.825
-0.5295,0.826
-0.6863,0.827
-0.5611,0.828
-0.3578,0.829
-0.1028,0.83
0.1687,0.831
0.4342,0.832
0.5985,0.833
0.5887,0.834
0.4012,0.835
0.0975,0.836
-0.1703,0.837
-0.4088,0.838
-0.546,0.839
-0.462,0.84
-0.2625,0.841
-0.0683,0.842
0.1012,0.843
0.2902,0.844
0.45,0.845
0.486,0.846
0.4582,0.847
0.3382,0.848
0.195,0.849
0.033,0.85
-0.2993,0.851
-0.5595,0.852
-0.5213,0.853
-0.3818,0.854
-0.2858,0.855
-0.1703,0.856
-0.075,0.857
0.105,0.858
0.2602,0.859
0.276,0.86
0.2917,0.861
0.2842,0.862
0.261,0.863
0.1425,0.864
-0.0518,0.865
-0.246,0.866
-0.2881,0.867
-0.1853,0.868
-0.1193,0.869
0.0202,0.87
0.1282,0.871
0.1342,0.872
0.1335,0.873
0.0675,0.874
0.024,0.875
0.0112,0.876
0.0442,0.877
0.1357,0.878
0.1987,0.879
0.207,0.88
0.12,0.881
-0.0181,0.882
-0.1635,0.883
-0.1711,0.884
-0.0863,0.885
-0.0893,0.886
-0.1575,0.887
-0.3083,0.888
-0.363,0.889
-0.2888,0.89
-0.1373,0.891
0.1357,0.892
0.2827,0.893
0.36,0.894
0.3645,0.895
0.1995,0.896
0.0405,0.897
-0.1238,0.898
-0.1455,0.899
-0.1006,0.9
0.0195,0.901
0.21,0.902
0.24,0.903
0.1635,0.904
-0.0615,0.905
-0.2153,0.906
-0.2723,0.907
-0.3248,0.908
-0.2836,0.909
-0.1875,0.91
0.012,0.911
0.189,0.912
0.2895,0.913
0.297,0.914
0.2257,0.915
0.1072,0.916
-0.1021,0.917
-0.2513,0.918
-0.2708,0.919
-0.1635,0.92
-0.0465,0.921
0.0592,0.922
0.1387,0.923
0.1447,0.924
0.1515,0.925
0.1102,0.926
0.0577,0.927
0.0232,0.928
0.0487,0.929
0.0412,0.93
-0.0105,0.931
-0.0008,0.932
0.009,0.933
0.0652,0.934
0.0547,0.935
-0.0181,0.936
-0.0998,0.937
-0.2205,0.938
-0.2498,0.939
-0.2385,0.94
-0.2033,0.941
-0.0668,0.942
0.0585,0.943
0.132,0.944
0.1965,0.945
0.2107,0.946
0.1972,0.947
0.1267,0.948
0.024,0.949
-0.033,0.95
-0.0825,0.951
-0.0728,0.952
-0.0233,0.953
-0.0008,0.954
-0.0075,0.955
-0.0143,0.956
0.048,0.957
0.1372,0.958
0.2295,0.959
0.2932,0.96
0.2482,0.961
0.072,0.962
-0.162,0.963
-0.3263,0.964
-0.48,0.965
-0.5498,0.966
-0.3765,0.967
-0.1335,0.968
0.057,0.969
0.174,0.97
0.2257,0.971
0.2107,0.972
0.1597,0.973
0.1702,0.974
0.2002,0.975
0.141,0.976
0.054,0.977
0.0067,0.978
-0.0053,0.979
-0.012,0.98
-0.0758,0.981
-0.1403,0.982
-0.1275,0.983
-0.0015,0.984
0.1117,0.985
0.1987,0.986
0.2407,0.987
0.171,0.988
0.1012,0.989
-0.0436,0.99
-0.2108,0.991
-0.3923,0.992
-0.5573,0.993
-0.4688,0.994
-0.2948,0.995
-0.1215,0.996
0.0592,0.997
0.1845,0.998
0.2925,0.999
0.3427,1.0
0.3367,1.001
0.2992,1.002
0.2272,1.003
0.0877,1.004
-0.1006,1.005
-0.165,1.006
-0.108,1.007
-0.048,1.008
-0.0008,1.009
-0.0128,1.01
-0.033,1.011
-0.0743,1.012
-0.1155,1.013
-0.0533,1.014
0.0502,1.015
0.2175,1.016
0.3532,1.017
0.4155,1.018
0.3615,1.019
0.1462,1.02
-0.1148,1.021
-0.4155,1.022
-0.6435,1.023
-0.6458,1.024
-0.441,1.025
-0.2048,1.026
0.0592,1.027
0.21,1.028
0.2542,1.029
0.243,1.03
0.1035,1.031
-0.0195,1.032
-0.099,1.033
-0.0315,1.034
0.0315,1.035
0.0937,1.036
0.198,1.037
0.1897,1.038
0.2115,1.039
0.1575,1.04
0.0952,1.041
0.003,1.042
-0.0893,1.043
-0.0308,1.044
-0.006,1.045
0.0645,1.046
0.0592,1.047
-0.0368,1.048
-0.1523,1.049
-0.2978,1.05
-0.2168,1.051
-0.0743,1.052
0.039,1.053
0.15,1.054
0.1635,1.055
0.147,1.056
0.0097,1.057
-0.1193,1.058
-0.1335,1.059
-0.0458,1.06
0.0967,1.061
0.1192,1.062
0.0787,1.063
-0.0458,1.064
-0.09,1.065
-0.0503,1.066
-0.0608,1.067
-0.015,1.068
0.0157,1.069
0.0705,1.07
0.1012,1.071
0.0315,1.072
-0.078,1.073
-0.1545,1.074
-0.1553,1.075
-0.1275,1.076
-0.0608,1.077
-0.048,1.078
0.0052,1.079
0.1005,1.08
0.1267,1.081
0.1882,1.082
0.1785,1.083
0.1425,1.084
0.075,1.085
-0.0143,1.086
-0.0263,1.087
-0.0398,1.088
0.027,1.089
0.0952,1.09
0.108,1.091
0.063,1.092
-0.0623,1.093
-0.1523,1.094
-0.1988,1.095
-0.1575,1.096
-0.108,1.097
-0.1073,1.098
-0.0803,1.099
-0.042,1.1
0.0105,1.101
0.063,1.102
0.1185,1.103
0.183,1.104
0.2182,1.105
0.2355,1.106
0.1837,1.107
0.0405,1.108
-0.1021,1.109
-0.2048,1.11
-0.2175,1.111
-0.2033,1.112
-0.1965,1.113
-0.1125,1.114
0.0135,1.115
0.099,1.116
0.1207,1.117
0.0405,1.118
-0.0765,1.119
-0.081,1.12
-0.0278,1.121
0.015,1.122
0.099,1.123
0.1507,1.124
0.1965,1.125
0.2407,1.126
0.2077,1.127
0.1507,1.128
0.012,1.129
-0.1808,1.13
-0.3533,1.131
-0.3645,1.132
-0.2168,1.133
-0.1253,1.134
0.0067,1.135
0.12,1.136
0.1702,1.137
0.189,1.138
0.0952,1.139
0.0412,1.14
-0.0158,1.141
-0.0218,1.142
0.0937,1.143
0.2235,1.144
0.3285,1.145
0.2767,1.146
0.0937,1.147
-0.1898,1.148
-0.438,1.149
-0.5145,1.15
-0.4838,1.151
-0.2123,1.152
0.036,1.153
0.1965,1.154
0.3495,1.155
0.2985,1.156
0.2325,1.157
0.018,1.158
-0.1815,1.159
-0.2873,1.16
-0.3443,1.161
-0.1958,1.162
-0.0743,1.163
0.0922,1.164
0.1972,1.165
0.2197,1.166
0.2385,1.167
0.15,1.168
0.0727,1.169
-0.0278,1.17
-0.0518,1.171
-0.0075,1.172
0.0382,1.173
0.1327,1.174
0.1807,1.175
0.1927,1.176
0.1177,1.177
-0.0533,1.178
-0.2168,1.179
-0.2663,1.18
-0.2505,1.181
-0.2535,1.182
-0.1711,1.183
-0.0795,1.184
0.0015,1.185
0.0915,1.186
0.1297,1.187
0.1672,1.188
0.1365,1.189
0.0862,1.19
0.0487,1.191
-0.0015,1.192
0.012,1.193
0.0322,1.194
0.0735,1.195
0.0892,1.196
0.0232,1.197
-0.033,1.198
-0.0383,1.199
-0.0015,1.2
0.0435,1.201
0.0577,1.202
0.0517,1.203
0.0517,1.204
0.039,1.205
0.0337,1.206
-0.0195,1.207
-0.108,1.208
-0.1868,1.209
-0.297,1.21
-0.3008,1.211
-0.1898,1.212
-0.0953,1.213
0.0307,1.214
0.1305,1.215
0.1837,1.216
0.2235,1.217
0.1935,1.218
0.1537,1.219
0.0712,1.22
-0.015,1.221
-0.0743,1.222
-0.1125,1.223
-0.0998,1.224
-0.0893,1.225
0.009,1.226
0.0915,1.227
0.1492,1.228
0.1702,1.229
0.0937,1.23
0.0225,1.231
-0.1493,1.232
-0.207,1.233
-0.1388,1.234
-0.0713,1.235
0.018,1.236
0.042,1.237
0.069,1.238
0.0142,1.239
-0.048,1.24
-0.0863,1.241
-0.0953,1.242
0.0015,1.243
0.024,1.244
0.0157,1.245
0.0142,1.246
0.0405,1.247
0.0862,1.248
0.0967,1.249
0.0915,1.25
0.051,1.251
0.0225,1.252
0.0142,1.253
0.024,1.254
0.0247,1.255
-0.0075,1.256
-0.0256,1.257
-0.0375,1.258
-0.03,1.259
-0.024,1.26
-0.0293,1.261
-0.0008,1.262
0.0262,1.263
0.0675,1.264
0.1102,1.265
0.075,1.266
-0.003,1.267
-0.114,1.268
-0.165,1.269
-0.0975,1.27
-0.042,1.271
0.003,1.272
0.036,1.273
0.018,1.274
0.0097,1.275
0.0082,1.276
0.0157,1.277
0.0307,1.278
0.0112,1.279
-0.006,1.28
0.0007,1.281
0.0097,1.282
0.03,1.283
0.0345,1.284
0.0322,1.285
0.0375,1.286
0.0165,1.287
0.009,1.288
0.0052,1.289
-0.0008,1.29
0.0045,1.291
-0.0015,1.292
0.012,1.293
0.0382,1.294
0.051,1.295
0.024,1.296
-0.0308,1.297
-0.0878,1.298
-0.1133,1.299
-0.0706,1.3
-0.0436,1.301
-0.0361,1.302
0.0202,1.303
0.0742,1.304
0.0697,1.305
0.0367,1.306
-0.012,1.307
-0.0278,1.308
0.0322,1.309
0.0525,1.31
0.0435,1.311
-0.0143,1.312
-0.1065,1.313
-0.1553,1.314
-0.1643,1.315
-0.0765,1.316
-0.0233,1.317
0.0157,1.318
0.0607,1.319
0.0675,1.32
0.0817,1.321
0.0525,1.322
0.0667,1.323
0.0727,1.324
0.0817,1.325
0.1132,1.326
0.0975,1.327
0.0795,1.328
-0.0165,1.329
-0.0653,1.33
-0.048,1.331
-0.0706,1.332
-0.0555,1.333
-0.0225,1.334
0.0157,1.335
0.0255,1.336
-0.0015,1.337
-0.0181,1.338
-0.0473,1.339
-0.0721,1.34
-0.0795,1.341
-0.0698,1.342
-0.0353,1.343
0.0052,1.344
0.0517,1.345
0.0855,1.346
0.1027,1.347
0.1125,1.348
0.0877,1.349
0.045,1.35
-0.0195,1.351
-0.0623,1.352
-0.0885,1.353
-0.1103,1.354
-0.0691,1.355
-0.033,1.356
0.0067,1.357
0.045,1.358
0.0615,1.359
0.0742,1.36
0.0547,1.361
0.0345,1.362
-0.0008,1.363
-0.0181,1.364
-0.027,1.365
-0.0188,1.366
0.0202,1.367
0.0405,1.368
0.0765,1.369
0.0742,1.37
0.039,1.371
0.0337,1.372
0.012,1.373
-0.0068,1.374
-0.0353,1.375
-0.0871,1.376
-0.1065,1.377
-0.1163,1.378
-0.111,1.379
-0.0458,1.38
-0.0098,1.381
0.0045,1.382
0.0112,1.383
0.0,1.384
0.0097,1.385
0.0097,1.386
0.0247,1.387
0.0292,1.388
0.0292,1.389
0.0405,1.39
0.042,1.391
0.0517,1.392
0.0472,1.393
0.0457,1.394
0.0367,1.395
0.0247,1.396
0.0277,1.397
0.009,1.398
-0.0038,1.399
0.0187,1.4
0.024,1.401
-0.0038,1.402
-0.0405,1.403
-0.0885,1.404
-0.1035,1.405
-0.0871,1.406
-0.0653,1.407
-0.0195,1.408
0.0097,1.409
0.0232,1.41
0.0277,1.411
0.0232,1.412
0.0367,1.413
0.0337,1.414
0.0367,1.415
0.0427,1.416
0.0315,1.417
0.0285,1.418
0.0075,1.419
0.0022,1.42
0.0052,1.421
0.003,1.422
0.012,1.423
-0.0053,1.424
-0.0195,1.425
-0.033,1.426
-0.0405,1.427
-0.0203,1.428
0.0045,1.429
0.0292,1.43
0.0337,1.431
0.0315,1.432
0.0187,1.433
-0.0158,1.434
-0.0465,1.435
-0.0458,1.436
-0.033,1.437
-0.0165,1.438
0.0015,1.439
-0.0046,1.44
-0.0046,1.441
-0.0083,1.442
0.0045,1.443
0.033,1.444
0.0427,1.445
0.054,1.446
0.048,1.447
0.042,1.448
0.0255,1.449
0.003,1.45
-0.0143,1.451
-0.0346,1.452
-0.0353,1.453
-0.039,1.454
-0.0383,1.455
-0.0233,1.456
-0.0091,1.457
0.0067,1.458
0.0165,1.459
0.0255,1.46
0.0307,1.461
0.0277,1.462
0.0195,1.463
0.0037,1.464
-0.0046,1.465
-0.0068,1.466
-0.003,1.467
0.0052,1.468
0.0052,1.469
0.0075,1.47
0.0075,1.471
0.009,1.472
0.0105,1.473
0.0052,1.474
0.0022,1.475
-0.006,1.476
-0.0091,1.477
-0.012,1.478
-0.0128,1.479
-0.0105,1.48
-0.0091,1.481
0.009,1.482
0.0277,1.483
0.045,1.484
0.045,1.485
0.0307,1.486
0.0105,1.487
-0.027,1.488
-0.054,1.489
-0.0713,1.49
-0.0518,1.491
-0.0195,1.492
-0.003,1.493
0.0045,1.494
-0.0091,1.495
0.0097,1.496
0.024,1.497
0.0292,1.498
0.048,1.499
0.033,1.5
0.0345,1.501
0.0277,1.502
0.0157,1.503
0.0,1.504
-0.0428,1.505
-0.0533,1.506
-0.0653,1.507
-0.0458,1.508
-0.0068,1.509
0.018,1.51
0.063,1.511
0.072,1.512
0.0675,1.513
0.0255,1.514
-0.0368,1.515
-0.0623,1.516
-0.063,1.517
-0.0315,1.518
-0.0046,1.519
0.0195,1.52
0.036,1.521
0.0315,1.522
0.0337,1.523
0.0367,1.524
0.0345,1.525
0.027,1.526
0.0232,1.527
0.0157,1.528
0.0037,1.529
-0.0008,1.53
-0.0165,1.531
-0.0323,1.532
-0.0248,1.533
-0.0173,1.534
-0.0098,1.535
-0.0181,1.536
-0.0518,1.537
-0.078,1.538
-0.0615,1.539
-0.0158,1.54
0.009,1.541
0.0345,1.542
0.0457,1.543
0.0412,1.544
0.0405,1.545
0.0202,1.546
0.0157,1.547
0.0082,1.548
0.0007,1.549
0.0022,1.55
-0.003,1.551
0.0022,1.552
0.0007,1.553
0.0075,1.554
0.0135,1.555
0.0082,1.556
0.0045,1.557
0.0075,1.558
0.012,1.559
0.0097,1.56
0.0067,1.561
0.0022,1.562
-0.0053,1.563
-0.0143,1.564
-0.0181,1.565
-0.0105,1.566
-0.0046,1.567
0.0015,1.568
0.009,1.569
0.012,1.57
0.0127,1.571
0.0127,1.572
0.0075,1.573
0.0015,1.574
-0.0046,1.575
-0.0015,1.576
0.0082,1.577
0.015,1.578
0.0202,1.579
0.0165,1.58
0.0142,1.581
0.0097,1.582
-0.0083,1.583
-0.0308,1.584
-0.048,1.585
-0.0368,1.586
-0.0225,1.587
-0.012,1.588
-0.0008,1.589
-0.003,1.59
-0.0046,1.591
0.006,1.592
0.0232,1.593
0.0315,1.594
0.0352,1.595
0.0337,1.596
0.0277,1.597
0.0172,1.598
-0.0038,1.599
-0.0158,1.6
-0.027,1.601
-0.0315,1.602
-0.0128,1.603
0.0045,1.604
0.0112,1.605
0.0097,1.606
0.0015,1.607
-0.012,1.608
-0.033,1.609
-0.0308,1.61
-0.0128,1.611
0.0105,1.612
0.0382,1.613
0.0465,1.614
0.0487,1.615
0.0345,1.616
0.018,1.617
0.0142,1.618
0.0067,1.619
-0.003,1.62
-0.0195,1.621
-0.0293,1.622
-0.0338,1.623
-0.0383,1.624
-0.0293,1.625
-0.0256,1.626
-0.0091,1.627
0.012,1.628
0.021,1.629
0.0315,1.63
0.0292,1.631
0.0292,1.632
0.018,1.633
0.009,1.634
0.0112,1.635
0.003,1.636
0.003,1.637
-0.0023,1.638
-0.0165,1.639
-0.0165,1.64
-0.0135,1.641
-0.0046,1.642
0.0075,1.643
0.009,1.644
0.0135,1.645
0.0127,1.646
0.009,1.647
0.0045,1.648
-0.003,1.649
-0.0068,1.65
-0.0098,1.651
-0.0083,1.652
-0.0053,1.653
0.003,1.654
0.0202,1.655
0.0292,1.656
0.0277,1.657
0.0195,1.658
0.0127,1.659
0.0105,1.66
0.009,1.661
0.0067,1.662
-0.0128,1.663
-0.0443,1.664
-0.0735,1.665
-0.0706,1.666
-0.0473,1.667
-0.0256,1.668
0.0045,1.669
0.0202,1.67
0.0337,1.671
0.036,1.672
0.0277,1.673
0.0255,1.674
0.0105,1.675
0.0105,1.676
0.0082,1.677
0.0075,1.678
0.012,1.679
0.0052,1.68
0.006,1.681
-0.0008,1.682
-0.0046,1.683
-0.006,1.684
-0.0083,1.685
0.0007,1.686
0.0052,1.687
0.0082,1.688
0.0052,1.689
0.0037,1.69
0.0007,1.691
-0.0075,1.692
-0.0053,1.693
-0.0053,1.694
-0.0053,1.695
-0.003,1.696
0.0045,1.697
0.0105,1.698
0.0142,1.699
0.0202,1.7
0.0127,1.701
0.009,1.702
0.0,1.703
-0.0015,1.704
-0.0015,1.705
-0.0015,1.706
0.0007,1.707
-0.0046,1.708
-0.0068,1.709
-0.0113,1.71
-0.0068,1.711
0.0015,1.712
0.0045,1.713
0.0082,1.714
0.009,1.715
0.009,1.716
0.0037,1.717
0.0052,1.718
0.0052,1.719
-0.0008,1.72
-0.0015,1.721
-0.0068,1.722
-0.0015,1.723
0.006,1.724
0.0067,1.725
0.012,1.726
0.009,1.727
0.0015,1.728
-0.003,1.729
-0.0015,1.73
0.009,1.731
0.015,1.732
0.0232,1.733
0.0315,1.734
0.0345,1.735
0.0337,1.736
0.0165,1.737
-0.0046,1.738
-0.0338,1.739
-0.06,1.74
-0.0675,1.741
-0.0615,1.742
-0.0383,1.743
-0.0181,1.744
0.0075,1.745
0.0375,1.746
0.0562,1.747
0.0592,1.748
0.0495,1.749
0.0367,1.75
0.018,1.751
-0.0068,1.752
-0.03,1.753
-0.0465,1.754
-0.048,1.755
-0.0368,1.756
-0.0128,1.757
0.012,1.758
0.0285,1.759
0.0345,1.76
0.0285,1.761
0.0202,1.762
0.0097,1.763
-0.0023,1.764
-0.0105,1.765
-0.0181,1.766
-0.0218,1.767
-0.0233,1.768
-0.0188,1.769
-0.006,1.77
0.0067,1.771
0.0172,1.772
0.024,1.773
0.0225,1.774
0.0157,1.775
0.0037,1.776
0.0007,1.777
-0.0015,1.778
-0.006,1.779
0.0045,1.78
0.0105,1.781
0.0157,1.782
0.0172,1.783
0.0097,1.784
0.0067,1.785
0.0045,1.786
0.0015,1.787
-0.003,1.788
-0.0053,1.789
0.0,1.79
0.012,1.791
0.0255,1.792
0.0322,1.793
0.033,1.794
0.0232,1.795
0.0015,1.796
-0.0353,1.797
-0.0735,1.798
-0.0825,1.799
-0.0593,1.8
-0.0323,1.801
-0.0053,1.802
0.015,1.803
0.0217,1.804
0.027,1.805
0.0277,1.806
0.0247,1.807
0.0217,1.808
0.018,1.809
0.0112,1.81
0.0015,1.811
-0.0023,1.812
-0.003,1.813
-0.0008,1.814
-0.0023,1.815
-0.0046,1.816
-0.0053,1.817
-0.0083,1.818
-0.0053,1.819
-0.0008,1.82
0.0082,1.821
0.0157,1.822
0.0195,1.823
0.0195,1.824
0.0105,1.825
0.0045,1.826
0.0007,1.827
-0.0015,1.828
0.0,1.829
-0.0008,1.83
-0.0038,1.831
-0.0008,1.832
-0.0008,1.833
-0.0008,1.834
0.0,1.835
0.0015,1.836
0.006,1.837
0.0082,1.838
0.0135,1.839
0.0127,1.84
0.015,1.841
0.0165,1.842
0.0165,1.843
0.0217,1.844
0.0112,1.845
-0.003,1.846
-0.0181,1.847
-0.0293,1.848
-0.0293,1.849
-0.0256,1.85
-0.0218,1.851
-0.0173,1.852
-0.0143,1.853
-0.0083,1.854
-0.0008,1.855
0.0022,1.856
0.0105,1.857
0.0142,1.858
0.0142,1.859
0.0127,1.86
0.0082,1.861
0.0052,1.862
0.003,1.863
0.0015,1.864
0.0007,1.865
-0.0008,1.866
0.0015,1.867
0.0067,1.868
0.012,1.869
0.0127,1.87
0.0127,1.871
0.0165,1.872
0.0135,1.873
0.0105,1.874
0.0127,1.875
0.0165,1.876
0.0142,1.877
0.006,1.878
-0.0008,1.879
-0.0091,1.88
-0.0165,1.881
-0.0218,1.882
-0.0278,1.883
-0.0278,1.884
-0.024,1.885
-0.0181,1.886
-0.012,1.887
-0.006,1.888
0.0007,1.889
0.0075,1.89
0.0142,1.891
0.0157,1.892
0.0172,1.893
0.0187,1.894
0.018,1.895
0.0217,1.896
0.0165,1.897
0.012,1.898
0.0097,1.899
0.0052,1.9
0.0052,1.901
0.0045,1.902
0.0045,1.903
0.003,1.904
0.0045,1.905
0.0022,1.906
-0.0023,1.907
-0.003,1.908
-0.0068,1.909
-0.0053,1.91
-0.0038,1.911
-0.003,1.912
0.0007,1.913
0.0045,1.914
0.0045,1.915
0.0,1.916
-0.0015,1.917
-0.0046,1.918
-0.0068,1.919
-0.003,1.92
0.0007,1.921
0.0015,1.922
0.0052,1.923
0.0067,1.924
0.0082,1.925
0.0052,1.926
-0.0008,1.927
-0.0038,1.928
-0.0046,1.929
-0.0008,1.93
-0.0008,1.931
0.0052,1.932
0.0052,1.933
0.0045,1.934
0.0105,1.935
0.0082,1.936
0.009,1.937
0.0075,1.938
0.0052,1.939
0.0037,1.94
0.0007,1.941
0.0007,1.942
-0.0046,1.943
-0.0046,1.944
-0.003,1.945
-0.0008,1.946
0.0015,1.947
-0.0015,1.948
-0.0015,1.949
-0.0008,1.95
0.0007,1.951
0.003,1.952
0.0037,1.953
0.0015,1.954
0.0,1.955
0.0015,1.956
0.0052,1.957
0.0075,1.958
0.0067,1.959
0.0067,1.96
0.003,1.961
-0.0046,1.962
-0.0083,1.963
-0.0105,1.964
-0.0105,1.965
-0.015,1.966
-0.0128,1.967
-0.0091,1.968
-0.0038,1.969
0.003,1.97
0.009,1.971
0.0127,1.972
0.0082,1.973
0.0105,1.974
0.009,1.975
0.0105,1.976
0.0127,1.977
0.0082,1.978
0.0097,1.979
0.0022,1.98
0.0007,1.981
-0.0008,1.982
-0.0008,1.983
0.003,1.984
0.0052,1.985
0.0075,1.986
0.0067,1.987
0.0082,1.988
0.003,1.989
-0.0008,1.99
-0.0046,1.991
-0.0105,1.992
-0.0098,1.993
-0.0113,1.994
-0.0075,1.995
-0.0038,1.996
-0.0015,1.997
0.0015,1.998
0.0,1.999
0.0045,2.0
0.0067,2.001
0.012,2.002
0.0142,2.003
0.012,2.004
0.009,2.005
0.006,2.006
0.0045,2.007
-0.0008,2.008
-0.0008,2.009
-0.0015,2.01
0.0015,2.011
0.0045,2.012
0.0045,2.013
0.006,2.014
0.003,2.015
0.006,2.016
0.0082,2.017
0.0052,2.018
0.0015,2.019
-0.0038,2.02
-0.006,2.021
-0.0105,2.022
-0.0128,2.023
-0.0091,2.024
-0.0068,2.025
-0.0015,2.026
0.0022,2.027
0.0022,2.028
0.0045,2.029
0.0037,2.03
0.0052,2.031
0.0052,2.032
0.0067,2.033
0.0067,2.034
0.0067,2.035
0.0045,2.036
0.0007,2.037
0.0007,2.038
-0.0008,2.039
0.0007,2.04
0.0,2.041
-0.0008,2.042
-0.0008,2.043
0.0,2.044
0.0022,2.045
0.003,2.046
0.003,2.047
0.0075,2.048
0.0082,2.049
0.006,2.05
0.0037,2.051
-0.0015,2.052
-0.003,2.053
-0.0038,2.054
-0.0008,2.055
0.0015,2.056
0.003,2.057
0.0045,2.058
0.0037,2.059
0.0045,2.06
0.0007,2.061
-0.0015,2.062
0.0007,2.063
0.0015,2.064
0.003,2.065
0.0022,2.066
0.0007,2.067
0.0015,2.068
0.0015,2.069
0.0015,2.07
0.0015,2.071
0.0022,2.072
0.0045,2.073
-0.0008,2.074
-0.0008,2.075
-0.0046,2.076
-0.0068,2.077
-0.0038,2.078
-0.0053,2.079
