VaMe,time
-0.0012122481207468558,0.001
0.0008309903428616035,0.002
0.002342897887208355,0.003
0.0028519876886542936,0.004
0.0020963733380365023,0.005
0.00012418559375315828,0.006
-0.0026633550423224065,0.007
-0.005560952379245541,0.008
-0.007742533938637903,0.009
-0.008556357235395579,0.01
-0.007777657915637724,0.011
-0.005648489229798359,0.012
-0.002688027480162443,0.013
0.0006020792796186637,0.014
0.003965764355892072,0.015
0.007394555096417757,0.016
0.010850121587824526,0.017
0.013925139312801081,0.018
0.015849391651327906,0.019
0.015937263623039037,0.02
0.01410088923658352,0.021
0.0110130078674856,0.022
0.007766679453724193,0.023
0.0052320866481792416,0.024
0.003620759627967383,0.025
0.0025819940880718157,0.026
0.0015762917474928346,0.027
0.00012615211383088833,0.028
-0.0021136183130314313,0.029
-0.005326937430336762,0.03
-0.009456549559617207,0.031
-0.01412256651309321,0.032
-0.018678560805912174,0.033
-0.022413674155667668,0.034
-0.02474007461947081,0.035
-0.025260245905120878,0.036
-0.023768665781879684,0.037
-0.020235873641385942,0.038
-0.014742553789410608,0.039
-0.00743305059569873,0.04
0.0013338466248336944,0.041
0.010651337376507503,0.042
0.018904551575898078,0.043
0.024188905605996402,0.044
0.025262771796411062,0.045
0.022389220859942736,0.046
0.017330174394951745,0.047
0.012423959594115573,0.048
0.009432044628269378,0.049
0.008868361692174852,0.05
0.010022156689640183,0.051
0.011476699620825046,0.052
0.011779305497332693,0.053
0.009982641017009351,0.054
0.005893518592602656,0.055
-3.051426761724603e-05,0.056
-0.006967019160994865,0.057
-0.013902348921005279,0.058
-0.019656145667584075,0.059
-0.02299725050194618,0.06
-0.02300623589267121,0.061
-0.01952164668959844,0.062
-0.013297539032200132,0.063
-0.005678293979199855,0.064
0.0019599806161495685,0.065
0.0085988056488024,0.066
0.013681011379217872,0.067
0.016994461675408936,0.068
0.018376489044576,0.069
0.017489374330593836,0.07
0.014046588255288277,0.071
0.008354215062509617,0.072
0.0015018527854138016,0.073
-0.005106030637183454,0.074
-0.010416105292422715,0.075
-0.014005738320313741,0.076
-0.015900149461903167,0.077
-0.016237952598613457,0.078
-0.015098488215231153,0.079
-0.012576820477013279,0.08
-0.008947392872121915,0.081
-0.004741766991419018,0.082
-0.0007243403588850741,0.083
0.0021998168142975667,0.084
0.003214486348488558,0.085
0.002000912942893803,0.086
-0.0009527702014382619,0.087
-0.004513476984544011,0.088
-0.007417378774895982,0.089
-0.008660840686474647,0.09
-0.007586154195783079,0.091
-0.003862154221060506,0.092
0.0024142461205978716,0.093
0.010477418036514325,0.094
0.01878041591083052,0.095
0.02532874521005909,0.096
0.028416440038138365,0.097
0.027361179092820306,0.098
0.02278926838659718,0.099
0.016236492776576524,0.1
0.009328334520155189,0.101
0.0031472798527512006,0.102
-0.0019443168568836456,0.103
-0.006149798925575684,0.104
-0.009868680772072213,0.105
-0.013331564664832393,0.106
-0.016472704406691473,0.107
-0.0189598467016328,0.108
-0.020255429751133477,0.109
-0.01977311288117373,0.11
-0.017148068294625927,0.111
-0.012489037542140308,0.112
-0.006460218126334069,0.113
-0.00014626697948457357,0.114
0.005260030062952753,0.115
0.008896262540010098,0.116
0.010539080304331752,0.117
0.010439994372694817,0.118
0.008931264748508678,0.119
0.0063909733860677345,0.12
0.003500791492520215,0.121
0.0012169924409338967,0.122
0.00029481414149393616,0.123
0.0008019349307765908,0.124
0.0020823519644585097,0.125
0.003168473955430444,0.126
0.0033041684046030417,0.127
0.0023187652584069117,0.128
0.0006829831345465167,0.129
-0.000848678608996329,0.13
-0.0017728338941770828,0.131
-0.0021148756222784805,0.132
-0.0022805797033941125,0.133
-0.0026653370651391326,0.134
-0.0033099144469045396,0.135
-0.0038217990331720574,0.136
-0.0036390779106236964,0.137
-0.0025028110855351273,0.138
-0.0007837195354816514,0.139
0.0006837792066477199,0.14
0.00117393716980041,0.141
0.0005292457384728078,0.142
-0.0008440213212572941,0.143
-0.002317811303465824,0.144
-0.0034273027582233015,0.145
-0.004075298774231608,0.146
-0.00443129395222588,0.147
-0.004644354809045135,0.148
-0.004660964396109376,0.149
-0.004245728520318788,0.15
-0.0031173901805769126,0.151
-0.0011689827081702645,0.152
0.0013256467154119853,0.153
0.003775569414318864,0.154
0.005670410135314717,0.155
0.006947230164911415,0.156
0.007945094247867901,0.157
0.009036204965471589,0.158
0.010293646493460441,0.159
0.011384568892015086,0.16
0.011714069500744136,0.161
0.010823568454767044,0.162
0.008793013132536796,0.163
0.006166124951964184,0.164
0.0034144413996672687,0.165
0.0005616307188488484,0.166
-0.002645795626105279,0.167
-0.006261802560370003,0.168
-0.009890354415042551,0.169
-0.012895800802460947,0.17
-0.014760188982866712,0.171
-0.015288133642359546,0.172
-0.01470123165314112,0.173
-0.013583259163146314,0.174
-0.012514267893337084,0.175
-0.011555163625687244,0.176
-0.010113799821463834,0.177
-0.007492830551455695,0.178
-0.0036273211473140444,0.179
0.0008247754200225195,0.18
0.00520763781677555,0.181
0.009675800881727457,0.182
0.01514011457972501,0.183
0.022195668991039953,0.184
0.030004442118503512,0.185
0.036240749516959776,0.186
0.038203547364354586,0.187
0.03420972613849168,0.188
0.024335703654328446,0.189
0.010264257377153202,0.19
-0.005456705053102567,0.191
-0.020287633030161425,0.192
-0.032309173417851535,0.193
-0.040401552524322364,0.194
-0.04410799319088919,0.195
-0.04343021296288094,0.196
-0.038688306856316246,0.197
-0.030484513369321287,0.198
-0.019787475592607233,0.199
-0.00797509044225301,0.2
0.003371196576046126,0.201
0.012863038524413782,0.202
0.019679360099496505,0.203
0.02372442396504033,0.204
0.02545123712472008,0.205
0.025450472689770572,0.206
0.024067710788419485,0.207
0.021295938258867487,0.208
0.01700284044280851,0.209
0.011235575928087577,0.21
0.0043738417614589175,0.211
-0.0028423508880471224,0.212
-0.009425185495468287,0.213
-0.01438949272262088,0.214
-0.016997856485272165,0.215
-0.01694007672813524,0.216
-0.014425297403879368,0.217
-0.010110476902606013,0.218
-0.004905651742866496,0.219
0.00017674663562689403,0.22
0.004143772511550169,0.221
0.006309167362769424,0.222
0.0066225790643869775,0.223
0.0056818795765187485,0.224
0.004426417970216607,0.225
0.003755046050742891,0.226
0.004165421626214678,0.227
0.005515720735557126,0.228
0.007116307534937789,0.229
0.008147925081552328,0.23
0.00807270465150207,0.231
0.00676419664423377,0.232
0.004440582615683917,0.233
0.00158236350674211,0.234
-0.0011662853702716432,0.235
-0.0031693503917583406,0.236
-0.004046008286398376,0.237
-0.003940806492488132,0.238
-0.0035586068927456996,0.239
-0.0037259851542201516,0.24
-0.004787872896829416,0.241
-0.006407059839042192,0.242
-0.007893009487205326,0.243
-0.00869379653523215,0.244
-0.00864557438490292,0.245
-0.00791640958498605,0.246
-0.006818664712912473,0.247
-0.00561545897058046,0.248
-0.004423935242028631,0.249
-0.0032874843531636917,0.25
-0.002274284731802087,0.251
-0.0013887671003145986,0.252
-0.00036558830240839663,0.253
0.001362777359785752,0.254
0.004365462067601478,0.255
0.008709952613084354,0.256
0.013617010500572598,0.257
0.017603009194531838,0.258
0.01908612703589198,0.259
0.017114825740647436,0.26
0.011837804591736958,0.261
0.004462899063991274,0.262
-0.0032903878769241206,0.263
-0.009896098502404546,0.264
-0.014449491149250827,0.265
-0.016686630422279483,0.266
-0.016754524171458635,0.267
-0.014934793482730902,0.268
-0.011470747577593497,0.269
-0.00657991137629339,0.27
-0.0006558850324462465,0.271
0.00546943322513839,0.272
0.010536680271437754,0.273
0.01339192433737345,0.274
0.013699671850847835,0.275
0.012118047916650526,0.276
0.009688216789959753,0.277
0.007005508317705673,0.278
0.0039465528711499,0.279
8.180803562413597e-05,0.28
-0.0047161624506706435,0.281
-0.009931765725035286,0.282
-0.01450193807456824,0.283
-0.01722744050224812,0.284
-0.017240430520345257,0.285
-0.014401622670682233,0.286
-0.0095105476236696,0.287
-0.004037704727320712,0.288
0.0006427004793878677,0.289
0.003921764427478045,0.29
0.005986772997842138,0.291
0.007428392510949086,0.292
0.008928582674613354,0.293
0.011102083033526867,0.294
0.014256579708272125,0.295
0.018035129538114265,0.296
0.021221447685237097,0.297
0.022072159510463176,0.298
0.01922419670681131,0.299
0.012594138806396302,0.3
0.0035616750864456777,0.301
-0.005580566951489886,0.302
-0.012541177971265386,0.303
-0.016028706419444327,0.304
-0.016309624558143054,0.305
-0.01485365564713911,0.306
-0.013353342355879573,0.307
-0.012796861821606264,0.308
-0.01304742811311976,0.309
-0.013087364419643022,0.31
-0.011756597554285314,0.311
-0.008504693211743066,0.312
-0.0037011063072041445,0.313
0.00157957990057106,0.314
0.005994176573503877,0.315
0.008271486982450308,0.316
0.007506559987910599,0.317
0.0035895515458419128,0.318
-0.0024257663974178232,0.319
-0.00843425037696594,0.32
-0.011956585519851277,0.321
-0.01108396356724036,0.322
-0.005314541265883452,0.323
0.004109448246220768,0.324
0.014576068820975386,0.325
0.022972325960453958,0.326
0.026721190464314017,0.327
0.024754353418600692,0.328
0.0179556411129181,0.329
0.008648895081513517,0.33
-0.0005299967244480261,0.331
-0.007555136181925362,0.332
-0.011359652193827448,0.333
-0.011813073263983108,0.334
-0.009546987837755223,0.335
-0.005670926836466333,0.336
-0.0014152705488173335,0.337
0.002161171356970012,0.338
0.004268319104731548,0.339
0.004373752971549859,0.34
0.0023036856157522727,0.341
-0.0015761411979641681,0.342
-0.006378966007496853,0.343
-0.010985419982981212,0.344
-0.014363386899801187,0.345
-0.015736561452849428,0.346
-0.014682639769466502,0.347
-0.01126674772127233,0.348
-0.006087486057843979,0.349
-9.874178123640988e-05,0.35
0.005678348818022439,0.351
0.010378498914010678,0.352
0.013469592405477139,0.353
0.014882557150844406,0.354
0.014908735963246461,0.355
0.013884411025176823,0.356
0.01198770807488894,0.357
0.009311643075719767,0.358
0.00604108718174744,0.359
0.002529798078332708,0.36
-0.0007405076946953852,0.361
-0.0032679062845523896,0.362
-0.004691139127420115,0.363
-0.004958545229796638,0.364
-0.004389886394400798,0.365
-0.003552528413770516,0.366
-0.003035387440246023,0.367
-0.0032829727464357295,0.368
-0.004540311641424017,0.369
-0.006826138521809135,0.37
-0.009893066605756194,0.371
-0.01322533042220954,0.372
-0.016084032386695216,0.373
-0.017589751555639663,0.374
-0.016880619864543936,0.375
-0.013389060075460235,0.376
-0.007183092562819101,0.377
0.0008718183720577855,0.378
0.00931811076713943,0.379
0.016524220099557545,0.38
0.021148059910594687,0.381
0.02265984583930502,0.382
0.02160980381386106,0.383
0.01916266016039792,0.384
0.01623803984216858,0.385
0.013139069851741637,0.386
0.009802397087067762,0.387
0.006130275528433358,0.388
0.002176494340459939,0.389
-0.0017779665835556998,0.39
-0.005320881499721839,0.391
-0.008062425512516274,0.392
-0.009648079678557152,0.393
-0.009780995717959413,0.394
-0.008449971373217928,0.395
-0.006151449699808372,0.396
-0.003803274043836052,0.397
-0.002409457456270007,0.398
-0.002708684571130927,0.399
-0.0048829276455398295,0.4
-0.00838071814207752,0.401
-0.012012130635041045,0.402
-0.014389733402695722,0.403
-0.014540041177674611,0.404
-0.012310688143550751,0.405
-0.008319312499048371,0.406
-0.003559306859215734,0.407
0.0010136900246984495,0.408
0.004691249271462662,0.409
0.007043186478697374,0.41
0.007925008430354982,0.411
0.007496137678387487,0.412
0.006178939468526571,0.413
0.004544237922253562,0.414
0.003141563070762152,0.415
0.0023415091220917584,0.416
0.0023094720956073206,0.417
0.003110327061276947,0.418
0.00482886488519129,0.419
0.007604838768020938,0.42
0.011460859540776924,0.421
0.01587671085255005,0.422
0.01948736050481516,0.423
0.02050449098545784,0.424
0.017736237771765438,0.425
0.011312391647538046,0.426
0.002619354802074295,0.427
-0.006352754781351414,0.428
-0.013890984682479101,0.429
-0.019161780961821816,0.43
-0.02210807363915912,0.431
-0.022895739767891127,0.432
-0.0215317701281116,0.433
-0.01793261319709385,0.434
-0.012327128872693046,0.435
-0.00563237950843657,0.436
0.0006367869550265555,0.437
0.005008489664592887,0.438
0.006782532234887887,0.439
0.006274818286510871,0.44
0.004483071358953199,0.441
0.002525574483894189,0.442
0.0011933218163626643,0.443
0.0007757269641346045,0.444
0.001119527758375473,0.445
0.001744683124507213,0.446
0.0020410202455348244,0.447
0.0016973402510378794,0.448
0.001062751399016148,0.449
0.0008840754448117889,0.45
0.0015708451464821259,0.451
0.0028080069684397703,0.452
0.003896948913866606,0.453
0.004386773831027066,0.454
0.004386245099852379,0.455
0.0043585042803842775,0.456
0.004630637230827732,0.457
0.004996016166244923,0.458
0.004728866312791306,0.459
0.003060581872924904,0.46
-0.0002138891333698281,0.461
-0.004444990313603013,0.462
-0.008386113531255821,0.463
-0.010830975751150083,0.464
-0.011160824555926097,0.465
-0.00949452652877766,0.466
-0.006476202022784769,0.467
-0.002875756870665577,0.468
0.00075466678591441,0.469
0.004160288104951524,0.47
0.007207249940550132,0.471
0.009621605616280813,0.472
0.010863247828097632,0.473
0.010322277139782296,0.474
0.007773498470024915,0.475
0.003702783481359169,0.476
-0.0008453880346685689,0.477
-0.004827282021792722,0.478
-0.007719887980204439,0.479
-0.009577611817820337,0.48
-0.010602568962497439,0.481
-0.010687094549289466,0.482
-0.009423585353019036,0.483
-0.006530646451815731,0.484
-0.0022484136942822253,0.485
0.0025949257284232567,0.486
0.006865193932732129,0.487
0.009558608520256558,0.488
0.010122011624078189,0.489
0.008553060686004678,0.49
0.005331249560737413,0.491
0.0012496519747644125,0.492
-0.0027727770840513186,0.493
-0.005851678864814443,0.494
-0.007281333207106047,0.495
-0.006669038723207322,0.496
-0.004056013769167155,0.497
-1.8978192232276436e-05,0.498
0.004318190496453626,0.499
0.007544949731166928,0.5
0.008574233122747578,0.501
0.0072495282821297335,0.502
0.004411670377304284,0.503
0.001365959598322902,0.504
-0.0007654881723351974,0.505
-0.0013686727051485774,0.506
-0.00033606153769815767,0.507
0.0019917871749219984,0.508
0.004812924989930603,0.509
0.0069531533255012,0.51
0.007210627278391732,0.511
0.004829349574690289,0.512
-0.00015107756468311047,0.513
-0.006858548014398385,0.514
-0.013887415205996463,0.515
-0.01975144498291872,0.516
-0.023257017941575486,0.517
-0.0236842068352113,0.518
-0.020819429707516234,0.519
-0.014982248173584086,0.52
-0.007098543795608694,0.521
0.0013865319279435723,0.522
0.00895037888214452,0.523
0.014546644984661511,0.524
0.017850978370937253,0.525
0.01913138333357333,0.526
0.018953048605048067,0.527
0.017919684301979818,0.528
0.016489501267330037,0.529
0.014778170266671643,0.53
0.012491287694326945,0.531
0.009238278993868393,0.532
0.005011760431704306,0.533
0.00032591179688984276,0.534
-0.004099339344874912,0.535
-0.007737781120168306,0.536
-0.010385000856271094,0.537
-0.012016285166780959,0.538
-0.012601971892562177,0.539
-0.012087567082761937,0.54
-0.010551851124417552,0.541
-0.008315386874124146,0.542
-0.00582921033289102,0.543
-0.0034881466960131123,0.544
-0.0015519760843989707,0.545
-0.00013476322240566597,0.546
0.000803485369599797,0.547
0.0014261436248447508,0.548
0.0019460762351255234,0.549
0.0025451841849407765,0.55
0.0032759254398309723,0.551
0.003962592393540414,0.552
0.004231532064967658,0.553
0.0037387507341149306,0.554
0.0024270838602361866,0.555
0.0005816759381217627,0.556
-0.0013281467782875515,0.557
-0.002846980422697668,0.558
-0.003681263807092814,0.559
-0.0038162924069819882,0.56
-0.003497656329964426,0.561
-0.0029653130560509766,0.562
-0.0021684748226728882,0.563
-0.000810138071650134,0.564
0.0013017471155074344,0.565
0.003945474856014664,0.566
0.006475661579713947,0.567
0.008057772375179238,0.568
0.007960734533860295,0.569
0.0058299693011794555,0.57
0.0019084084175700921,0.571
-0.0028966098366263304,0.572
-0.007212327915847287,0.573
-0.009689415052733519,0.574
-0.009606536827655377,0.575
-0.007208967394814959,0.576
-0.003511148346754127,0.577
0.0002568435337903614,0.578
0.003150234796903737,0.579
0.004765361873632695,0.58
0.005240733429490429,0.581
0.005016643617884417,0.582
0.004495975817633502,0.583
0.003833292777330414,0.584
0.002946671205520454,0.585
0.0017014720353047627,0.586
0.00014923301868674613,0.587
-0.001346910758591451,0.588
-0.002224900982731561,0.589
-0.002029280420795179,0.59
-0.0006986075682731996,0.591
0.0013880163146230435,0.592
0.0036207342857245087,0.593
0.0054183785684594095,0.594
0.006351585817783473,0.595
0.006142459889874253,0.596
0.004673437828608523,0.597
0.0020638625994454838,0.598
-0.0012758316975013536,0.599
-0.00473675457164301,0.6
-0.007733933084741475,0.601
-0.009900546762635656,0.602
-0.011134489004927618,0.603
-0.011499993764687442,0.604
-0.011059851259220325,0.605
-0.009757728371350912,0.606
-0.0074844835219617,0.607
-0.004310457567116028,0.608
-0.0006141377837003221,0.609
0.003063478960385555,0.61
0.006228602753767589,0.611
0.00850037997917552,0.612
0.009617650850154213,0.613
0.009490231059072799,0.614
0.008269188499057618,0.615
0.00638892840810879,0.616
0.0044874716294329535,0.617
0.00314216772236132,0.618
0.002580539517369704,0.619
0.0026022230189336115,0.62
0.002755423651484557,0.621
0.002619396293830905,0.622
0.0019974390640539693,0.623
0.0009347676119242438,0.624
-0.00037985889759490835,0.625
-0.0017512221471749384,0.626
-0.0030681120577332795,0.627
-0.0042573176804409155,0.628
-0.005171825550926588,0.629
-0.005584091003372953,0.63
-0.00530162653879676,0.631
-0.0042683898192998285,0.632
-0.0025762017344736774,0.633
-0.00046095559121216953,0.634
0.001660391838600039,0.635
0.003203882109268449,0.636
0.0035673742803520284,0.637
0.002361515548464465,0.638
-0.0003705001626395791,0.639
-0.004051683891620291,0.64
-0.0077092717568746855,0.641
-0.01030402000611916,0.642
-0.011046979105738432,0.643
-0.00958287178902767,0.644
-0.0060299046714120084,0.645
-0.0009399057867537513,0.646
0.0047377653048464715,0.647
0.009779994765025066,0.648
0.013069659277820514,0.649
0.01408719263519332,0.65
0.013073390584282005,0.651
0.01069510688930921,0.652
0.00758434410783273,0.653
0.004150968346292515,0.654
0.0006606138826476766,0.655
-0.0026463162889631482,0.656
-0.005525891415389328,0.657
-0.00778051111985545,0.658
-0.009297420789515003,0.659
-0.010014575543720096,0.66
-0.009861222505981303,0.661
-0.008744292342909006,0.662
-0.006600108889153779,0.663
-0.0034965761220848075,0.664
0.0002862205656361787,0.665
0.004298106026145168,0.666
0.008062260000761712,0.667
0.011161445545091606,0.668
0.013205962639701715,0.669
0.013801968057877388,0.67
0.012624064863008256,0.671
0.009574031130524617,0.672
0.004954207854931149,0.673
-0.0004374698338253856,0.674
-0.005415824820695179,0.675
-0.00876629949426627,0.676
-0.009737804295398961,0.677
-0.008456584813297566,0.678
-0.005977583029648982,0.679
-0.0037692421924150755,0.68
-0.0028547211044470866,0.681
-0.003248989891083978,0.682
-0.004149272152254656,0.683
-0.004678933749250201,0.684
-0.004524755096885561,0.685
-0.0039800469721455135,0.686
-0.003537057774176121,0.687
-0.0034983213251853344,0.688
-0.0038021871265109418,0.689
-0.0040225236760283315,0.69
-0.00353179681676361,0.691
-0.001771166065731369,0.692
0.0014831469753477284,0.693
0.005920930845347012,0.694
0.01065112419389052,0.695
0.014432444516732361,0.696
0.016183733975706206,0.697
0.01549557642723979,0.698
0.012754292002949029,0.699
0.0088447037993466,0.7
0.004722827022717055,0.701
0.001045554647125186,0.702
-0.0020063297951269615,0.703
-0.004563937844927766,0.704
-0.00672248449967652,0.705
-0.008380992525165547,0.706
-0.009388359317744472,0.707
-0.009758209425099916,0.708
-0.009673330332931508,0.709
-0.009299091753041673,0.71
-0.008657781748243349,0.711
-0.0076670405148550275,0.712
-0.006239232943205819,0.713
-0.004375784883073408,0.714
-0.0022467479396452274,0.715
-0.00019821195312787036,0.716
0.0013514313931532577,0.717
0.0020695237807144473,0.718
0.001836343244965533,0.719
0.0008042995341073443,0.72
-0.0006179184197386516,0.721
-0.0018549395941592707,0.722
-0.0023166580592331857,0.723
-0.0015855406405185925,0.724
0.00043607752655160656,0.725
0.0035093619818463056,0.726
0.007188761347894619,0.727
0.011009087984872273,0.728
0.01456430804434069,0.729
0.017398576601965858,0.73
0.018890436050468504,0.731
0.018387533536453032,0.732
0.015590354553090113,0.733
0.010879037133795268,0.734
0.005223464261267079,0.735
-0.0003389097089908496,0.736
-0.005230248835653673,0.737
-0.00942597873072067,0.738
-0.01309469419708483,0.739
-0.016179550897225246,0.74
-0.018304340144684926,0.741
-0.018988420523789327,0.742
-0.01791355446011792,0.743
-0.015093710873284606,0.744
-0.01092337633215084,0.745
-0.006085043624300028,0.746
-0.0013460239934226844,0.747
0.0026416450659820278,0.748
0.005433162801656532,0.749
0.006771006551358035,0.75
0.006574137216109989,0.751
0.005020691256304003,0.752
0.002618954465452602,0.753
0.0001233672765157125,0.754
-0.001714887021181236,0.755
-0.0024538415197324272,0.756
-0.002127280124582316,0.757
-0.0011191248829459696,0.758
0.00014339765486877338,0.759
0.0013916652467713198,0.76
0.002506933915147395,0.761
0.0034360093638200672,0.762
0.004145068075427828,0.763
0.004603631887059253,0.764
0.004782540707443912,0.765
0.004685568320661712,0.766
0.004408994318196801,0.767
0.00416951237765446,0.768
0.004242056675915194,0.769
0.0048241385888459646,0.77
0.005925761696137247,0.771
0.0073663557727736825,0.772
0.00883667611452586,0.773
0.009926233596247018,0.774
0.010126963056694084,0.775
0.00893241541194985,0.776
0.006055757197120378,0.777
0.0016097124249878155,0.778
-0.0038811069732437213,0.779
-0.009593005971385779,0.78
-0.014575835139919526,0.781
-0.017978968895346087,0.782
-0.019281211086190696,0.783
-0.018452598428792686,0.784
-0.015999750990886144,0.785
-0.012828084549193581,0.786
-0.009911621420704772,0.787
-0.007910844892371281,0.788
-0.006953502378486115,0.789
-0.0066928162615164846,0.79
-0.006547493473557656,0.791
-0.00594873479228679,0.792
-0.0045257998813548845,0.793
-0.0022049291770142696,0.794
0.0008557772728779949,0.795
0.0044711272756407785,0.796
0.008541209244259686,0.797
0.012917826926903754,0.798
0.01721386115554108,0.799
0.02081782508261335,0.8
0.02308542816570454,0.801
0.02350589918727667,0.802
0.021790141458322764,0.803
0.017988407313013266,0.804
0.012617740865791942,0.805
0.006607067877702444,0.806
0.0010054959933384865,0.807
-0.0033765395859829293,0.808
-0.006201496221071894,0.809
-0.007618076597771586,0.81
-0.00809316000984772,0.811
-0.008197396620331865,0.812
-0.008420376330803956,0.813
-0.009023281939814519,0.814
-0.009972602868743677,0.815
-0.010983426747429194,0.816
-0.011631768969194618,0.817
-0.011484545668069914,0.818
-0.010230744802072507,0.819
-0.007812313522343179,0.82
-0.004488577853762531,0.821
-0.0007551389141386013,0.822
0.002815442883928779,0.823
0.005685171576937129,0.824
0.007423487059209281,0.825
0.007804609726427863,0.826
0.006885465770201086,0.827
0.00498241510119903,0.828
0.002549799310140792,0.829
3.181574246827358e-05,0.83
-0.0022291345816200145,0.831
-0.003985565398002101,0.832
-0.00502187442775731,0.833
-0.005132499158515967,0.834
-0.004202991160494031,0.835
-0.0023669302013002128,0.836
-0.000141318450464896,0.837
0.001628202854043053,0.838
0.002161777298627458,0.839
0.0013024777714525989,0.84
-0.00028269675786604534,0.841
-0.0015281865901161636,0.842
-0.001673539818967822,0.843
-0.0006845489498925883,0.844
0.0008482401625959263,0.845
0.0021647897541826502,0.846
0.0028065405724702745,0.847
0.0028301828533395875,0.848
0.00266440695881198,0.849
0.002737115590915314,0.85
0.0031552688159317455,0.851
0.003650625148923843,0.852
0.0037838221752252406,0.853
0.003223258956567189,0.854
0.0019106971939801922,0.855
6.48379792004447e-05,0.856
-0.001907717187413233,0.857
-0.003510654599420793,0.858
-0.004246596385358442,0.859
-0.0037473600562348895,0.86
-0.0019340016221190378,0.861
0.0009133992332087606,0.862
0.00423155405857608,0.863
0.007325311043718274,0.864
0.009525093839924049,0.865
0.010329816925958473,0.866
0.009508308177957054,0.867
0.007107801214017498,0.868
0.0033798113197163185,0.869
-0.0012634060997413212,0.87
-0.0062081997285782006,0.871
-0.010630666713761195,0.872
-0.013638079960721751,0.873
-0.014529632155103703,0.874
-0.013070117539210712,0.875
-0.009656938099144507,0.876
-0.005250155523418129,0.877
-0.0010384941249599667,0.878
0.001992721130897441,0.879
0.0033520942410813076,0.88
0.0030743548632883844,0.881
0.001549432376599021,0.882
-0.0007016880379197846,0.883
-0.003158159848002265,0.884
-0.00529830887907978,0.885
-0.006570341285372709,0.886
-0.0064768590433387065,0.887
-0.004790571042047952,0.888
-0.0017541626172876631,0.889
0.0019314699517660975,0.89
0.005411929696325323,0.891
0.008122993220576216,0.892
0.010043192857587938,0.893
0.011542230447042624,0.894
0.012971036186946602,0.895
0.014346387470154084,0.896
0.01531601143074469,0.897
0.01530569718430995,0.898
0.013702817991052076,0.899
0.01009578522134002,0.9
0.004587029993911028,0.901
-0.0020314251146470548,0.902
-0.00846703453362646,0.903
-0.013433721549242583,0.904
-0.01619645013335091,0.905
-0.01681047732977157,0.906
-0.015896923309077732,0.907
-0.014161562559366401,0.908
-0.012039379488991175,0.909
-0.009661286528811217,0.91
-0.007033270761137974,0.911
-0.004213081155820475,0.912
-0.001380812800181884,0.913
0.0011799007460565093,0.914
0.0031420865299697947,0.915
0.004226335668670013,0.916
0.004320011803843198,0.917
0.003564864606389943,0.918
0.0023584777285600204,0.919
0.001280529300033738,0.92
0.0009435020489295165,0.921
0.001748694442803914,0.922
0.0036320256013604828,0.923
0.005996430598285566,0.924
0.00795135708758956,0.925
0.008732562665943284,0.926
0.008041994910447997,0.927
0.006151941342928833,0.928
0.003726412968512222,0.929
0.001442666212534834,0.93
-0.00030079089657303445,0.931
-0.0014046276256273603,0.932
-0.0019492891225418565,0.933
-0.0021009865540165804,0.934
-0.0020627434444097253,0.935
-0.0020359705288420537,0.936
-0.002151247400969412,0.937
-0.002381337939007189,0.938
-0.00254600698943073,0.939
-0.0024529096841892075,0.94
-0.002049266032475284,0.941
-0.0014670771438688704,0.942
-0.0009683094701409684,0.943
-0.0008241660024943563,0.944
-0.0011590887250765717,0.945
-0.0018452007492736344,0.946
-0.0025312519308351294,0.947
-0.002800286455897437,0.948
-0.0023809792712861,0.949
-0.0012903792193279969,0.95
0.00018824044048085025,0.951
