VaMe,time
-0.0005979435907722599,0.001
0.0038637412613516803,0.002
0.00772554937140607,0.003
0.010218827442088666,0.004
0.0106817443732085,0.005
0.008990303987568378,0.006
0.0056549929304963616,0.007
0.0014935620784399465,0.008
-0.002784719335729578,0.009
-0.006768795118776067,0.01
-0.01018425535731183,0.011
-0.01257619095960201,0.012
-0.013262057349539955,0.013
-0.011702145984920006,0.014
-0.007940900514062687,0.015
-0.0027050944224305627,0.016
0.0028984448995935403,0.017
0.00784459434688753,0.018
0.0114757650618307,0.019
0.01339776054144486,0.02
0.01322186815929011,0.021
0.01066514955833885,0.022
0.006001092238012367,0.023
0.0002299551683059477,0.024
-0.00535490694049513,0.025
-0.009780339085040907,0.026
-0.012656881510871501,0.027
-0.014033604314182902,0.028
-0.014095061273420148,0.029
-0.012937426329143154,0.03
-0.01054300458985936,0.031
-0.006909030329690976,0.032
-0.0022132581096134096,0.033
0.003042763605742755,0.034
0.007981447842394983,0.035
0.011482650477598473,0.036
0.012542575290382905,0.037
0.010783510236213788,0.038
0.0068189334671317214,0.039
0.0021435315396691372,0.04
-0.0014674293524754157,0.041
-0.0027968758400007026,0.042
-0.0018385531547682927,0.043
0.0002372051650863704,0.044
0.001872034801472353,0.045
0.0020928023544153993,0.046
0.0010397985376973584,0.047
-0.0002081048629645385,0.048
-0.0004009680414633738,0.049
0.0010448057184705736,0.05
0.0037818305298581915,0.051
0.0069402152800822,0.052
0.00968630241704126,0.053
0.01144558667625907,0.054
0.011831409850891006,0.055
0.010578553417357653,0.056
0.0075877258273780975,0.057
0.002993202090479909,0.058
-0.0028167308319210728,0.059
-0.00921470889523501,0.06
-0.015391688631552975,0.061
-0.020457102441462358,0.062
-0.023492216768274576,0.063
-0.023591165828938696,0.064
-0.02011267146299534,0.065
-0.013168478727300583,0.066
-0.0039941670574916354,0.067
0.005244972860370576,0.068
0.01232575133128965,0.069
0.015995144384336316,0.07
0.016321454113219048,0.071
0.014147923399713838,0.072
0.010343355887720774,0.073
0.005565679604806266,0.074
0.00043926864543975403,0.075
-0.0043416543523070545,0.076
-0.008082705574870794,0.077
-0.010208758824843836,0.078
-0.010420290558240786,0.079
-0.008844565390886511,0.08
-0.006084250918962075,0.081
-0.00304894706084245,0.082
-0.0005710694230681865,0.083
0.0008848612341067119,0.084
0.0012100868735825203,0.085
0.0005773819968606623,0.086
-0.0004778077479353522,0.087
-0.0009972153625374804,0.088
0.00014437132841764764,0.089
0.003635446758423054,0.09
0.009133648355637094,0.091
0.01518326050827436,0.092
0.019812583668063134,0.093
0.021441816913544565,0.094
0.019528694637492138,0.095
0.014642387395527265,0.096
0.00806771104170189,0.097
0.001280278278130498,0.098
-0.00443670441525252,0.099
-0.008198119255917475,0.1
-0.009632590803621019,0.101
-0.008943868398428851,0.102
-0.006880497250998306,0.103
-0.004574719470339468,0.104
-0.0032294284568460223,0.105
-0.003695808374280771,0.106
-0.006102365790019909,0.107
-0.009752448116626598,0.108
-0.013390983031303054,0.109
-0.015680215262883743,0.11
-0.015645615442972112,0.111
-0.013001604235950195,0.112
-0.00828549713086192,0.113
-0.0027005586533733385,0.114
0.0023059068704811684,0.115
0.005562338454127888,0.116
0.006547180671185698,0.117
0.005450302138696711,0.118
0.002977003210730725,0.119
5.130527503496511e-05,0.12
-0.002494451581933623,0.121
-0.004179254805891179,0.122
-0.004965085699814078,0.123
-0.005109255034047222,0.124
-0.0048219922806530865,0.125
-0.0038756411116523935,0.126
-0.001513817518853466,0.127
0.0030368717363907674,0.128
0.009752061912003944,0.129
0.017393012810568837,0.13
0.023855342528893115,0.131
0.027083262219290583,0.132
0.02600616228502635,0.133
0.020919247429060147,0.134
0.013112665689654152,0.135
0.004160582588722859,0.136
-0.004568696869195474,0.137
-0.012049448735072842,0.138
-0.017570399868798315,0.139
-0.02066614350306135,0.14
-0.0210437037054961,0.141
-0.0186114480310727,0.142
-0.0136810983196633,0.143
-0.0070935430129002745,0.144
2.6995041530699664e-05,0.145
0.006628350836399015,0.146
0.011779702844351448,0.147
0.01464523727671426,0.148
0.014768480184649468,0.149
0.012410281826286644,0.15
0.00844801045633801,0.151
0.003867938772762083,0.152
-0.0006655547906972377,0.153
-0.004870162833934279,0.154
-0.008674165548792858,0.155
-0.012039224315938681,0.156
-0.014844550129102714,0.157
-0.016815840820926093,0.158
-0.017533680883921533,0.159
-0.016602129175975127,0.16
-0.013906931678793588,0.161
-0.00973285241918529,0.162
-0.004646152910912277,0.163
0.0007262893065768872,0.164
0.005863944023744221,0.165
0.010361976480781635,0.166
0.013751135716647036,0.167
0.015359698335121965,0.168
0.014579395273801036,0.169
0.011426568201819384,0.17
0.006848242149168216,0.171
0.002463121825894532,0.172
-0.0001634428144634055,0.173
-0.00033058866072486673,0.174
0.0014491527208445958,0.175
0.003820634472014347,0.176
0.005404450057459698,0.177
0.005519566440849876,0.178
0.00435010896744751,0.179
0.0025528588492932207,0.18
0.0007616370959658417,0.181
-0.0006377481185111221,0.182
-0.001492508770623627,0.183
-0.0018036024779486542,0.184
-0.0016641469257682262,0.185
-0.0012640638543573452,0.186
-0.0009592941587877299,0.187
-0.0012561450550864072,0.188
-0.002618771032818372,0.189
-0.005252637233476241,0.19
-0.008964981959606896,0.191
-0.013041743592712377,0.192
-0.016289839445847276,0.193
-0.017489952548915232,0.194
-0.016035274483207903,0.195
-0.012192031521233352,0.196
-0.006798597828668634,0.197
-0.0007797528559928891,0.198
0.005106648267187926,0.199
0.010264184905365428,0.2
0.014204741436337565,0.201
0.01655573658496738,0.202
0.017137286405012386,0.203
0.016083830514366227,0.204
0.0138807833070003,0.205
0.011167609029237009,0.206
0.008377764834345318,0.207
0.005558904426015571,0.208
0.002586553448701141,0.209
-0.0004984711619640097,0.21
-0.0034099673247963693,0.211
-0.005772229438180382,0.212
-0.007264425636654685,0.213
-0.007679195876807632,0.214
-0.0069802870670616505,0.215
-0.0053863987342750354,0.216
-0.0033624357982585135,0.217
-0.0014435269872178776,0.218
-2.047886758563471e-05,0.219
0.0007773188492788527,0.22
0.0010690912126032853,0.221
0.0010701209020809843,0.222
0.0008986696285512048,0.223
0.0005338737329919446,0.224
-7.080915580844075e-05,0.225
-0.0008997937489010971,0.226
-0.0018746426112692927,0.227
-0.0028592086058873926,0.228
-0.003661966918092944,0.229
-0.004089584113690495,0.23
-0.004021708990799111,0.231
-0.0034521129775168663,0.232
-0.002517140859353909,0.233
-0.0015308695827463091,0.234
-0.0009556854209613843,0.235
-0.001214282132020088,0.236
-0.0024189295809777436,0.237
-0.004258332098340645,0.238
-0.006154195934373559,0.239
-0.007515655863893827,0.24
-0.007847837395108111,0.241
-0.0067084624002301885,0.242
-0.003735565029700495,0.243
0.0011260198237335454,0.244
0.007379642405108381,0.245
0.013987109734527126,0.246
0.019637552801173228,0.247
0.023052381360080743,0.248
0.023216404983225997,0.249
0.019646046163533402,0.25
0.012729555933853755,0.251
0.003829573089570987,0.252
-0.005130110523970813,0.253
-0.01235630036062781,0.254
-0.016707522927222888,0.255
-0.017890202934204853,0.256
-0.016389867436692105,0.257
-0.013192882873049152,0.258
-0.009391476766052263,0.259
-0.005802506631086045,0.26
-0.002729032576435901,0.261
-3.374684758459711e-06,0.262
0.002679089514069069,0.263
0.005360651117215135,0.264
0.007657991873450532,0.265
0.008967873732924556,0.266
0.008880562140962903,0.267
0.007466065489153456,0.268
0.005218697535028066,0.269
0.002759868325712721,0.27
0.0005840180120385619,0.271
-0.0010128269673810124,0.272
-0.001924435455571069,0.273
-0.0022617381919032746,0.274
-0.0023485349563927334,0.275
-0.0025547126360964665,0.276
-0.0030489839830521925,0.277
-0.0037175578668475822,0.278
-0.004322080559932109,0.279
-0.004721619973287299,0.28
-0.004966085372200701,0.281
-0.005215029491096917,0.282
-0.005572352645447961,0.283
-0.005938080097912649,0.284
-0.005937107121349919,0.285
-0.00504431758946673,0.286
-0.002957709392450024,0.287
4.559943538807128e-05,0.288
0.003118188742721566,0.289
0.005241193691187893,0.29
0.005766451088443399,0.291
0.004808602573792622,0.292
0.003207686258994156,0.293
0.0020230142454192358,0.294
0.001965617738704051,0.295
0.003152295353154685,0.296
0.00516570489423253,0.297
0.007331782590293921,0.298
0.00907737377248026,0.299
0.010084023256516021,0.3
0.010201575582899209,0.301
0.009388775781127333,0.302
0.007798252660128216,0.303
0.0058044266522994355,0.304
0.0037942029572281557,0.305
0.0018713881571366122,0.306
-0.00022303388374444734,0.307
-0.0028777635202392195,0.308
-0.006279676338819325,0.309
-0.0102809635260621,0.31
-0.014486159006808257,0.311
-0.01832945928718253,0.312
-0.021052451421097938,0.313
-0.021764942823866013,0.314
-0.019785541427427614,0.315
-0.015141605046501588,0.316
-0.008736968090403398,0.317
-0.0018410881640985154,0.318
0.004684288019209932,0.319
0.010572789320741802,0.32
0.015588559343378262,0.321
0.019039913442118386,0.322
0.02012436375055389,0.323
0.018746858471565712,0.324
0.015804335136766153,0.325
0.01256813436899766,0.326
0.009743059674378381,0.327
0.006976816680996095,0.328
0.0031983014982482974,0.329
-0.002406931638730044,0.33
-0.009523622306597136,0.331
-0.016709538213751738,0.332
-0.02223022737972454,0.333
-0.024895861331085855,0.334
-0.024348639094497943,0.335
-0.020930426609070556,0.336
-0.015390259898404894,0.337
-0.008567780253304784,0.338
-0.0011626366952419659,0.339
0.006351193019490448,0.34
0.013672106115117056,0.341
0.020498587627104308,0.342
0.0262920198376668,0.343
0.030136824672042005,0.344
0.030921688432807556,0.345
0.027851431319920374,0.346
0.020931898813448056,0.347
0.01106461856748798,0.348
-0.00022298503468901005,0.349
-0.011156429620321139,0.35
-0.02003962699586966,0.351
-0.025516060067464826,0.352
-0.026832966690201764,0.353
-0.024101821886637637,0.354
-0.01837116345616143,0.355
-0.01133340952398917,0.356
-0.004751895051026572,0.357
9.604851879896647e-05,0.358
0.002727664153136247,0.359
0.0034277414772848204,0.36
0.002903115336987716,0.361
0.0018370455751136824,0.362
0.0006598298481135868,0.363
-0.00039315382680079697,0.364
-0.0011332109008414556,0.365
-0.0013652294022224994,0.366
-0.0009286517134048369,0.367
0.00026394583946074145,0.368
0.0022144088957323105,0.369
0.004831063049126285,0.37
0.007916929557814272,0.371
0.011127015696734409,0.372
0.013908126222052898,0.373
0.01552957518534538,0.374
0.015283961038127352,0.375
0.012779908975543158,0.376
0.008158942351973121,0.377
0.002130663066067802,0.378
-0.004189176764576887,0.379
-0.009610436659756456,0.38
-0.013240028487620195,0.381
-0.014665464763011542,0.382
-0.013887233821710289,0.383
-0.011187788525771436,0.384
-0.007103374449631281,0.385
-0.0024609571678264838,0.386
0.0017017322078559868,0.387
0.00441931318921989,0.388
0.005087255897239926,0.389
0.0035721651602374847,0.39
0.0002439381808840254,0.391
-0.004041320889883659,0.392
-0.008167725921146696,0.393
-0.011151294764111652,0.394
-0.012427146540721804,0.395
-0.011847535433016048,0.396
-0.009486625169278612,0.397
-0.005530768151354837,0.398
-0.00035014220931654756,0.399
0.005412053753701045,0.4
0.010892744192946533,0.401
0.015210139267804616,0.402
0.01767935999196895,0.403
0.017950458874678304,0.404
0.01611555214236282,0.405
0.012762864584114091,0.406
0.008841677867168503,0.407
0.005323296889519975,0.408
0.002827863242907935,0.409
0.0013927662406321443,0.41
0.00044836778761977726,0.411
-0.0009519902018146204,0.412
-0.0036221785118681882,0.413
-0.007681984367089912,0.414
-0.012369463070672047,0.415
-0.016394754159128517,0.416
-0.01858244860375892,0.417
-0.018393779887946188,0.418
-0.016055626349463555,0.419
-0.012316711517529878,0.42
-0.008052714238990306,0.421
-0.003938651737130969,0.422
-0.00032466846267481026,0.423
0.0026727742203349917,0.424
0.0049981261031566086,0.425
0.006571677807533267,0.426
0.0073438088181444405,0.427
0.007402992745416559,0.428
0.007047325073959188,0.429
0.006785797913479195,0.43
0.007200029112832967,0.431
0.00866127514326652,0.432
0.011112494641348837,0.433
0.014075660698445415,0.434
0.016753031029860914,0.435
0.018081151522619732,0.436
0.016899849685457095,0.437
0.012466241808555786,0.438
0.005117990112104936,0.439
-0.00354652621560302,0.44
-0.011337476414838028,0.441
-0.016531329792416987,0.442
-0.018528095357130406,0.443
-0.01780793640063878,0.444
-0.015426253504468542,0.445
-0.012463991131647652,0.446
-0.009738095697295062,0.447
-0.007754972282990309,0.448
-0.006674324467598137,0.449
-0.006219264652180973,0.45
-0.005748755784538063,0.451
-0.004616316943208168,0.452
-0.0025623407943086273,0.453
0.000166262249536354,0.454
0.0029499100451232446,0.455
0.005022289790573237,0.456
0.005737252299170867,0.457
0.004838196751935038,0.458
0.0026169564186163245,0.459
-0.0001368888198780166,0.46
-0.002401435791483837,0.461
-0.0032899355970376614,0.462
-0.0023577176982558885,0.463
0.00024904534346423404,0.464
0.003840072501027882,0.465
0.00741142529103175,0.466
0.009980341217695254,0.467
0.01093733138363852,0.468
0.010286700045934382,0.469
0.008592474466648913,0.47
0.006622221244670677,0.471
0.004943989795960883,0.472
0.0037555240283179544,0.473
0.0029822292607009013,0.474
0.0023997351685108425,0.475
0.00164960600318981,0.476
0.00036540969775932105,0.477
-0.001518867182663871,0.478
-0.0036053413875569386,0.479
-0.005256548125569342,0.48
-0.006024338844045637,0.481
-0.005893447805276877,0.482
-0.005194475127934702,0.483
-0.004382579086176802,0.484
-0.0038713825682726295,0.485
-0.003922952807930756,0.486
-0.004543395151578689,0.487
-0.00541798822330176,0.488
-0.005999541484834582,0.489
-0.005785405234695813,0.49
-0.004602883223342441,0.491
-0.0026630788327752057,0.492
-0.00038210146455338397,0.493
0.0018176754411953766,0.494
0.003602924023929077,0.495
0.004763780896865419,0.496
0.005210284272683109,0.497
0.0049275768574999195,0.498
0.003987726520441832,0.499
0.0026479683838527444,0.5
0.0013158405310362401,0.501
0.0002547142558033695,0.502
-0.0006528518251514374,0.503
-0.0017320286201688154,0.504
-0.003110612898760127,0.505
-0.004530161771950923,0.506
-0.005504841400024242,0.507
-0.005621011282698279,0.508
-0.004755081134192267,0.509
-0.0031187166102891037,0.51
-0.0011372406769673043,0.511
0.000754158134076358,0.512
0.002249906471435729,0.513
0.0032013765180186316,0.514
0.003638829873226419,0.515
0.0038109016319024594,0.516
0.004123758779065297,0.517
0.004971175341916691,0.518
0.006561235967263443,0.519
0.008768786344759852,0.52
0.011059787423201736,0.521
0.01262965107624045,0.522
0.012738616286586383,0.523
0.01102226305285731,0.524
0.00761136061714488,0.525
0.0030193480800593067,0.526
-0.00212153835450123,0.527
-0.007251424530202475,0.528
-0.011860849964745636,0.529
-0.015394406559243729,0.53
-0.01728990226654055,0.531
-0.017155954409714493,0.532
-0.014952890025046276,0.533
-0.011081802972234269,0.534
-0.006343234418571671,0.535
-0.0017717018123922237,0.536
0.0015929975062746787,0.537
0.0029249932233532607,0.538
0.0018147958537322005,0.539
-0.0015297998387963198,0.54
-0.006196513851165045,0.541
-0.010754094011786758,0.542
-0.013669439938957787,0.543
-0.013749973266906785,0.544
-0.010456646722151042,0.545
-0.004027138732248124,0.546
0.004612526416346434,0.547
0.014078210474183657,0.548
0.022761888143979697,0.549
0.02909672845647274,0.55
0.03194493430723668,0.551
0.03093438774061452,0.552
0.02653022805252908,0.553
0.019849453526053627,0.554
0.012265977220245632,0.555
0.004911240398820187,0.556
-0.0016680674585482706,0.557
-0.007485738060965053,0.558
-0.012764470457779795,0.559
-0.01753100180285817,0.56
-0.021451775931859124,0.561
-0.023977885801409863,0.562
-0.02463479986518137,0.563
-0.02325631027129683,0.564
-0.020090762142386503,0.565
-0.015757964557652625,0.566
-0.0109967084647736,0.567
-0.006330158928467172,0.568
-0.0019679007848656177,0.569
0.002017503939945801,0.57
0.005503020842800946,0.571
0.008241587792575293,0.572
0.009943350093151358,0.573
0.010560129807303469,0.574
0.010528206655533308,0.575
0.010625863453118077,0.576
0.011485601643131652,0.577
0.013114581967512057,0.578
0.014787396865603817,0.579
0.015456826103200315,0.58
0.014424523754388642,0.581
0.01175805718950532,0.582
0.008155729369349234,0.583
0.004432875905717353,0.584
0.001058036439776038,0.585
-0.0019763595609510647,0.586
-0.004977247393684803,0.587
-0.008249466826224532,0.588
-0.01183589181047689,0.589
-0.015422477787689895,0.59
-0.018425301198316545,0.591
-0.020191416456132337,0.592
-0.020259379520400182,0.593
-0.0185675157306861,0.594
-0.01543458674100265,0.595
-0.011311697146076527,0.596
-0.006544027469418846,0.597
-0.0013478386802418848,0.598
0.004023787687906068,0.599
0.009116866134446141,0.6
0.01331258198544573,0.601
0.016083938787754926,0.602
0.017236306608270524,0.603
0.016889244867183073,0.604
0.015257544106197415,0.605
0.01251323443918381,0.606
0.008883156265120836,0.607
0.004811993203689993,0.608
0.0009200281272122935,0.609
-0.002231818598774001,0.61
-0.004338982480616172,0.611
-0.005405218475817755,0.612
-0.0056817168168052865,0.613
-0.0055373282352812305,0.614
-0.0053061558991881926,0.615
-0.005159657703030381,0.616
-0.005058770369661378,0.617
-0.0048330112008608955,0.618
-0.004349460554085512,0.619
-0.003635891886196157,0.62
-0.0028594110045505384,0.621
-0.0022134172474477056,0.622
-0.0018245069056297867,0.623
-0.001724448182560518,0.624
-0.0018576075331957589,0.625
-0.0020883666970860125,0.626
-0.0022325664030383883,0.627
-0.0021247069663041704,0.628
-0.0016559411539850625,0.629
-0.0007507499465876979,0.63
0.000665483253466505,0.631
0.002651636435055434,0.632
0.0051580344523225,0.633
0.00787137230799872,0.634
0.010146560284822442,0.635
0.011248513678416673,0.636
0.01083307601321949,0.637
0.009168463886353343,0.638
0.006822282209154335,0.639
0.0042283294439394905,0.64
0.001590036112780108,0.641
-0.0009680144452352163,0.642
-0.0032994846786321354,0.643
-0.0052645112770164145,0.644
-0.006767775803300709,0.645
-0.007732825575730976,0.646
-0.008068698216020258,0.647
-0.007699420633547801,0.648
-0.006641597287405775,0.649
-0.0050354884374449365,0.65
-0.003086594550465046,0.651
-0.000993864681160945,0.652
0.0010552476979113366,0.653
0.002830285622601914,0.654
0.004036751120261541,0.655
0.004423773398357301,0.656
0.00395070686275311,0.657
0.00282239945315031,0.658
0.001369051727300693,0.659
-9.051596975877262e-05,0.66
-0.0013385032480092618,0.661
-0.0023104754915426275,0.662
-0.0030988797947182557,0.663
-0.0038831945318953064,0.664
-0.004801330799451244,0.665
-0.005849973126179231,0.666
-0.006870641676362303,0.667
-0.007581493276577211,0.668
-0.007635918906550028,0.669
-0.006735960458777317,0.67
-0.004768069299017509,0.671
-0.0018654256244476307,0.672
0.0016529279226491854,0.673
0.0054179827176166154,0.674
0.009109637432335779,0.675
0.012416526017986729,0.676
0.014898851176090128,0.677
0.01596777911971734,0.678
0.015123319452861984,0.679
0.012292500099662557,0.68
0.00795878071429439,0.681
0.002972685174526515,0.682
-0.0017910900644911919,0.683
-0.0057211833815985075,0.684
-0.008594630539523999,0.685
-0.010506819223423194,0.686
-0.011675413148812564,0.687
-0.012261371230101003,0.688
-0.012273748831271247,0.689
-0.011557310825847494,0.69
-0.009870813320714556,0.691
-0.007025755903705383,0.692
-0.0030200537757113467,0.693
0.0018783006790774688,0.694
0.007120494503481606,0.695
0.011941261036678762,0.696
0.015490171837613115,0.697
0.01703856651034634,0.698
0.01624141001829772,0.699
0.013336774662727627,0.7
0.00913950861796791,0.701
0.004755575246880436,0.702
0.0010712246656055626,0.703
-0.0016868804187593618,0.704
-0.003931279677136458,0.705
-0.006213742811889017,0.706
-0.008696096371861218,0.707
-0.011025122447666322,0.708
-0.012602262352916864,0.709
-0.012954375619744232,0.71
-0.011986833649484864,0.711
-0.01002510264107009,0.712
-0.0076435372120956325,0.713
-0.005408355231067749,0.714
-0.0036748534578319733,0.715
-0.0024892758556487333,0.716
-0.0016119878508953273,0.717
-0.0006581736720760349,0.718
0.0006880873701673367,0.719
0.0024786104558354536,0.72
0.004449890442822179,0.721
0.006142036140557538,0.722
0.007087864966435796,0.723
0.007000080218520681,0.724
0.005925443122591354,0.725
0.0042861206531499265,0.726
0.0027272335274356593,0.727
0.0018004390356177802,0.728
0.001680268336468779,0.729
0.0021605615790694977,0.73
0.0029037683823959857,0.731
0.0036170469961564543,0.732
0.004040171433798096,0.733
0.003968941245586171,0.734
0.003372917287483184,0.735
0.0024166297066720156,0.736
0.001318147770797049,0.737
0.00019142736292053313,0.738
-0.0009610938106231099,0.739
-0.002121897870095957,0.74
-0.0031652355871080464,0.741
-0.003876968561364071,0.742
-0.00403660100616925,0.743
-0.00351095849187145,0.744
-0.002326678587887383,0.745
-0.0006839837763146661,0.746
0.0010853225813625346,0.747
0.00257661644809592,0.748
0.003372421726334375,0.749
0.003117051149372691,0.75
0.0016286275480322603,0.751
-0.0009583632373033485,0.752
-0.0041234671306491395,0.753
-0.0070897648336412196,0.754
-0.00910887366344518,0.755
-0.009717379575569885,0.756
-0.008858523620515367,0.757
-0.006868990718391779,0.758
-0.004311458626468039,0.759
-0.0016758385603312137,0.76
0.0008303441683525398,0.761
0.0031885507199986176,0.762
0.005326901245181796,0.763
0.007054220179150625,0.764
0.008173002584517605,0.765
0.008538444470573047,0.766
0.008016206565380336,0.767
0.006469006268425086,0.768
0.003837424569775735,0.769
0.00027130822295808526,0.77
-0.003770236919099764,0.771
-0.007518327243463997,0.772
-0.010025283123383133,0.773
-0.010418635233066905,0.774
-0.00822080415300874,0.775
-0.0036127067909313146,0.776
0.002520708673473071,0.777
0.008849135433435197,0.778
0.014039271972921463,0.779
0.017109640952731466,0.78
0.017562377427548796,0.781
0.015388923120698091,0.782
0.011014670517694197,0.783
0.005152450408019724,0.784
-0.0013789173941179088,0.785
-0.007776493277693679,0.786
-0.013327509611524182,0.787
-0.017498543905164587,0.788
-0.019996632482691856,0.789
-0.020712769332901636,0.79
-0.019622145638704243,0.791
-0.01678323559947665,0.792
-0.012414207060670498,0.793
-0.00693417520509155,0.794
-0.0009255985521504725,0.795
0.004948120734600152,0.796
0.010024310605151044,0.797
0.01372363734771722,0.798
0.01565660866848811,0.799
0.015721434391691685,0.8
0.014105880966470936,0.801
0.011173604173014856,0.802
0.0073587168100981174,0.803
0.0031787062945685092,0.804
-0.0007117759964569692,0.805
-0.003586137977199246,0.806
-0.0048587647199537926,0.807
-0.004322349406243801,0.808
-0.0022803526466197367,0.809
0.00048129334034623675,0.81
0.0029184476219751435,0.811
0.004124529982117395,0.812
0.003708047820646122,0.813
0.0019305707139499403,0.814
-0.00045093034256531286,0.815
-0.0025409276704696907,0.816
-0.0036769821940748275,0.817
-0.003636974113927666,0.818
-0.002633891816467058,0.819
-0.0011775966523273089,0.82
0.00011060865361468368,0.821
0.0007109894735034142,0.822
0.0004030129894690783,0.823
-0.0006804623158985843,0.824
-0.002202373120016279,0.825
-0.0038371643832611894,0.826
-0.0053652716575311055,0.827
-0.006630497396550004,0.828
-0.007488019344619335,0.829
-0.007805716919483698,0.83
-0.007464750772706363,0.831
-0.006359126585349192,0.832
-0.004480356384415872,0.833
-0.0020485033790968946,0.834
0.0004965256374866308,0.835
0.0027050695079710667,0.836
0.004343738671469259,0.837
0.005425462389192728,0.838
0.006067632932092054,0.839
0.006387612168248736,0.84
0.006505714923567285,0.841
0.006528755681057978,0.842
0.006480213332180892,0.843
0.006272815069215351,0.844
0.005770116717851712,0.845
0.0049066250069565755,0.846
0.0037782777191075964,0.847
0.002616693397228127,0.848
0.0016688526027770932,0.849
0.0010860206228591198,0.85
0.0008851453932738121,0.851
0.0009606612041700664,0.852
0.001097177474614754,0.853
0.0009896375971297031,0.854
0.0003532967582441459,0.855
-0.0008617492506239587,0.856
-0.0023471956760826,0.857
-0.0036068747884483296,0.858
-0.004306842178572005,0.859
-0.004489892400018409,0.86
-0.004512474180566096,0.861
-0.004804411143326621,0.862
-0.005610502200407066,0.863
-0.006838448244969266,0.864
-0.008089397980765332,0.865
-0.00885388450991259,0.866
-0.008751194331981519,0.867
-0.007664338199090171,0.868
-0.0057193965140480574,0.869
-0.0031892017804921293,0.87
-0.00041402136226083546,0.871
0.0022426284789580746,0.872
0.004429606563388933,0.873
0.005871742966202061,0.874
0.006464525383762774,0.875
0.006337431052891126,0.876
0.005816006447647241,0.877
0.005294615566504895,0.878
0.005087515565364887,0.879
0.005286520649134192,0.88
0.00565725318090131,0.881
0.0056859757495679305,0.882
0.0048405304901297614,0.883
0.0028983094147370762,0.884
0.00011951613195587629,0.885
-0.0027911562837049093,0.886
-0.004907322787745049,0.887
-0.0054833716662036295,0.888
-0.004362481914713127,0.889
-0.002066233645167761,0.89
0.0005255021081985433,0.891
0.0026351196072038046,0.892
0.0038533631336019067,0.893
0.004117501557711347,0.894
0.003554306098519938,0.895
0.0023559776549393597,0.896
0.0007244174141594305,0.897
-0.001155274035469391,0.898
-0.0031169028536206,0.899
-0.004980520581278415,0.9
-0.006524681321326536,0.901
-0.0074978872974098415,0.902
-0.007653394054628277,0.903
-0.006804535144657084,0.904
-0.004921656760770082,0.905
-0.0022262111407236464,0.906
0.0008294119724961995,0.907
0.0037241359048287214,0.908
0.006055778035251457,0.909
0.007626608149645054,0.91
0.008392575001484553,0.911
0.00832945810630714,0.912
0.007341779081057563,0.913
0.0053282820629822125,0.914
0.0023735096869677,0.915
-0.0011114037495166239,0.916
-0.004471607540371702,0.917
-0.0071003264311974255,0.918
-0.00870773248476348,0.919
-0.009339836681645034,0.92
-0.009171470523882544,0.921
-0.00830733526043933,0.922
-0.006754963358124864,0.923
-0.00452553970166496,0.924
-0.0017404413604191625,0.925
0.001336777633631336,0.926
0.004357549781005839,0.927
0.006976448405355898,0.928
0.008909049962672656,0.929
0.009958376789218593,0.93
0.010030271977138782,0.931
0.009146880605193544,0.932
0.007450832581646166,0.933
0.005184542967539724,0.934
0.0026509600705114087,0.935
0.00016889942411645075,0.936
-0.0019805677977955045,0.937
-0.0036143439595419354,0.938
-0.004686108771207828,0.939
-0.005266327570655007,0.94
-0.005473001114234373,0.941
-0.005414840853043197,0.942
-0.005174596761167488,0.943
-0.004805453490340726,0.944
-0.004328920639571098,0.945
-0.003756276641549919,0.946
-0.0031350144785342563,0.947
-0.0025807169364754057,0.948
-0.0022519906085584924,0.949
-0.0022474107903278913,0.95
-0.002475401835527428,0.951
-0.0026330770821215944,0.952
-0.002347576596370663,0.953
-0.0013579896900873015,0.954
0.0003937409498454253,0.955
0.0027651546228672956,0.956
0.005452033856764362,0.957
0.008050537096658608,0.958
0.010146941044507978,0.959
0.011410628460766039,0.96
0.011655934198314306,0.961
0.01084290466554352,0.962
0.009020360910181817,0.963
0.0062712936219402275,0.964
0.002717619460439673,0.965
-0.0014258862098239801,0.966
-0.005815449568962559,0.967
-0.010008834893338037,0.968
-0.013529856302359852,0.969
-0.015913381238132008,0.97
-0.016737902057610568,0.971
-0.01569386199273197,0.972
-0.012723453794766665,0.973
-0.008166963095446978,0.974
-0.002758785536542204,0.975
0.0025687783152534252,0.976
0.006952317360556852,0.977
0.00983874482704476,0.978
0.011149852784711695,0.979
0.011266125467784733,0.98
0.010796101448637083,0.981
0.010280588947816185,0.982
0.00999406446221453,0.983
0.009885537652169719,0.984
0.009644916689942978,0.985
0.008842688622991342,0.986
0.007062147696575527,0.987
0.004009593747846895,0.988
-0.0003366817675723256,0.989
-0.005556194368454926,0.99
-0.010770932459282193,0.991
-0.014915338403887375,0.992
-0.01716397246024496,0.993
-0.01723674380060138,0.994
-0.015424281244540101,0.995
-0.012380011283420412,0.996
-0.008809956425075918,0.997
-0.005223441036784984,0.998
-0.0018679970614826544,0.999
0.0011699305812052794,1.0
0.003803667652503335,1.001
0.005846447340422241,1.002
0.007070541980318433,1.003
0.007392705786882592,1.004
0.006995441398365002,1.005
0.00623647791408257,1.006
0.005436597467011969,1.007
0.004745619133982503,1.008
0.004162266096064823,1.009
0.003642139635613334,1.01
0.003189239747224534,1.011
0.002858181928602029,1.012
0.0026742748741084266,1.013
0.002558286912623964,1.014
0.0023371218711053616,1.015
0.0018182291856834014,1.016
0.0008422057074356685,1.017
-0.000679890053129546,1.018
-0.002688457730488161,1.019
-0.004915914273976656,1.02
-0.006932215208794736,1.021
-0.008268591776506717,1.022
-0.008554982257627056,1.023
-0.007646199643817179,1.024
-0.005697966711702237,1.025
-0.0031253611700837584,1.026
-0.0004490378025250658,1.027
0.0018536428014715891,1.028
0.0034043129530260882,1.029
0.003949278325417818,1.03
0.003436286254638948,1.031
0.0020832898814906486,1.032
0.00033784628436016496,1.033
-0.001274678517112276,1.034
-0.0023130190245333137,1.035
-0.0024950755427151916,1.036
-0.001695461237534785,1.037
7.34787268764063e-05,1.038
0.002670131130766473,1.039
0.005816301426217858,1.04
0.009079954048874458,1.041
0.011873781658549368,1.042
0.01351944643690347,1.043
0.013422593607106337,1.044
0.011297992843821776,1.045
0.007286302516638844,1.046
0.0019123951793825061,1.047
-0.004009520543295073,1.048
-0.009476676383715646,1.049
-0.013457615386552194,1.05
-0.01513740436893364,1.051
-0.014204562740120798,1.052
-0.011025021966871744,1.053
-0.006542775468630427,1.054
-0.001947306209325099,1.055
0.0017192250821163027,1.056
0.003847032256279263,1.057
0.004322729352716145,1.058
0.0033979959679036964,1.059
0.0014862617786194144,1.06
-0.0009973510974540254,1.061
-0.0036767623343046197,1.062
-0.006152121485606996,1.063
-0.007943131998920664,1.064
-0.008534481416646622,1.065
-0.007515264207799495,1.066
-0.004731992328667517,1.067
-0.00040265743105362216,1.068
0.004832678753256076,1.069
0.009988060930176984,1.07
0.01397775150744818,1.071
0.015945148930349106,1.072
0.015503563293273645,1.073
0.012782706283974604,1.074
0.008317478428125524,1.075
0.0028918421988633936,1.076
