VaMe,time
-9.5797562392081e-05,0.001
0.0028472712973712394,0.002
0.005425571568464869,0.003
0.007074163182442085,0.004
0.007158089426594997,0.005
0.005324048051919453,0.006
0.001773719226126495,0.007
-0.0027407902834431373,0.008
-0.0071342246734965135,0.009
-0.010295469842157554,0.01
-0.01141401765530043,0.011
-0.010219446385412088,0.012
-0.007031553295852733,0.013
-0.0026252732944811426,0.014
0.0020232687963281236,0.015
0.006030331378768649,0.016
0.008814408846918188,0.017
0.010113120709002913,0.018
0.009863795648433597,0.019
0.008139559733236998,0.02
0.005206205927792048,0.021
0.0015621552183737383,0.022
-0.0021393738315817036,0.023
-0.00523964966803614,0.024
-0.007216795850799431,0.025
-0.0077737252342713415,0.026
-0.0068673179556241444,0.027
-0.004706041728768974,0.028
-0.0017388253038526898,0.029
0.0013733345925804779,0.03
0.003881854051932593,0.031
0.005218998083032824,0.032
0.005264417883615714,0.033
0.004379375271059102,0.034
0.003157627459402818,0.035
0.002080260979261721,0.036
0.0013140927556543804,0.037
0.0007487917692847778,0.038
0.0001774482965646881,0.039
-0.0005516014904058403,0.04
-0.0014836674509072242,0.041
-0.0025519864881617363,0.042
-0.003570886938204977,0.043
-0.004252033977057559,0.044
-0.0042837390402178715,0.045
-0.0034644007409881934,0.046
-0.0018260227869711697,0.047
0.0003054500650883782,0.048
0.002355526534148587,0.049
0.003704022992956876,0.05
0.003983077251181902,0.051
0.0032596895074892933,0.052
0.001955499280287653,0.053
0.0005865546391278656,0.054
-0.00046310274477708957,0.055
-0.0010278674031195647,0.056
-0.0011514004589456956,0.057
-0.0010087079886382292,0.058
-0.0007751111781432371,0.059
-0.0005385746761780981,0.06
-0.0003157551225677125,0.061
-0.00011300244092585735,0.062
3.42068947699038e-05,0.063
4.5099717725603196e-05,0.064
-0.00020114190749420153,0.065
-0.0008166805648515483,0.066
-0.0018257828389732467,0.067
-0.0031026874622641495,0.068
-0.00434576575935354,0.069
-0.005092095664850094,0.07
-0.004814525435993341,0.071
-0.0031303938137764776,0.072
-4.830969622471692e-05,0.073
0.0039061001137459346,0.074
0.007802813647478461,0.075
0.010611771693913481,0.076
0.01154070519925339,0.077
0.010299999031725958,0.078
0.007213781214393898,0.079
0.0030684197836394794,0.08
-0.0012190171956568715,0.081
-0.0048564285025403916,0.082
-0.007283331353664706,0.083
-0.008221292479436293,0.084
-0.007715647448434463,0.085
-0.006150351542668934,0.086
-0.004162322398987765,0.087
-0.002428754143051091,0.088
-0.001422391248475477,0.089
-0.0012643241837694808,0.09
-0.0017483605850154567,0.091
-0.002484061791990589,0.092
-0.0030315057753221215,0.093
-0.0029985885351569053,0.094
-0.0021649245515703765,0.095
-0.0006113778252027177,0.096
0.0012931341489980494,0.097
0.003112120599789181,0.098
0.004578516120926717,0.099
0.005604601261612694,0.1
0.006084383307454168,0.101
0.005758791861416882,0.102
0.0043759495013729255,0.103
0.002034888154377466,0.104
-0.0006744918088259014,0.105
-0.002896375051440128,0.106
-0.003863147421616211,0.107
-0.0031333610664663015,0.108
-0.0007027355101617728,0.109
0.0029459806222974522,0.11
0.006913031040120935,0.111
0.01015246456279352,0.112
0.011825475836662928,0.113
0.011528552447244439,0.114
0.009328610636476867,0.115
0.0056538737887864435,0.116
0.0011271917628413986,0.117
-0.0035721709552344527,0.118
-0.007807087988563544,0.119
-0.011064978363783685,0.12
-0.013011473373767008,0.121
-0.013515043812807435,0.122
-0.012666716661773731,0.123
-0.010787148828947768,0.124
-0.00837486249038636,0.125
-0.005969811938586106,0.126
-0.00398052272633214,0.127
-0.002572366938190082,0.128
-0.001675230832269046,0.129
-0.0010689794102912071,0.13
-0.00045413735986351097,0.131
0.0005032463633039713,0.132
0.0020755831907417386,0.133
0.004332589157937184,0.134
0.0070658447850996285,0.135
0.009830407861893466,0.136
0.012066826669780126,0.137
0.013263897164812792,0.138
0.013111411416256812,0.139
0.011564430202300455,0.14
0.008804781171847832,0.141
0.005183533802994479,0.142
0.0011903275529876612,0.143
-0.0026184039941444205,0.144
-0.005767297165007576,0.145
-0.007985448982028598,0.146
-0.009210330310485609,0.147
-0.009505859943852361,0.148
-0.008983402993552976,0.149
-0.007764787759157494,0.15
-0.005976471076609691,0.151
-0.003759136047058277,0.152
-0.0012934082150626983,0.153
0.0011524745922145124,0.154
0.0031978658994350874,0.155
0.004423408064951958,0.156
0.004525207140240316,0.157
0.003445362817194669,0.158
0.0014220044884750286,0.159
-0.0010374036384255961,0.16
-0.003270442680367603,0.161
-0.004669108250788167,0.162
-0.0048975110438967085,0.163
-0.003978590969693269,0.164
-0.002243632225115755,0.165
-0.0002345844273958193,0.166
0.0014509580184549075,0.167
0.0023685297630044446,0.168
0.002359796901558507,0.169
0.0015641095993235647,0.17
0.00036791528025673336,0.171
-0.000702896143887398,0.172
-0.0011350518411862153,0.173
-0.0005797577042706763,0.174
0.0010137345535356703,0.175
0.003331948194882254,0.176
0.005751708153817915,0.177
0.007517091738146131,0.178
0.008029037320245265,0.179
0.007128304133157914,0.18
0.005127448256231568,0.181
0.0025742359454729268,0.182
8.573706767988993e-06,0.183
-0.00215396550751101,0.184
-0.003661673202176395,0.185
-0.004412693598079964,0.186
-0.004412799348750733,0.187
-0.0037628621671520848,0.188
-0.002667437775000627,0.189
-0.001400851725333409,0.19
-0.00022998542988488958,0.191
0.0006538203009491076,0.192
0.0011655755507953903,0.193
0.0013104621118481073,0.194
0.0011354537642063304,0.195
0.0006946924354056162,0.196
4.725000863339937e-05,0.197
-0.0007386999164900238,0.198
-0.0015902766207969955,0.199
-0.0024341450776359796,0.2
-0.0032085264331620242,0.201
-0.0038871584866274106,0.202
-0.0044817689393169356,0.203
-0.005007928737516066,0.204
-0.005442606221258652,0.205
-0.005680875690353899,0.206
-0.005489752959339968,0.207
-0.004520827769729191,0.208
-0.0024457515358143845,0.209
0.0008395108222967523,0.21
0.00506829093221101,0.211
0.00959036799368438,0.212
0.013491644952135366,0.213
0.015797059609444854,0.214
0.01571521522796178,0.215
0.012915995406844872,0.216
0.0077568010888513965,0.217
0.0012634137028337202,0.218
-0.0052121746066226046,0.219
-0.010461112579424517,0.22
-0.013740685704265178,0.221
-0.014856136335233607,0.222
-0.014068883053686103,0.223
-0.01189662398641037,0.224
-0.008843140776988709,0.225
-0.005163712438220609,0.226
-0.0008601634418672866,0.227
0.003997061249489152,0.228
0.008908050509368954,0.229
0.01299618036353709,0.23
0.015455894802466471,0.231
0.015958873893659936,0.232
0.014721639136825023,0.233
0.012248516233696547,0.234
0.008976971554192885,0.235
0.005086713528976274,0.236
0.0005793687298366051,0.237
-0.004447566750980217,0.238
-0.009550186973730584,0.239
-0.013959683998716861,0.24
-0.016908038263109396,0.241
-0.017983988421382338,0.242
-0.017253747132492794,0.243
-0.01515419428523846,0.244
-0.01229743872997186,0.245
-0.009275740811846744,0.246
-0.00648010838973013,0.247
-0.003942314464411729,0.248
-0.0013198981404343823,0.249
0.0018561095735906866,0.25
0.005769196579189624,0.251
0.010022389884955652,0.252
0.0137071766285902,0.253
0.015836304953480703,0.254
0.01587594971417035,0.255
0.014070742253944817,0.256
0.011358235916707407,0.257
0.008862091798773338,0.258
0.0072817010890679395,0.259
0.0065902091934705,0.26
0.0061639158631835575,0.261
0.005209789243791825,0.262
0.0032245026914448417,0.263
0.00020944212377246637,0.264
-0.0033971758163233953,0.265
-0.006918349265052563,0.266
-0.009642434475792853,0.267
-0.010987961737264773,0.268
-0.010640317917900642,0.269
-0.008668662958170698,0.27
-0.005576590249439699,0.271
-0.00223168382045485,0.272
0.0003589182194240554,0.273
0.0014262605022433781,0.274
0.0008115589782730416,0.275
-0.0009700013281062447,0.276
-0.003060454590980276,0.277
-0.0047065875802493025,0.278
-0.005530067291047384,0.279
-0.005548192249481862,0.28
-0.005009691328321743,0.281
-0.0041716589733431335,0.282
-0.003152160136052708,0.283
-0.0019139058116495473,0.284
-0.000347849365244683,0.285
0.0015919307316420665,0.286
0.003786498742824868,0.287
0.005980963894986597,0.288
0.007880605714040596,0.289
0.009176903322475114,0.29
0.009565404625353624,0.291
0.008887363951661457,0.292
0.0072806205720191055,0.293
0.005108069690394339,0.294
0.0027049462158913167,0.295
0.0002251043240344343,0.296
-0.0023054410093189554,0.297
-0.0048721263412724826,0.298
-0.007381706228691191,0.299
-0.00956574464592432,0.3
-0.0109234736826506,0.301
-0.010830970867192003,0.302
-0.00883639195320509,0.303
-0.004970971532432488,0.304
0.00012209249473060126,0.305
0.005301279739791994,0.306
0.009281109510596651,0.307
0.011164043945361477,0.308
0.010839448321193507,0.309
0.008899280135412793,0.31
0.006197223601352838,0.311
0.003485317350141983,0.312
0.0012654840860618643,0.313
-0.00025490107819138005,0.314
-0.0011250197638871932,0.315
-0.0015177177251968052,0.316
-0.0015881458253651697,0.317
-0.0014338115429971651,0.318
-0.0011742665069244954,0.319
-0.0010568220078863656,0.32
-0.0014448497973235744,0.321
-0.002627569319647531,0.322
-0.004563225010546643,0.323
-0.0067614129596063905,0.324
-0.008434334817334181,0.325
-0.008859673476065318,0.326
-0.007731189308158291,0.327
-0.005288802063492205,0.328
-0.0022155800634714147,0.329
0.0006098335246212137,0.33
0.002475338477106706,0.331
0.0032029334449903196,0.332
0.0032150654490307865,0.333
0.0031526555911391813,0.334
0.0034006194295401943,0.335
0.0039647794963933464,0.336
0.004666549483889013,0.337
0.0053230570771794,0.338
0.005755940364298976,0.339
0.005766840159536929,0.34
0.00526479306979005,0.341
0.004445734927448588,0.342
0.003723684738503954,0.343
0.0033889751576907145,0.344
0.003342242246763798,0.345
0.0031699263752314427,0.346
0.002442731238860217,0.347
0.0009538345360605177,0.348
-0.0012195149274099556,0.349
-0.0037740336305488896,0.35
-0.006280968491655828,0.351
-0.008279946878952353,0.352
-0.009362560526879057,0.353
-0.00927711644116122,0.354
-0.00804951730103496,0.355
-0.006063241516649729,0.356
-0.004038266378737055,0.357
-0.002859887307369343,0.358
-0.0032227805950022117,0.359
-0.005167462759087788,0.36
-0.007799477000728852,0.361
-0.009521588002624695,0.362
-0.008777940302795514,0.363
-0.004864869680421729,0.364
0.001738343358920712,0.365
0.009620152075088274,0.366
0.016909679334573265,0.367
0.021797449046695175,0.368
0.023173448116659952,0.369
0.02108218215403802,0.37
0.016550217959715053,0.371
0.010960486689529498,0.372
0.005517162121932097,0.373
0.0010041726908025911,0.374
-0.0022507084231832763,0.375
-0.00428520642099782,0.376
-0.005351964640037007,0.377
-0.005782287573841738,0.378
-0.005908908886117085,0.379
-0.006036287492489852,0.38
-0.006424601467458735,0.381
-0.007270382467336647,0.382
-0.008669987905640084,0.383
-0.010570783242285376,0.384
-0.012739849250149473,0.385
-0.014763761870071246,0.386
-0.016067854315861226,0.387
-0.01597015447138216,0.388
-0.013830166830936188,0.389
-0.009318168218251694,0.39
-0.002706559563708397,0.391
0.005026734586608625,0.392
0.012412663832135793,0.393
0.017903027868646674,0.394
0.02031223835801568,0.395
0.019271070771413927,0.396
0.015531728446758689,0.397
0.01073134426527752,0.398
0.006587178336224675,0.399
0.004102882500299375,0.4
0.003312230028509716,0.401
0.003549631733481315,0.402
0.003926137138228269,0.403
0.00372877299646215,0.404
0.0026247512321153368,0.405
0.0006593909315902964,0.406
-0.001893705575732775,0.407
-0.004694129810400769,0.408
-0.007406477940864765,0.409
-0.009696691026572897,0.41
-0.011216120617286662,0.411
-0.011621012175055227,0.412
-0.01064877103724014,0.413
-0.008237582202355178,0.414
-0.00463213439402033,0.415
-0.0004169596703137012,0.416
0.0035526007149291653,0.417
0.006367061445072309,0.418
0.007411861788634908,0.419
0.006632889916316657,0.42
0.004507132537690996,0.421
0.0017976104499401774,0.422
-0.000710035577425382,0.423
-0.0024152944976863064,0.424
-0.003038611366860145,0.425
-0.002657408819607603,0.426
-0.001639664200407801,0.427
-0.0005102199147336469,0.428
0.00019733718757978107,0.429
6.59025539611146e-05,0.43
-0.0011010003432252217,0.431
-0.0031807887239721083,0.432
-0.005666231996760089,0.433
-0.007712137010468641,0.434
-0.008353946188123096,0.435
-0.006860936797624253,0.436
-0.0030871683603880197,0.437
0.0023719850500493623,0.438
0.008334684972827152,0.439
0.013386362973016177,0.44
0.01623221498197138,0.441
0.016035933207207528,0.442
0.012770365442124853,0.443
0.007347013998247111,0.444
0.0012820038965117315,0.445
-0.003918682025026178,0.446
-0.007226814153220095,0.447
-0.008239273792219667,0.448
-0.0071265695085855705,0.449
-0.004502430039407582,0.45
-0.0012395401852030893,0.451
0.0017569208637117726,0.452
0.0037874517943928218,0.453
0.004534671480546514,0.454
0.0040847384511480496,0.455
0.0027947853193455423,0.456
0.0010970820150884846,0.457
-0.0006615038124533389,0.458
-0.0022659067829724835,0.459
-0.0035804299300588663,0.46
-0.004491459392020158,0.461
-0.00488409694962144,0.462
-0.004644283370953431,0.463
-0.003701893508964068,0.464
-0.002112589114131411,0.465
-0.00011049047744678214,0.466
0.001949254618640275,0.467
0.003739504476064633,0.468
0.005066326239296143,0.469
0.005838675650167947,0.47
0.005969569466298276,0.471
0.00531945375308352,0.472
0.003694526441295825,0.473
0.0008653320959754052,0.474
-0.003359712169334296,0.475
-0.008960057360553591,0.476
-0.01549576799107547,0.477
-0.02200115892798893,0.478
-0.027076954678319977,0.479
-0.029200530588287307,0.48
-0.027156577998963923,0.481
-0.020436741238162952,0.482
-0.009522653584422948,0.483
0.00404481200409543,0.484
0.01799869386423584,0.485
0.030075597819917442,0.486
0.03867142462716515,0.487
0.042949804796896154,0.488
0.04259935738884434,0.489
0.037766984176487946,0.49
0.02922347459610032,0.491
0.018400072062661064,0.492
0.007075771935830874,0.493
-0.003148967817183992,0.494
-0.011278498633644104,0.495
-0.017043544006317357,0.496
-0.020724404285036656,0.497
-0.022803922463254987,0.498
-0.02362695479612006,0.499
-0.02323463271004726,0.5
-0.021430238623074943,0.501
-0.01799039636272685,0.502
-0.012908983505846924,0.503
-0.006612272816526678,0.504
-2.8312966935703353e-05,0.505
0.005648422791528243,0.506
0.009426411509127187,0.507
0.010879505641087545,0.508
0.01016735934292862,0.509
0.007827177027220855,0.51
0.004565614318506142,0.511
0.0011191211217574113,0.512
-0.0018634697632136541,0.513
-0.0039386973721885574,0.514
-0.0049524053387812695,0.515
-0.005036557341235141,0.516
-0.004499317372832608,0.517
-0.003649781027438554,0.518
-0.0026598456433879173,0.519
-0.0015498157748853696,0.52
-0.00028375401512107247,0.521
0.001109775302561245,0.522
0.0024950593713827306,0.523
0.003710269637974457,0.524
0.004685654912416674,0.525
0.005477668169419873,0.526
0.006188703660962857,0.527
0.00684047182034426,0.528
0.0073097778595632035,0.529
0.0073757103750905035,0.53
0.006832805174957925,0.531
0.005596839008628144,0.532
0.0037548844534359338,0.533
0.001565043405841071,0.534
-0.0005648991005054197,0.535
-0.002144601080131782,0.536
-0.0027508473676459816,0.537
-0.002212492985682806,0.538
-0.0007322587104080611,0.539
0.001111522053371681,0.54
0.002497756103880209,0.541
0.0026385353102048475,0.542
0.0011311569214221358,0.543
-0.0018218498876943585,0.544
-0.005512546257584279,0.545
-0.009075324838183423,0.546
-0.01182411873818494,0.547
-0.013413050874142874,0.548
-0.013823194021809428,0.549
-0.0132471506172296,0.55
-0.01193557231415681,0.551
-0.010048656893794587,0.552
-0.007547634234643946,0.553
-0.00419846276558851,0.554
0.0002015547190674134,0.555
0.005434425654499585,0.556
0.010649208417060607,0.557
0.01459711730209135,0.558
0.01617270853109393,0.559
0.014923601502570908,0.56
0.011315799588412764,0.561
0.006597414482004583,0.562
0.002247145489408442,0.563
-0.0006320321412418568,0.564
-0.0015847944243564413,0.565
-0.0007569064748162782,0.566
0.0012519839925695855,0.567
0.0035875506070795478,0.568
0.0054276332141844725,0.569
0.0062321341326673045,0.57
0.005816002667293709,0.571
0.0043068423174366845,0.572
0.0020844678075502133,0.573
-0.00031804114230661574,0.574
-0.00236013045565312,0.575
-0.003630774426209366,0.576
-0.003945981669481222,0.577
-0.0034047144804308905,0.578
-0.002394168247666834,0.579
-0.0015224723495494954,0.58
-0.0014459498584787642,0.581
-0.002621183837205368,0.582
-0.005102970293365586,0.583
-0.008461267956218854,0.584
-0.011816562152723994,0.585
-0.014026656044728721,0.586
-0.014034877564898,0.587
-0.011269183634601557,0.588
-0.005921286713227517,0.589
0.001011381951532789,0.59
0.007947429319036381,0.591
0.013184013867258745,0.592
0.01550786934913896,0.593
0.01469640184293385,0.594
0.011571111132253564,0.595
0.007531158367530017,0.596
0.00390184591899158,0.597
0.0014847964683943331,0.598
0.0004246841310423068,0.599
0.0003298030691284508,0.6
0.0005453029935813601,0.601
0.000462289100985841,0.602
-0.00023563567750387545,0.603
-0.0014778299295735752,0.604
-0.0029095151351336513,0.605
-0.0041203553605786945,0.606
-0.004855923578804037,0.607
-0.005100028532202691,0.608
-0.0050153932383119075,0.609
-0.004817341744756375,0.61
-0.004665866496665825,0.611
-0.0046203240758701395,0.612
-0.0046593668026850945,0.613
-0.004739211124233461,0.614
-0.004832368896337317,0.615
-0.004905505933904587,0.616
-0.004859970536186192,0.617
-0.004475718856342591,0.618
-0.0033981104985013294,0.619
-0.0012478602081526008,0.62
0.0021148339283276296,0.621
0.006326504544895512,0.622
0.01049878935546862,0.623
0.013544285102799689,0.624
0.014700503384885629,0.625
0.01388623078765066,0.626
0.01162259572136219,0.627
0.008666001274604512,0.628
0.005700458211271042,0.629
0.003212544036354822,0.63
0.0014455346397901586,0.631
0.00037327320903465534,0.632
-0.00023807341193498132,0.633
-0.0006526277047980901,0.634
-0.00099882888493616,0.635
-0.0012509160463175847,0.636
-0.001334590994635359,0.637
-0.0012382881600768586,0.638
-0.0010698317480182975,0.639
-0.0010864760056119081,0.64
-0.001701865456902837,0.641
-0.003388852285754938,0.642
-0.006449285122645548,0.643
-0.010768358924082322,0.644
-0.015698011464107774,0.645
-0.0201281877539471,0.646
-0.02274654200457896,0.647
-0.02244295231374286,0.648
-0.018711763894043505,0.649
-0.011860844984718701,0.65
-0.0029789798724661836,0.651
0.00626626863762873,0.652
0.01403457480921224,0.653
0.01896174106423368,0.654
0.020716774036985297,0.655
0.0199805269640515,0.656
0.01787769095849832,0.657
0.015356885859697682,0.658
0.012881976154708165,0.659
0.010482731748385933,0.66
0.008015491077169605,0.661
0.005412999621120746,0.662
0.0027871987102681462,0.663
0.00037213794797690534,0.664
-0.001621198804677691,0.665
-0.0031027931162047676,0.666
-0.004098832987830352,0.667
-0.004734715152108517,0.668
-0.005237193052617214,0.669
-0.0058786873501091375,0.67
-0.006866484097584851,0.671
-0.008253537750421243,0.672
-0.009883230550455447,0.673
-0.011352139113487722,0.674
-0.012047632555902637,0.675
-0.011314803583665198,0.676
-0.008707415600477376,0.677
-0.0042444292077308725,0.678
0.0014272267261340532,0.679
0.0071244318531804495,0.68
0.01154609023614027,0.681
0.01379429991671236,0.682
0.01363541826623366,0.683
0.011435640510830696,0.684
0.007954374052234675,0.685
0.0040704898296145256,0.686
0.0005064746738677855,0.687
-0.0023057883964818053,0.688
-0.004193993728315818,0.689
-0.005148576163205019,0.69
-0.005252973190254151,0.691
-0.004674052480693861,0.692
-0.0036752121785070214,0.693
-0.00258151868609807,0.694
-0.0016691033973720711,0.695
-0.0010465834959945582,0.696
-0.0006388233948439139,0.697
-0.0002917837377598456,0.698
0.00010225602775581328,0.699
0.0005466312378043741,0.7
0.0009484964439250384,0.701
0.0011684711928533751,0.702
0.0010943699930909547,0.703
0.0007079067341793578,0.704
0.00011348896163858213,0.705
-0.000486191297382557,0.706
-0.0008652909111067805,0.707
-0.0008758640710157414,0.708
-0.0005215446273888413,0.709
4.8469629572987194e-05,0.71
0.0006181655227571566,0.711
0.001007834296883045,0.712
0.0011504020966129243,0.713
0.0010907208184807635,0.714
0.0009093206046587843,0.715
0.0006394929149567761,0.716
0.00023988860610589974,0.717
-0.0003715351399817606,0.718
-0.0012586853399975176,0.719
-0.0024097183142940915,0.72
-0.0036764610296737624,0.721
-0.004727477406532151,0.722
-0.005079004232591754,0.723
-0.004255099124997307,0.724
-0.00202105071868586,0.725
0.0014557260921702017,0.726
0.0056000431210397935,0.727
0.009540556206648721,0.728
0.012297009006369429,0.729
0.013063698545007225,0.73
0.011546043180933437,0.731
0.008134590984142846,0.732
0.003729296403075265,0.733
-0.0006633314426482892,0.734
-0.004264821935419689,0.735
-0.006665823430131211,0.736
-0.007820200284023922,0.737
-0.007943078984463947,0.738
-0.007368191484936412,0.739
-0.006426236539847778,0.74
-0.00536159161614173,0.741
-0.004291749584163276,0.742
-0.003230619859216365,0.743
-0.002166573155824668,0.744
-0.0011401662720421954,0.745
-0.00026527143471547,0.746
0.00033191287187272285,0.747
0.0006023609583601291,0.748
0.0005914164549940471,0.749
0.00039287421363332466,0.75
0.00012652411087577382,0.751
-7.338082001778221e-05,0.752
-0.00011030830801972724,0.753
3.230789830138254e-05,0.754
0.00032406291670971114,0.755
0.0007565703763644992,0.756
0.0013579020029963825,0.757
0.0021152188388202284,0.758
0.002881826330331292,0.759
0.0033906307115413046,0.76
0.0033752026028953785,0.761
0.002689710899743548,0.762
0.0013778646980326101,0.763
-0.0002991705880510294,0.764
-0.0019034473607354259,0.765
-0.0029465829954612908,0.766
-0.003052561380496617,0.767
-0.0020833314743363843,0.768
-0.00018541965514706608,0.769
0.0022339572198782163,0.77
0.0045990157563510796,0.771
0.006338387179169638,0.772
0.007079931585139946,0.773
0.006746098458766843,0.774
0.005502265340842994,0.775
0.0036396069958039277,0.776
0.0014868011996312387,0.777
-0.0006416609256294917,0.778
-0.0024912908225278307,0.779
-0.0039115965035331195,0.78
-0.004874542560052043,0.781
-0.005442388626312263,0.782
-0.005699114186871983,0.783
-0.005690880660147739,0.784
-0.005402438587603251,0.785
-0.004773669950783021,0.786
-0.003746762630895592,0.787
-0.002325076255826938,0.788
-0.0006196289776762441,0.789
0.001148655659308098,0.79
0.002693963409266848,0.791
0.003720450441776099,0.792
0.003965971750962444,0.793
0.003264435057110726,0.794
0.0016511364955722374,0.795
-0.0005748611805486219,0.796
-0.002943673218010031,0.797
-0.004999343890992816,0.798
-0.006420519264513301,0.799
-0.007032962042619911,0.8
-0.006765305908562856,0.801
-0.00559777914241827,0.802
-0.0035345912634389917,0.803
-0.0006251243255593261,0.804
0.0029793398867353203,0.805
0.006964016227507666,0.806
0.010775024639564104,0.807
0.013613478440132578,0.808
0.014676942928877994,0.809
0.013562359911402307,0.81
0.010483798447195974,0.811
0.006158739565686789,0.812
0.001502977510238964,0.813
-0.0026755337110620945,0.814
-0.0058403069761689295,0.815
-0.007733193585597019,0.816
-0.008330497753088301,0.817
-0.00779709701698267,0.818
-0.006413325530220801,0.819
-0.00450237738218624,0.82
-0.00241895681193138,0.821
-0.0005572266015533426,0.822
0.0007406543419126925,0.823
0.0013378135260012037,0.824
0.001321238400735227,0.825
0.0008584148044261389,0.826
8.164545233755776e-05,0.827
-0.0008998373280075753,0.828
-0.001954272245089699,0.829
-0.0029550121387210055,0.83
-0.003826541346033981,0.831
-0.004479893035025416,0.832
-0.004689200953606648,0.833
-0.004119670834052685,0.834
-0.0025542569787379748,0.835
-9.753279752441948e-05,0.836
0.002822733859470488,0.837
0.0055904872396488215,0.838
0.007555613026354732,0.839
0.008202625115817246,0.84
0.007354963624959803,0.841
0.005305603430046936,0.842
0.002701537379856665,0.843
0.00022423840119131178,0.844
-0.0016921115413788869,0.845
-0.0029431545362053092,0.846
-0.00363380649226322,0.847
-0.0038617405143059006,0.848
-0.003591565792110861,0.849
-0.0027277898642360725,0.85
-0.0012953210533181395,0.851
0.0004443449050132454,0.852
0.002044108747136045,0.853
0.0030770780234075806,0.854
0.0033540009315588567,0.855
0.002982910296962853,0.856
0.0022618915657634173,0.857
0.001521417757521182,0.858
0.000979799559822283,0.859
0.000642285602584971,0.86
0.00032390540204190106,0.861
-0.0001833957621836846,0.862
-0.0009291523250814363,0.863
-0.0017698591357553756,0.864
-0.0024956560032999087,0.865
-0.002968732118684532,0.866
-0.0031510480521976174,0.867
-0.003049437215160625,0.868
-0.0026668016088475647,0.869
-0.002008066275925795,0.87
-0.0011295639487506328,0.871
-0.00017901628501434112,0.872
0.0006174268071619531,0.873
0.0010169946450991592,0.874
0.0008391782175002796,0.875
3.505651864696821e-05,0.876
-0.001275736254885313,0.877
-0.0028023436288539647,0.878
-0.004097091638383196,0.879
-0.004624920184820094,0.88
-0.003948554761205647,0.881
-0.001960260999834161,0.882
0.0010247622301024083,0.883
0.004399599556251563,0.884
0.007487894538815697,0.885
0.009675092536073392,0.886
0.010464607076075499,0.887
0.0095909255036135,0.888
0.007162794201698625,0.889
0.003682037743031516,0.89
-9.851635115708483e-05,0.891
-0.003383656248415078,0.892
-0.005528524594709329,0.893
-0.0061751844059701995,0.894
-0.005321445341632088,0.895
-0.003324152718746735,0.896
-0.0008206986473503126,0.897
0.0014328102344689103,0.898
0.002767176898269206,0.899
0.002796823592410692,0.9
0.0015316887524529157,0.901
-0.0006623387183223241,0.902
-0.003213390192890764,0.903
-0.005495158080772223,0.904
-0.006935966103277071,0.905
-0.007119900137751234,0.906
-0.005904697319741816,0.907
-0.0035000496801158285,0.908
-0.00042625475009486615,0.909
0.002637246076861462,0.91
0.005038475693697467,0.911
0.006308510955454151,0.912
0.006245159092432537,0.913
0.004923710601503167,0.914
0.0026502381331509448,0.915
-0.0001253073510948442,0.916
-0.0028941129681273802,0.917
-0.005144993285453414,0.918
-0.006420027952315111,0.919
-0.006410406629604112,0.92
-0.005060867716687212,0.921
-0.002589940743048633,0.922
0.0005849823265869268,0.923
0.0039376711295251565,0.924
0.006895148218213181,0.925
0.008915322209011707,0.926
0.00963186339026459,0.927
0.008981913043914146,0.928
0.007180932218941564,0.929
0.004598927231839454,0.93
0.0016778068309333807,0.931
-0.0011167015183543075,0.932
-0.0033766733422634335,0.933
-0.004846336765164649,0.934
-0.0054652235023693345,0.935
-0.005339237785348433,0.936
-0.004663227710285811,0.937
-0.0036452806388911764,0.938
-0.002477351496691617,0.939
-0.0013370486006861334,0.94
-0.0003697348306314625,0.941
0.0003449161617803366,0.942
0.000796219543234183,0.943
0.0010116843193308876,0.944
0.001017534355072038,0.945
0.0008148028811887323,0.946
0.00038941063606864884,0.947
-0.0002543794693134562,0.948
-0.0010607725467637204,0.949
-0.0019028600515473934,0.95
-0.002593383539440109,0.951
-0.0029400552801392204,0.952
-0.002827020842773671,0.953
-0.002271914037625434,0.954
-0.0014191838358564124,0.955
-0.00047692165985396416,0.956
0.0003637489298083468,0.957
0.0009846925879592855,0.958
0.0013520942533342014,0.959
0.0014978477528444082,0.96
0.0014957494364168157,0.961
0.0014433347024466114,0.962
0.0014403566975221731,0.963
0.0015564284441864315,0.964
0.0018062093215366634,0.965
0.0021459919951656416,0.966
0.0024854779379048465,0.967
0.0027105032293817982,0.968
0.0027070053355456023,0.969
0.002375033492416711,0.97
0.0016526428232777866,0.971
0.0005679935808246827,0.972
-0.0007160187954326039,0.973
-0.0019110660725592888,0.974
-0.002677205380501789,0.975
-0.002738702318404469,0.976
-0.0019920599019045246,0.977
-0.0005598656260823987,0.978
0.0012268800792896973,0.979
0.002907073429248223,0.98
0.004017749900803039,0.981
0.0042549447445924555,0.982
0.003578610973710934,0.983
0.0021784543571565654,0.984
0.0003549948361511822,0.985
-0.001578276637191337,0.986
-0.0033371218384704014,0.987
-0.004671387731433962,0.988
-0.005376844717928112,0.989
-0.0053466159245758645,0.99
-0.004630886129091693,0.991
-0.0034425518083975887,0.992
-0.002085498980763528,0.993
-0.0008455717714559163,0.994
9.045903463828833e-05,0.995
0.0006516785364994635,0.996
0.0008548058648860612,0.997
0.0007739636817107896,0.998
0.00051428293651842,0.999
0.0001877262704886317,1.0
-8.407500825839463e-05,1.001
-0.00015681106406933464,1.002
9.530620630483209e-05,1.003
0.0006792462428587087,1.004
0.0014244155340465273,1.005
0.0020598142347566786,1.006
0.0023703403733227363,1.007
0.002283124837485983,1.008
0.0018437828418102788,1.009
0.001153974345236025,1.01
0.0003142933521461997,1.011
-0.0006045661747018787,1.012
-0.0015387226273190268,1.013
-0.0023861484088836464,1.014
-0.002994430066028352,1.015
-0.0031963448773565657,1.016
-0.002864229725920961,1.017
-0.001953182536366681,1.018
-0.000535160187792337,1.019
0.0011910135812138898,1.02
0.0029502341994218787,1.021
0.004477706432405889,1.022
0.0055857184751023055,1.023
0.006198142930039253,1.024
0.006345907529789311,1.025
0.006124487575560444,1.026
0.005654983653068823,1.027
0.005055575453471861,1.028
0.004390417399386045,1.029
0.0036221610218598608,1.03
0.0026336456444346168,1.031
0.001316954625965915,1.032
-0.00034818683023702605,1.033
-0.002284173716564976,1.034
-0.004361305023942742,1.035
-0.006449582048065934,1.036
-0.008432426632233201,1.037
-0.010186001189270941,1.038
-0.011551713968816804,1.039
-0.012314896182760141,1.04
-0.012218508195041123,1.041
-0.011037751737282749,1.042
-0.008690522663659234,1.043
-0.005333619886838607,1.044
-0.001388685268653806,1.045
0.0025503368862480995,1.046
0.005898076495110536,1.047
0.008233958896959862,1.048
0.009370355942367823,1.049
0.009369562024234434,1.05
0.008511928708838355,1.051
0.007159814522199822,1.052
0.0055805491052891825,1.053
0.003906716691868566,1.054
0.002263658529893891,1.055
0.0008647680980425211,1.056
-7.93622721458042e-05,1.057
-0.0005273127262964849,1.058
-0.0006290163003077752,1.059
-0.0005691058302628669,1.06
-0.0004165829457084988,1.061
-0.000129947676116449,1.062
0.0003369130713117015,1.063
0.0009527847969251999,1.064
0.0015972671498227797,1.065
0.002099557739921882,1.066
0.002295012918634318,1.067
0.002080108992588182,1.068
0.0014538718678808124,1.069
0.0005263467718744124,1.07
-0.000523419399145111,1.071
-0.0015133778074158774,1.072
-0.002294922199050492,1.073
-0.0027606635627614442,1.074
-0.0028553184421020675,1.075
-0.002585520952353237,1.076
-0.0020174352405470954,1.077
-0.0012832525411321045,1.078
-0.0006074526555315626,1.079
-0.0002861218204489287,1.08
-0.0005457283859015927,1.081
-0.0013694979814051404,1.082
-0.0024730275252459145,1.083
-0.0034479053104187695,1.084
-0.003934437453150627,1.085
-0.0037335344578463014,1.086
-0.0028468822021064408,1.087
-0.0014480120428469996,1.088
0.00018654963307451725,1.089
0.0017461642029145935,1.09
0.002950834227894996,1.091
0.003619251264513508,1.092
0.0037158552246738183,1.093
0.0033408510021029573,1.094
0.0026656461880880675,1.095
0.0018596578595686847,1.096
0.0010536418167671096,1.097
0.0003441205752049975,1.098
-0.00019339342699719545,1.099
-0.0005075357417301847,1.1
-0.0005805302821828151,1.101
-0.00043423298995901927,1.102
-0.0001355170127191439,1.103
0.00021346159410215402,1.104
0.0004976304195144383,1.105
0.0005995034690617602,1.106
0.0004136612227018458,1.107
-0.00010347306851842977,1.108
-0.0008699907031696612,1.109
-0.0016639982777289762,1.11
-0.0021916965004922955,1.111
-0.00220688612110631,1.112
-0.0016258174619110744,1.113
-0.0005724886158400614,1.114
0.0006910133125944568,1.115
0.0018907499589535034,1.116
0.002805097874382588,1.117
0.0032427100237653645,1.118
0.0030352783994134825,1.119
0.0021270998088480566,1.12
0.0006915144229340918,1.121
-0.0008715528075144322,1.122
-0.002082414574773422,1.123
-0.0025567787958331034,1.124
-0.0021166440695569435,1.125
-0.0008402039577167852,1.126
0.0009303742408501407,1.127
0.002657409943673601,1.128
0.003798824621112349,1.129
0.004049731078178412,1.13
0.0034428620216629202,1.131
0.002244833350621062,1.132
0.0007964673405743634,1.133
-0.0005904354229903288,1.134
-0.0016988153885647438,1.135
-0.0024509312553136846,1.136
-0.00290123744983464,1.137
-0.0031598656547550978,1.138
-0.0032872319474305236,1.139
-0.0032456745483683304,1.14
-0.002958857112556285,1.141
-0.0024130523515271613,1.142
-0.0016873802754695803,1.143
-0.0009143131803556982,1.144
-0.0002560932409192614,1.145
9.845172101208517e-05,1.146
-9.984631582755585e-06,1.147
-0.0005952722469861445,1.148
-0.0014513469794398331,1.149
-0.0022080509922098026,1.15
-0.0024857645821995825,1.151
-0.0020493890175738625,1.152
-0.0009005683760859706,1.153
0.0007119810127562909,1.154
0.002374821355625517,1.155
0.0036550470812301353,1.156
0.0042330221629839964,1.157
0.003971475244150431,1.158
0.002943578961952523,1.159
0.0014544614160907493,1.16
5.648734972740309e-06,1.161
-0.0008613866945455378,1.162
-0.0007795416728972066,1.163
0.00030461106633468963,1.164
0.002126125707215959,1.165
0.004197039479384148,1.166
0.005940684382979389,1.167
0.0068407064827920765,1.168
0.006597324582089577,1.169
0.005228442638267812,1.17
0.0030402172149858997,1.171
0.0004914120989543735,1.172
-0.0019522034869683918,1.173
-0.003923416951163346,1.174
-0.00522025690972948,1.175
-0.0058211495112876965,1.176
-0.0058433868533094655,1.177
-0.00547762773222721,1.178
-0.004921348571148318,1.179
-0.00431953804725903,1.18
-0.003739064527366957,1.181
-0.003191693692012369,1.182
-0.0026769212689474195,1.183
-0.0022030044648191456,1.184
-0.0017748844776785033,1.185
-0.0013565473662644836,1.186
-0.0008412348470336955,1.187
-9.515459022985591e-05,1.188
0.000932275333628758,1.189
0.002133680033466851,1.19
0.0032616054252573184,1.191
0.004011284551407546,1.192
0.004139261631933514,1.193
0.003588932710841811,1.194
0.0025459963383321995,1.195
0.001368337374207775,1.196
0.0004365415213733861,1.197
1.0413568472231738e-05,1.198
0.00014791088299640485,1.199
0.0007147368514441946,1.2
0.0014629624595772599,1.201
0.0021152845566842007,1.202
0.00242708073929836,1.203
0.0022483517976399515,1.204
0.0015793230610686908,1.205
0.0005678394883132996,1.206
-0.0005600747750195884,1.207
-0.0015786335093497137,1.208
-0.002312313838768953,1.209
-0.00266948596846123,1.21
-0.002662800789746035,1.211
-0.002389605422335229,1.212
-0.001971196917579606,1.213
-0.001506120764570641,1.214
-0.0010718563885128334,1.215
-0.000730423437528485,1.216
-0.0005034584478662223,1.217
-0.00035393180644188965,1.218
-0.00020834486512999242,1.219
1.0174838679132633e-06,1.22
0.00031607710056209576,1.221
0.0007547464823439713,1.222
0.001296244080157756,1.223
0.0018583590358215237,1.224
0.0023094796606816102,1.225
0.0025133706696784833,1.226
0.0023684446415227307,1.227
0.0018347866327042225,1.228
0.0009694473999157727,1.229
-6.049837507998857e-05,1.23
-0.0010313569023644995,1.231
-0.0017434103894763717,1.232
-0.0020721831652737656,1.233
-0.0019945264248546935,1.234
-0.0015949257388745547,1.235
-0.0010334432335625183,1.236
-0.0004830617554440349,1.237
-7.255864235995516e-05,1.238
0.00014208270313493775,1.239
0.0001775610017677314,1.24
9.839927513897983e-05,1.241
-2.1237657919313807e-05,1.242
-0.0001222227457443535,1.243
-0.00016540685248756271,1.244
-0.00013518300609893983,1.245
-3.716012990256004e-05,1.246
0.0001228129572076713,1.247
0.0003550890339266461,1.248
0.0006618125266098521,1.249
0.000993438807324638,1.25
0.001258852254062982,1.251
0.0013998080805446458,1.252
0.0014419203506818709,1.253
0.0014420924460940181,1.254
0.001385816144167293,1.255
0.0011767255272428306,1.256
0.0007409775320883652,1.257
0.00011118575301146042,1.258
-0.0005976722247977513,1.259
-0.0012622970281379298,1.26
-0.001798018958866487,1.261
-0.0021629363432658067,1.262
-0.0023321330510457797,1.263
-0.002274615276676447,1.264
-0.001961038407540926,1.265
-0.0013963702415686159,1.266
-0.0006439813055262454,1.267
0.0001908326099379,1.268
0.000996696415284249,1.269
0.0016730155074186329,1.27
0.0021414575601468528,1.271
0.0023675845880949727,1.272
0.0023660430656046653,1.273
0.002174629633820145,1.274
0.001822535921260581,1.275
0.0013207381634283398,1.276
0.0006758699501663406,1.277
-9.249921956539139e-05,1.278
-0.0009475867416746303,1.279
-0.001841842934830121,1.28
-0.0027174063521964967,1.281
-0.003490304458255055,1.282
-0.004038912767194898,1.283
-0.004224926459985447,1.284
-0.003946461580546878,1.285
-0.003195549995167485,1.286
-0.0020728617284068206,1.287
-0.0007374573947050964,1.288
0.000655303186234927,1.289
0.0019741073270774533,1.29
0.0031147138915919056,1.291
0.004010633653943094,1.292
0.004625958524975533,1.293
0.00492004675065504,1.294
0.0048188611828176775,1.295
0.0042365722986188875,1.296
0.0031474709798590783,1.297
0.001648288696633362,1.298
-4.6467743136103815e-05,1.299
-0.0016692581570436228,1.3
-0.002969212564923583,1.301
-0.0037466136225204933,1.302
-0.003872742181017703,1.303
-0.0033319118573049565,1.304
-0.0022578533915829724,1.305
-0.0009068076947271233,1.306
0.000425319814382193,1.307
0.0014818840270951442,1.308
0.0020961760077378945,1.309
0.00222757801201758,1.31
0.0019642856618293423,1.311
0.001467909939241129,1.312
0.0009021551227207642,1.313
0.00039968613723297147,1.314
5.3463534874916615e-05,1.315
-0.0001003593308132993,1.316
-9.426947641979936e-05,1.317
-1.3615110900745687e-05,1.318
3.759448846186039e-05,1.319
-2.6254791204080063e-05,1.32
-0.00024097374121705034,1.321
-0.0005745903485054097,1.322
-0.0009387810733951067,1.323
-0.001239757098703397,1.324
-0.0014252891938501757,1.325
-0.00148008694657725,1.326
-0.001402435857897665,1.327
-0.0012097190098133705,1.328
-0.0009485395332092066,1.329
-0.0006671167844410348,1.33
-0.00037403166679943363,1.331
-3.8427583904465445e-05,1.332
0.00036470865018700986,1.333
0.0008074462895389383,1.334
0.0012021770950235268,1.335
0.0014390780437894364,1.336
0.0014360619048946475,1.337
0.0011745230614361836,1.338
0.000707985277417242,1.339
0.0001421115492132122,1.34
-0.00040023806138146005,1.341
-0.0008155413016786589,1.342
-0.0010504596689108303,1.343
-0.0011129061302718023,1.344
-0.0010486968710447656,1.345
-0.000901257568350926,1.346
-0.0006962582441104949,1.347
-0.00046033835491358953,1.348
-0.0002371331135002831,1.349
-6.786820935367247e-05,1.35
4.743218786444623e-05,1.351
0.0001578609930760771,1.352
0.000319442631361439,1.353
0.0005478768202345603,1.354
0.0008138065064109325,1.355
0.0010693878614249906,1.356
0.0012737356329058811,1.357
0.0014030837259870904,1.358
0.0014453984093393565,1.359
0.0013944869525866713,1.36
0.001247837449821388,1.361
0.000995273078532907,1.362
0.0006153014497636962,1.363
9.856209712636725e-05,1.364
-0.0005259609066131542,1.365
-0.0011806152459004845,1.366
-0.0017475086466691337,1.367
-0.0021067978374167615,1.368
-0.0021906576257588435,1.369
-0.0020182433866794756,1.37
-0.0016870857879977403,1.371
-0.0013178522624343772,1.372
-0.0009906009982935176,1.373
-0.0007145438425951206,1.374
-0.00042585681903405283,1.375
-9.623461495447518e-06,1.376
0.0006351863873130863,1.377
0.0015179690058369098,1.378
0.002529343090506251,1.379
0.0034785264827577288,1.38
0.004164041194449696,1.381
0.00443912857079071,1.382
0.004239145143055054,1.383
0.0035734315985511,1.384
0.002515622103461459,1.385
0.0012002794018968993,1.386
-0.00019233712089574315,1.387
-0.0014650653260050636,1.388
-0.0024414225514031826,1.389
-0.0030150845640298267,1.39
-0.0031937454738658927,1.391
-0.003096085157058244,1.392
-0.0028903174148780697,1.393
-0.0027184212553222147,1.394
-0.00264812815843033,1.395
-0.0026530534698300965,1.396
-0.0026228387220783556,1.397
-0.002411122821929848,1.398
-0.0019009120427845362,1.399
-0.0010603785854584168,1.4
2.587117356560454e-05,1.401
0.0011663832744950768,1.402
0.00212763781078262,1.403
0.0027287908738568784,1.404
0.00290397726306602,1.405
0.0027068538546828093,1.406
0.0022734852868000308,1.407
0.0017543355537927249,1.408
0.0012419466933000075,1.409
0.0007423846415664261,1.41
0.00021359537958055022,1.411
-0.0003594767534453793,1.412
-0.00091871145529309,1.413
-0.0013526306660623575,1.414
-0.001553358983179408,1.415
-0.0014625706179210208,1.416
-0.0010884413959548098,1.417
-0.0004982468736437788,1.418
0.00020037343261477357,1.419
0.0008785351613565717,1.42
0.001412297744314627,1.421
0.0017185609561712002,1.422
0.0017753562150111925,1.423
0.0016080356857880933,1.424
0.0012611632531494303,1.425
0.0007837450206303013,1.426
0.000227864169622813,1.427
-0.0003568601822724328,1.428
-0.0009344073236147945,1.429
-0.0014763532421342852,1.43
-0.0019332047595829343,1.431
-0.0022190611491498848,1.432
-0.002237798554668845,1.433
-0.0019318055050731734,1.434
-0.0013148643335338713,1.435
-0.00046395134601887587,1.436
0.0005171800642180966,1.437
0.001520032455498387,1.438
0.002419585320744826,1.439
0.003054405849266161,1.44
0.003253857335247675,1.441
0.0029232474841482518,1.442
0.0021097640523279697,1.443
0.000992300205179286,1.444
-0.0001839915270787688,1.445
-0.0011995661602266703,1.446
-0.0019476127763700716,1.447
-0.002460207398962866,1.448
-0.0028458841140280087,1.449
-0.0031832376337669155,1.45
-0.0034506761172081774,1.451
-0.0035334731839219706,1.452
-0.0032865925131718285,1.453
-0.0026162914430856413,1.454
-0.001545059776958117,1.455
-0.00021187942283236197,1.456
0.001197441524296694,1.457
0.0025144080879849103,1.458
0.0035893536232036297,1.459
0.004277999673067492,1.46
0.004480272068587906,1.461
0.004201801157273061,1.462
0.0035643204939303976,1.463
0.002756496182077847,1.464
0.001965704277011059,1.465
0.0013283164485011533,1.466
0.0009067259999001753,1.467
0.000669019941735806,1.468
0.0004797323124692812,1.469
0.00015063441317235212,1.47
-0.0004526876009805751,1.471
-0.0013244401333846975,1.472
-0.0023086299384031885,1.473
-0.0031627160782034336,1.474
-0.0036646040922153947,1.475
-0.0037071384989175735,1.476
-0.003325271106076024,1.477
-0.002652370192462231,1.478
-0.0018497423223805475,1.479
-0.0010579557652067187,1.48
-0.0003766225226395144,1.481
0.00014327641170183643,1.482
0.0004947671232811123,1.483
0.0006984778090025729,1.484
0.0007789552716302229,1.485
0.0007447061674853626,1.486
0.0005956987810732576,1.487
0.0003597548115049159,1.488
0.0001222752297376437,1.489
1.1726755799244857e-05,1.49
0.00013955844819336626,1.491
0.0005404864835212844,1.492
0.0011597363699826515,1.493
0.001878697101368223,1.494
0.002546413897200112,1.495
0.003013877234965565,1.496
0.0031685712419231376,1.497
0.0029488736137196,1.498
0.0023483668192909265,1.499
0.0014279648057499272,1.5
0.0003103293954150295,1.501
-0.0008548491701330313,1.502
-0.00192156613069305,1.503
-0.002755159188072305,1.504
-0.003231244025406239,1.505
-0.003253711338637657,1.506
-0.002795862479378963,1.507
-0.0019292478681871034,1.508
-0.0008179128971586333,1.509
0.0003140699248364301,1.51
0.0012317286807552448,1.511
0.0017415138924723437,1.512
0.0017318873293578254,1.513
0.0011889731051696307,1.514
0.00018718769565836293,1.515
-0.0011203429393379547,1.516
-0.002501419240100089,1.517
-0.0036613980164996534,1.518
-0.004303693584341457,1.519
-0.004222476003989427,1.52
-0.0033802767479781427,1.521
-0.0019250755277746415,1.522
-0.00013891898759968812,1.523
0.0016513648373662293,1.524
0.0031623628577591204,1.525
0.004207245319733459,1.526
0.004709542969880972,1.527
0.00470343355335688,1.528
0.004314239495331058,1.529
0.0037035523433043434,1.53
0.003007268163476375,1.531
0.002299101103612976,1.532
0.0015929184825838212,1.533
0.0008765723935792983,1.534
0.00015221947654723544,1.535
-0.0005328778678036054,1.536
-0.0010839282625351339,1.537
-0.0013974319356225167,1.538
-0.0014197440324427318,1.539
-0.001193897766523828,1.54
-0.0008640967189371864,1.541
-0.0006202881843026373,1.542
-0.0006121257353771035,1.543
-0.0008913037595499934,1.544
-0.0014071122407063503,1.545
-0.002033956447587213,1.546
-0.0026165511862454053,1.547
-0.0030242295940316253,1.548
-0.0031792618375717733,1.549
-0.0030352934753746486,1.55
-0.0025460370121937626,1.551
-0.0016848343968550986,1.552
-0.000498715990634565,1.553
0.0008687983699878806,1.554
0.0022022377417112086,1.555
0.0032678740745720695,1.556
0.0038795165788227666,1.557
0.003937787654907499,1.558
0.0034233091420283377,1.559
0.0023878302367274966,1.56
0.0009740536419140177,1.561
-0.0005806672794431395,1.562
-0.001996419945461789,1.563
-0.003027359919690708,1.564
-0.003520454877695189,1.565
-0.0034425861967967743,1.566
-0.0028701312485438896,1.567
-0.0019473482643311783,1.568
-0.0008349040127665039,1.569
0.0003332477273444332,1.57
0.0014684619167327254,1.571
0.002509450649386244,1.572
0.003386110059456027,1.573
0.004009054878045912,1.574
0.0043007191465908945,1.575
0.004233589161635969,1.576
0.0038406404477409595,1.577
0.0031928164239312636,1.578
0.002359317365100192,1.579
0.001383863802767645,1.58
0.0002929022285638026,1.581
-0.0008832180598335045,1.582
-0.002097922696314604,1.583
-0.003288261327159149,1.584
-0.004369116410027299,1.585
-0.0052119945179269845,1.586
-0.00564199787268586,1.587
-0.005495100602633281,1.588
-0.004706613582204611,1.589
-0.003351277428591271,1.59
-0.001614723778445117,1.591
0.00026591307837656457,1.592
0.0020561117562553246,1.593
0.0035444555085827733,1.594
0.004544217282573677,1.595
0.004921687180058403,1.596
0.004643267201265403,1.597
0.0037963484665116884,1.598
0.0025683820602000877,1.599
0.0011943182743584255,1.6
-0.00010685408052920661,1.601
-0.001178319609780504,1.602
-0.0019354887069790556,1.603
-0.0023512102281015392,1.604
-0.002445495257273117,1.605
-0.0022806842433990182,1.606
-0.001943000777055814,1.607
-0.001518674754628348,1.608
-0.0010833202155169609,1.609
-0.0007009581483910515,1.61
-0.00042047112029647765,1.611
-0.0002640879501089081,1.612
-0.000217605321373527,1.613
-0.00023921221306163557,1.614
-0.0002740675233800044,1.615
-0.00025607288277961957,1.616
-0.00011713611901400146,1.617
0.00018676774905654496,1.618
0.0006589962865691614,1.619
0.0012702781148440784,1.62
0.0019770006962539907,1.621
0.0027215714070849637,1.622
0.003416866320170743,1.623
0.003948369160007264,1.624
0.00420075470680303,1.625
0.0040824775435934985,1.626
0.00354042771355078,1.627
0.002586026578507738,1.628
0.0013231991604618926,1.629
-6.384990612405614e-05,1.63
-0.0013736862196151963,1.631
-0.002466255385517059,1.632
-0.0032984157205811723,1.633
-0.0039028362653142586,1.634
-0.004355050977530753,1.635
-0.004733449986055579,1.636
-0.005053461002068629,1.637
-0.005227754097033196,1.638
-0.005110236261776351,1.639
-0.004588198177694342,1.64
-0.0036448309122144337,1.641
-0.0023529663195502133,1.642
-0.0008219677208947742,1.643
0.0008309455295822366,1.644
0.002456676621946901,1.645
0.0038618820590701833,1.646
0.004852203843623888,1.647
0.005294176097330541,1.648
0.005157474278777724,1.649
0.0045253102663595475,1.65
0.0035661681155201436,1.651
0.002487269769474335,1.652
0.001497048694974113,1.653
0.0007711329815949759,1.654
0.00041575941431774204,1.655
0.00043964428090351615,1.656
0.0007432375247368333,1.657
0.0011395211586865868,1.658
0.0014184290716895724,1.659
0.0014312197640267775,1.66
0.0011395991141785024,1.661
0.0005996758978560929,1.662
-9.506544950552384e-05,1.663
-0.0008683456467083877,1.664
-0.0016805702762080024,1.665
-0.0025100499081054006,1.666
-0.003325718498357455,1.667
-0.004069665964702994,1.668
-0.00464521538060378,1.669
-0.00492485481941661,1.67
-0.004796229680163328,1.671
-0.004223682951162798,1.672
-0.0032808732303502485,1.673
-0.002128603985778795,1.674
-0.0009512181825337666,1.675
0.00010421242642177902,1.676
0.0009666335450240731,1.677
0.001664230706927112,1.678
0.0023023978822928736,1.679
0.0029780888007923246,1.68
0.003701395227073365,1.681
0.00439536610291973,1.682
0.00494271518095131,1.683
0.005222769415406703,1.684
0.005144076520580006,1.685
0.004678266132432473,1.686
0.0038597263452358503,1.687
0.0027479621452043755,1.688
0.0013990202610042234,1.689
-0.00012698147344444873,1.69
-0.0017420259563202395,1.691
-0.0033163735939845743,1.692
-0.004676570751203751,1.693
-0.005622032944443457,1.694
-0.005976062097198681,1.695
-0.005654597206204326,1.696
-0.004708196645409182,1.697
-0.0033095701595721614,1.698
-0.001696119305460977,1.699
-9.855580992992672e-05,1.7
0.0013088645855602308,1.701
0.002418580446843302,1.702
0.003179100434463414,1.703
0.0035896216473055294,1.704
0.003688956278520397,1.705
0.003516982227106781,1.706
0.0030777082774753285,1.707
0.002346286478922281,1.708
0.0013068543628624778,1.709
-6.734294590400526e-06,1.71
-0.001472246430216986,1.711
-0.002870836244763998,1.712
-0.0039413782345299325,1.713
-0.004460161330779329,1.714
-0.004289075016349098,1.715
-0.0033976196219840157,1.716
-0.0018836848939152529,1.717
2.066203153919115e-05,1.718
0.001979158382886628,1.719
0.0036106716285896146,1.72
0.004562320342149054,1.721
0.0045966396006688675,1.722
0.0036866727760636996,1.723
0.0020566254533894586,1.724
0.00010725534288880065,1.725
-0.0017278403105975366,1.726
-0.00309638879776588,1.727
-0.0037776546172627067,1.728
-0.0036971225908134465,1.729
-0.0029236031114883896,1.73
-0.0016355490073291532,1.731
-7.33322077088483e-05,1.732
0.001480655028233299,1.733
0.002723199627735576,1.734
0.003414982911158695,1.735
0.003489131691515088,1.736
0.0030762476018341496,1.737
0.0024214285397746527,1.738
0.0017726715631132092,1.739
0.0013083993100842493,1.74
0.0011044042194318553,1.741
0.0011203240194184263,1.742
0.0012009083837850138,1.743
0.0011182390754856586,1.744
0.000684254837965433,1.745
-0.00012232630663754358,1.746
-0.0011284141215173052,1.747
-0.002063896588296609,1.748
-0.002699557139696761,1.749
-0.002937304953687756,1.75
-0.0028240706190558558,1.751
-0.002508594973254138,1.752
-0.0021750723616558057,1.753
-0.0019764888262061167,1.754
-0.0019728667355257824,1.755
-0.0020944840177828735,1.756
-0.0021632416191326585,1.757
-0.0019652399221934437,1.758
-0.0013389384967974036,1.759
-0.00025300457462240844,1.76
0.0011527485780089691,1.761
0.0025879952087807527,1.762
0.0036859550753484257,1.763
0.0041078188426692235,1.764
0.0036666968766922874,1.765
0.002422337523578507,1.766
0.0006678431991843286,1.767
-0.0011873258164103082,1.768
-0.0027506622457560146,1.769
-0.0037332909216008406,1.77
-0.0039828593995176334,1.771
-0.0034839625214203207,1.772
-0.0023485035463749492,1.773
-0.0007993321321770102,1.774
0.0008611691912567314,1.775
0.002304278681617843,1.776
0.0032545407623993557,1.777
0.003573123733283044,1.778
0.003286775273914031,1.779
0.002548255786292227,1.78
0.0015738214875690468,1.781
0.000580836126453094,1.782
-0.0002680569651388789,1.783
-0.0008829326884406657,1.784
-0.0012141755686607143,1.785
-0.0012219062889344701,1.786
-0.0008986519066761151,1.787
-0.0003148173459420025,1.788
0.0003712423259257321,1.789
0.0009558408711577634,1.79
0.0012731009585274444,1.791
0.0012781664153442985,1.792
0.0010678106533544567,1.793
0.0008144030101520453,1.794
0.0006611910641840951,1.795
0.0006456034835554931,1.796
0.0006931065276541695,1.797
0.0006869313744058102,1.798
0.0005501470141960898,1.799
0.0002758959052648911,1.8
-6.955999829898362e-05,1.801
-0.00035249458904416443,1.802
-0.0004286688327093389,1.803
-0.00023606127399124202,1.804
0.00015306874937226383,1.805
0.0005526861443277425,1.806
0.0007471858755714019,1.807
0.0006059738382802011,1.808
0.00015349674526935606,1.809
-0.0004578322305336194,1.81
-0.0010468255043579225,1.811
-0.0015077121592161542,1.812
-0.0018502396288816421,1.813
-0.0021495608951912185,1.814
-0.0024561951299646354,1.815
-0.0027352996933612647,1.816
-0.0028651423182872947,1.817
-0.0026987932210190755,1.818
-0.0021608780355220195,1.819
-0.001307306483474002,1.82
-0.0002997207224297912,1.821
0.0006705256807335441,1.822
0.0014472221903259093,1.823
0.0019447830559117234,1.824
0.002160907939245281,1.825
0.002163537326457896,1.826
0.002048593113152928,1.827
0.0018882707526885977,1.828
0.0017090032634175848,1.829
0.0015117454243753618,1.83
0.0012946764238588185,1.831
0.0010402050304221353,1.832
0.000691571611856595,1.833
0.00017253954852797275,1.834
-0.0005458398610779908,1.835
-0.001389147455366059,1.836
-0.0021903008245345024,1.837
-0.002760889264907183,1.838
-0.0029688998293731037,1.839
-0.0027791264959050265,1.84
-0.0022521578970936284,1.841
-0.0015230741326087126,1.842
-0.0007697303456027016,1.843
-0.00015295477742411812,1.844
0.00025878728981302385,1.845
0.0005059734976050223,1.846
0.0006728484583042794,1.847
0.0008270364997634756,1.848
0.001017774721494837,1.849
0.0012869934413735937,1.85
0.0016600261535170639,1.851
0.002131000358294493,1.852
0.0026546450692638236,1.853
0.0031523197120211354,1.854
0.0035348226083228916,1.855
0.0037251859947330522,1.856
0.0036676250509367126,1.857
0.003326965325659006,1.858
0.00268747176550361,1.859
0.0017512771934114508,1.86
0.0005399112953499837,1.861
-0.00088050285919052,1.862
-0.0023569989713173646,1.863
-0.0036476782914878977,1.864
-0.004497086916414501,1.865
-0.004753527221731998,1.866
-0.004440252480053218,1.867
-0.0037142865671149416,1.868
-0.0027555914833632894,1.869
-0.0016999265799432209,1.87
-0.0006559547505422381,1.871
0.00025547786110631645,1.872
0.0009010436038210662,1.873
0.0011794259527055304,1.874
0.0010813724714959767,1.875
0.0007192232485285279,1.876
0.0002981343959643924,1.877
3.616133479918506e-05,1.878
6.104241923884018e-05,1.879
0.0003509389199784012,1.88
0.0007790616338074754,1.881
0.0012147705507235419,1.882
0.0015803770882524741,1.883
0.0018395129069876414,1.884
0.0019629153326919963,1.885
0.0019073557562456756,1.886
0.0016196003073154048,1.887
0.0010685204268028855,1.888
0.00028258734022483913,1.889
-0.0006406546933091884,1.89
-0.0015484539125218627,1.891
-0.002256809420721719,1.892
-0.002595796930379717,1.893
-0.0024627841358043478,1.894
-0.001852455101620672,1.895
-0.0008617927568055063,1.896
0.00032543032199608315,1.897
0.0014863542904065162,1.898
0.002430700335429609,1.899
0.003046226881059055,1.9
0.003287250807559253,1.901
0.003135780989765801,1.902
0.0025796274050732407,1.903
0.0016259882463798105,1.904
0.00033606691201745173,1.905
-0.0011524834879186427,1.906
-0.002640339896140239,1.907
-0.003919927582272907,1.908
-0.004846434675138174,1.909
-0.005387842282624619,1.91
-0.0056066623035825386,1.911
-0.005572064766618939,1.912
-0.005283148670577608,1.913
-0.004674830658940957,1.914
-0.003680742826537437,1.915
-0.0022866884358960487,1.916
-0.0005533546363208032,1.917
0.0013769595897026399,1.918
0.0032827143559276684,1.919
0.004882954721588495,1.92
0.00589213938548843,1.921
0.00611252915003881,1.922
0.005525990073696899,1.923
0.004329082218027086,1.924
0.0028796708522164584,1.925
0.0015701259110896468,1.926
0.0006913741259606447,1.927
0.0003561766938175076,1.928
0.0005013946383219633,1.929
0.000952067132657799,1.93
0.0015096051843424428,1.931
0.0020214697317918265,1.932
0.0024157577054990465,1.933
0.0026979085526851916,1.934
0.0029081952702350827,1.935
0.0030667483737314718,1.936
0.003153495257931974,1.937
0.0031270425398317665,1.938
0.002939836692019835,1.939
0.002536007391281887,1.94
0.0018619748529827135,1.941
0.0009012952971700507,1.942
-0.000300227440822502,1.943
-0.0016479642517796206,1.944
-0.0030355773397802537,1.945
-0.004376142793972829,1.946
-0.005612979802595696,1.947
-0.006708100143588072,1.948
-0.007614385524760975,1.949
-0.008250017042293842,1.95
-0.008494692417776553,1.951
-0.00821482676397002,1.952
-0.007314487404441105,1.953
-0.005797742896305413,1.954
-0.0038073057554218926,1.955
-0.0015975207511779055,1.956
0.0005473828906395629,1.957
0.0023838616591899406,1.958
0.0037382322477558425,1.959
0.004517508125502322,1.96
0.004707152029510065,1.961
0.0043509869345003845,1.962
0.00354329518678784,1.963
0.0024478089730114454,1.964
0.0013053347762005852,1.965
0.0003913773135485655,1.966
-6.880936879384849e-05,1.967
1.9914110919267223e-05,1.968
0.0005955800768965891,1.969
0.0014699864431581126,1.97
0.002382374746502809,1.971
0.003058506818368969,1.972
0.003285903303986527,1.973
0.002987758708603288,1.974
0.002251463514750849,1.975
0.0012969670431236214,1.976
0.0004096039447845792,1.977
-0.00013640528520531486,1.978
-0.00015401242756453776,1.979
0.0003903305455156658,1.98
0.001352698277532656,1.981
0.0024570569201167276,1.982
0.003382104790985338,1.983
0.003858228592735119,1.984
0.003753280645681518,1.985
0.0030902441813220466,1.986
0.0019842008923515817,1.987
0.0005769795671153116,1.988
-0.0009674204744868707,1.989
-0.002439677432315197,1.99
-0.0036041268918793824,1.991
-0.004264060165772838,1.992
-0.00432892114419745,1.993
-0.0038549606700973905,1.994
-0.0030384100250664056,1.995
-0.0021466641255714,1.996
-0.0014118788570581502,1.997
-0.0009426796307072753,1.998
-0.0007024166988936996,1.999
-0.0005625660209303653,2.0
-0.0003950640318758629,2.001
-0.0001538469453034728,2.002
9.60466187794705e-05,2.003
0.0002147282099664702,2.004
5.809180727536656e-05,2.005
-0.0004526533851374467,2.006
-0.0012852489167427556,2.007
-0.002292830001021495,2.008
-0.0032476486157650237,2.009
-0.0039021264315426654,2.01
-0.004074548046008733,2.011
-0.0037206911353165513,2.012
-0.002935019330445846,2.013
-0.0018893297935581128,2.014
-0.0007780738184113322,2.015
0.00020226744692091903,2.016
0.0008923322123650652,2.017
0.0012429278979857056,2.018
0.0013483601691868321,2.019
0.0013993649457371752,2.02
0.0015899485907258763,2.021
0.002035266975792201,2.022
0.002746386103067456,2.023
0.003648605118268776,2.024
0.004608425574256694,2.025
0.005469093621308221,2.026
0.006083117409389594,2.027
0.006325081144916264,2.028
0.0061031179231887354,2.029
0.0053827382721683345,2.03
0.004209028695125331,2.031
0.002704717133792816,2.032
0.0010361478959297252,2.033
-0.0006302712118667517,2.034
-0.002155634489472857,2.035
-0.0034297921167921876,2.036
-0.004350084076220085,2.037
-0.0048150417966574795,2.038
-0.004760015131097062,2.039
-0.004198133813519684,2.04
-0.003228074715623365,2.041
-0.0020135180854033733,2.042
-0.0007484009853358511,2.043
0.00037269624098917783,2.044
0.0011691081003451192,2.045
0.0015031649383628579,2.046
0.0013349764425763556,2.047
0.0007595758760221865,2.048
-6.566375559217183e-06,2.049
-0.0006865896252179537,2.05
-0.00103674709059734,2.051
-0.0009418637901533142,2.052
-0.0004677272159508535,2.053
0.000162564706786425,2.054
0.0006595086991026668,2.055
0.0007766622064080391,2.056
0.00039100943175567423,2.057
-0.0004666996298527394,2.058
-0.0016282349878588333,2.059
-0.0028380277244762224,2.06
-0.0038275376859721916,2.061
-0.004389061819991595,2.062
-0.004419194120165315,2.063
-0.003935534833028284,2.064
-0.003073093826088493,2.065
-0.0020390208461614993,2.066
-0.0010325637126912138,2.067
-0.00018624471991401148,2.068
0.0004519062533764195,2.069
0.0009210326458612309,2.07
0.0013185931466620077,2.071
0.001730313765704509,2.072
0.002185768900611088,2.073
0.0026755627509472816,2.074
0.0031886180982295745,2.075
0.0037305400756319977,2.076
0.004309504715756918,2.077
0.004898982822484629,2.078
0.0054148149554239825,2.079
0.005740562446612571,2.08
0.005780384834823618,2.081
0.005479152687323368,2.082
0.004802053150596372,2.083
0.0037332734150061723,2.084
0.0023267437835832777,2.085
0.0007505808055818182,2.086
-0.0007585874291677097,2.087
-0.0020116204623568178,2.088
-0.0029472743671289116,2.089
-0.0036270815967056067,2.09
-0.004175785492531602,2.091
-0.004704838388667484,2.092
-0.005253756689577613,2.093
-0.005777699103375919,2.094
-0.0061723352220921105,2.095
-0.006312739081756109,2.096
-0.006094551635158668,2.097
-0.00546595609571334,2.098
-0.004436100008054825,2.099
-0.0030626599220765056,2.1
-0.0014449360295627003,2.101
0.0002690121328313077,2.102
0.0018919061373556657,2.103
0.003248007615614898,2.104
0.00424904835881646,2.105
0.004936269890972155,2.106
0.005429075353844861,2.107
0.005812660912290065,2.108
0.006062312802085716,2.109
0.006043343744079105,2.11
0.005569414974541033,2.111
0.004492168430251886,2.112
0.0027746960046072513,2.113
0.0005300504608163297,2.114
-0.001960787811141179,2.115
-0.004293097055335657,2.116
-0.006071262939387415,2.117
-0.007042655956429841,2.118
-0.007153090724566241,2.119
-0.00652752419429571,2.12
-0.0053935420293248475,2.121
-0.003977357450424485,2.122
-0.0024297594286526694,2.123
-0.0008272093029127553,2.124
0.0007624847965980941,2.125
0.0022252326994478904,2.126
0.0034193979205218816,2.127
0.004241652680577078,2.128
0.00466696237330427,2.129
0.004735358690791158,2.13
0.004521932278216295,2.131
0.004119025176848391,2.132
0.003615939618474295,2.133
0.0030720202300903742,2.134
0.00251025889026726,2.135
0.001936012987125427,2.136
0.0013493895263770822,2.137
0.0007374237480128279,2.138
6.957417377307705e-05,2.139
-0.0006773292682827882,2.14
-0.001480940939913003,2.141
-0.0022717031744519216,2.142
-0.0029708274437569037,2.143
-0.0035114604511089693,2.144
-0.003817477601456197,2.145
-0.0037898113820217278,2.146
-0.0033556961453540656,2.147
-0.0025480858647400893,2.148
-0.0015197425854347752,2.149
-0.0004678064717568546,2.15
0.0004505067495594298,2.151
0.0011350784343764498,2.152
0.0015086387808640528,2.153
0.0015087892263420696,2.154
0.0011265951521184014,2.155
0.00043340843183123866,2.156
-0.00042871324987705026,2.157
-0.0012682904910295118,2.158
-0.0018718709628616412,2.159
-0.0020504039939015966,2.16
-0.0017026189485325343,2.161
-0.0008664448416151437,2.162
0.00028216718453942904,2.163
0.00149101036211444,2.164
0.002504177087108153,2.165
0.0030927665694606855,2.166
0.003082290222554647,2.167
0.002448787903109363,2.168
0.001404079879629205,2.169
0.00031484222012922037,2.17
-0.0004963815329243131,2.171
-0.000876811427826139,2.172
-0.0008391571563543635,2.173
-0.0004994668177549529,2.174
-1.1877144324586866e-05,2.175
0.0004723835348140478,2.176
0.0008155440682778119,2.177
0.0009045031379641653,2.178
0.0006866924762039974,2.179
0.00021036473938020736,2.18
-0.0003746282410130544,2.181
-0.0008798990053977135,2.182
-0.001168211057495398,2.183
-0.0012040712684551387,2.184
-0.0010475747568245315,2.185
-0.0008070011540912826,2.186
-0.0005678992389291734,2.187
-0.000342359866431615,2.188
-8.192737959777726e-05,2.189
0.0002608070703477545,2.19
0.0006839155050113957,2.191
0.0011371737708889267,2.192
0.0015546297442213326,2.193
0.0018850622805237239,2.194
0.002094864779521422,2.195
0.0021494733842341842,2.196
0.0020105255760577384,2.197
0.0016648761427632468,2.198
0.0011551749901931088,2.199
0.0005662323145711949,2.2
-2.4422707069244654e-05,2.201
-0.0005683783232217948,2.202
-0.0010253581484986906,2.203
-0.0013495666797679329,2.204
-0.0015088420483396355,2.205
-0.0015146952153149856,2.206
-0.0014371835328318334,2.207
-0.0013902939096688345,2.208
-0.0014873095417058475,2.209
-0.001788492454550809,2.21
-0.0022727069949471305,2.211
-0.0028458309944672097,2.212
-0.0033687874208923408,2.213
-0.0036786414546559603,2.214
-0.003605224695087078,2.215
-0.003014203476693791,2.216
-0.0018822123544759706,2.217
-0.00035046950863752626,2.218
0.0012945535687519363,2.219
0.002697372338805964,2.22
0.003537914707289799,2.221
0.0036516630142339346,2.222
0.0031044622442789804,2.223
0.002159367624451216,2.224
0.0011656338845382514,2.225
0.0004348975018987773,2.226
0.00014577652912559338,2.227
0.0003083445881001552,2.228
0.0007896573366032196,2.229
0.001375378760585874,2.23
0.0018449183252667385,2.231
0.002032898610158906,2.232
0.0018499958512791302,2.233
0.0012770001451647855,2.234
0.0003780247628919374,2.235
-0.0006766084478666166,2.236
-0.0016376928508405727,2.237
-0.0022653920381289615,2.238
-0.00242827197620302,2.239
-0.0021588621044912317,2.24
-0.001634784056612842,2.241
-0.0010847549077417189,2.242
-0.0006697087566448923,2.243
-0.00041826332106824436,2.244
-0.00024629093599082903,2.245
-2.116559027657082e-05,2.246
0.0003769618215141407,2.247
0.0010173877869395,2.248
0.0019105215258235055,2.249
0.003013294249881627,2.25
0.004221492035549504,2.251
0.00535846620565281,2.252
0.0061969109932247446,2.253
0.006518008994382895,2.254
0.006171250687285052,2.255
0.005115905500800484,2.256
0.003448179910429937,2.257
0.0013876465065207964,2.258
-0.0007958055880930443,2.259
-0.0028632113820707935,2.26
-0.004640749968707662,2.261
-0.006014358931413296,2.262
-0.00691577529687437,2.263
-0.007319828141899957,2.264
-0.007251405156016789,2.265
-0.006777610721866766,2.266
-0.005975131141092024,2.267
-0.004904045763742618,2.268
-0.003618570249300353,2.269
-0.002189312453072112,2.27
-0.0007094931634722509,2.271
0.0006919089827635949,2.272
0.001833643375575087,2.273
0.002510491609747722,2.274
0.0025820146672944208,2.275
0.002076084171939266,2.276
0.0012159636911483127,2.277
0.0003144716868619702,2.278
-0.0003944338203145944,2.279
-0.0008507027788838878,2.28
-0.0011330575049131966,2.281
-0.0013486648614619726,2.282
-0.001532384201842462,2.283
-0.0016062633850161597,2.284
-0.0014187450835031676,2.285
-0.0008414568840577303,2.286
0.00014945884494701927,2.287
0.0014574058711174513,2.288
0.0029017275878867603,2.289
0.004276800822424927,2.29
0.005401468311738047,2.291
0.006141642002548904,2.292
0.006423316494156944,2.293
0.006240150700814278,2.294
0.005638941236931151,2.295
0.00469496347189989,2.296
0.0035076974089829176,2.297
0.0022172368507113534,2.298
0.00100609867695166,2.299
4.750831836780412e-05,2.3
-0.0005939250000998734,2.301
-0.0010288932140235043,2.302
-0.0014901940626701447,2.303
-0.002176660308688268,2.304
-0.003114829750347486,2.305
-0.0041439178462913786,2.306
-0.005010299557931383,2.307
-0.0054739636294621015,2.308
-0.005371425324543454,2.309
-0.004656837665382899,2.31
-0.003438796038480039,2.311
-0.0019692400995115055,2.312
-0.0005550887135300858,2.313
0.0005496329032960123,2.314
0.0012038229403837062,2.315
0.0013874876019564547,2.316
0.0011806316759931709,2.317
0.0007235224682536195,2.318
0.00016356442435739763,2.319
-0.0003874170647688841,2.32
-0.0008565726852045916,2.321
-0.0011912020346886408,2.322
-0.0013515684285014106,2.323
-0.0013166989475579633,2.324
-0.0011032793200427883,2.325
-0.0007874100539806912,2.326
-0.0004898050250897671,2.327
-0.0003139077196249947,2.328
-0.0002773883351197849,2.329
-0.0002829268403191432,2.33
-0.00014859663799486855,2.331
0.00030687608819560434,2.332
0.0011577837009170016,2.333
0.002305066634241959,2.334
0.0035003002260425436,2.335
0.004455070564485277,2.336
0.004968132346519889,2.337
0.004985047820228654,2.338
0.004562376998358222,2.339
0.0037951269022959175,2.34
0.0027778993306434006,2.341
0.001603364362875947,2.342
0.00036676114832411,2.343
-0.0008316606230501601,2.344
-0.0018832777051131528,2.345
-0.0026778617684642975,2.346
-0.0031248521856364394,2.347
-0.003176171303935529,2.348
-0.002841813820079996,2.349
-0.0021945727041639516,2.35
-0.0013599881271433966,2.351
-0.0004924120974203606,2.352
0.0002572718626747431,2.353
0.0007750006343730612,2.354
0.0010100960054854394,2.355
0.0009783804551861733,2.356
0.0007319582996565214,2.357
0.0003225647696490751,2.358
-0.00020737015717201053,2.359
-0.0008163274171852769,2.36
-0.001462251498434423,2.361
-0.0020941056407182005,2.362
-0.0026355012488082424,2.363
-0.0030013068642643008,2.364
-0.003147936016801158,2.365
-0.0031025697297847638,2.366
-0.002935715015687717,2.367
-0.0026941956910666105,2.368
-0.002354549866699599,2.369
-0.0018515795307428062,2.37
-0.0011545241589269906,2.371
-0.0003091790337615176,2.372
0.0005837151906546417,2.373
0.0014263020216332034,2.374
0.0021757743664299646,2.375
0.002851956459522315,2.376
0.0034991019617113786,2.377
0.00414103813365948,2.378
0.004761678275280158,2.379
0.005307677243645584,2.38
0.005700229909717465,2.381
0.005854969242417594,2.382
0.0057012509294534375,2.383
0.005191285030908581,2.384
0.00430984607422127,2.385
0.003090314666541582,2.386
0.0016207585894055503,2.387
3.47454447517654e-05,2.388
-0.001508258578341472,2.389
-0.002859491056197438,2.39
-0.0039161604093327735,2.391
-0.004626049734383258,2.392
-0.004978858700575115,2.393
-0.005011745243463458,2.394
-0.004813514329835185,2.395
-0.0045061272955894995,2.396
-0.004212239091867546,2.397
-0.004012643218025105,2.398
-0.003900082450703559,2.399
-0.0037719400811530076,2.4
-0.0034841923701365855,2.401
-0.002931167518621105,2.402
-0.00210063471123131,2.403
-0.001068441394808633,2.404
6.422218255966985e-05,2.405
0.0012273601452494393,2.406
0.00236890194136421,2.407
0.003392824782716633,2.408
0.004126775429218932,2.409
0.0043706989494116215,2.41
0.004007370623307772,2.411
0.003088505805655552,2.412
0.0018245666670274646,2.413
0.000496199429397258,2.414
-0.0006449024782143214,2.415
-0.0014386309461359868,2.416
-0.0018280118436245175,2.417
-0.0018327355394136286,2.418
-0.0015142920488540165,2.419
-0.000943360118543901,2.42
-0.0001692532229804035,2.421
0.0007872145755016306,2.422
0.001908385930355484,2.423
0.003146692655722142,2.424
0.004390822307884067,2.425
0.005426965655149302,2.426
0.005950072820610833,2.427
0.005679846229794941,2.428
0.004514128416301005,2.429
0.0025921863428537374,2.43
0.00023087972518233798,2.431
-0.0021953295263051247,2.432
-0.0043459510173887534,2.433
-0.005956045783210312,2.434
-0.006855418866624117,2.435
-0.006982197628382006,2.436
-0.006374387149744673,2.437
-0.0051314417950912685,2.438
-0.0033788278723200747,2.439
-0.0012614514964873035,2.44
0.0010387579866248846,2.441
0.003272982354354358,2.442
0.005123584046143352,2.443
0.006278961575734234,2.444
0.006559420042530443,2.445
0.005990702232631038,2.446
0.004761303636470844,2.447
0.0031235067216320756,2.448
0.001330538360979864,2.449
-0.00038571798297401067,2.45
-0.0018443804943471182,2.451
-0.0029560183879324816,2.452
-0.003728215590121481,2.453
-0.004220067353476824,2.454
-0.004486491930567082,2.455
-0.004552393758149644,2.456
-0.004421283610302395,2.457
-0.004094076979250977,2.458
-0.0035678799986194392,2.459
-0.0028259201498167176,2.46
-0.001857088340468603,2.461
-0.0006950615012768593,2.462
0.0005688350511567979,2.463
0.0018081010896775216,2.464
0.002888835745518946,2.465
0.0036829714176042534,2.466
0.004084748139292477,2.467
0.004044749533759597,2.468
0.0035928537832225324,2.469
0.002827325109500477,2.47
0.001879230038071367,2.471
0.0008643413860357306,2.472
-0.00014673939574877992,2.473
-0.001104104923226671,2.474
-0.0019163300677958147,2.475
-0.002411388909926513,2.476
-0.0023752457447435934,2.477
-0.0016686402860739433,2.478
-0.0003502186926150652,2.479
0.0012922704069272617,2.48
0.0028472928147755764,2.481
0.003955526321080188,2.482
0.004426283038598527,2.483
0.0042293102853651785,2.484
0.003415411109880158,2.485
0.002062754229577474,2.486
0.0002959066869921677,2.487
-0.001661299444158636,2.488
-0.0034810279617252574,2.489
-0.004812145282741226,2.49
-0.005406318221152335,2.491
-0.005215431463468602,2.492
-0.004407327788683985,2.493
-0.0032846040726745487,2.494
-0.0021425073534517545,2.495
-0.0011514755586134165,2.496
-0.00032375945374078986,2.497
0.00043850879570346335,2.498
0.001239452815609603,2.499
0.002078477468229072,2.5
0.0028066135953422012,2.501
0.0031881622307805943,2.502
0.0030210019624043118,2.503
0.0022278047370342226,2.504
0.0008724953091003547,2.505
-0.0008731201618618782,2.506
-0.0027630759270957845,2.507
-0.004497970657292031,2.508
-0.005763377886171907,2.509
-0.006302546750564066,2.51
-0.005983144689525156,2.511
-0.00481711144667923,2.512
-0.00294176629672379,2.513
-0.0005790598808251995,2.514
0.002013953361497688,2.515
0.004583008300605247,2.516
0.006899334275111371,2.517
0.008772233505146443,2.518
0.010055137863846946,2.519
0.010659015912056919,2.52
0.010571892810404798,2.521
0.009852046325958186,2.522
0.008581734452297466,2.523
0.006827971575307685,2.524
0.004655910997299918,2.525
0.0021763477247706753,2.526
-0.00042314343224072207,2.527
-0.002901484702409192,2.528
-0.0050406197888180106,2.529
-0.0067213733345788396,2.53
-0.007934013411181986,2.531
-0.008713911716879253,2.532
-0.009068217008010998,2.533
-0.008968748485937554,2.534
-0.008406692056860296,2.535
-0.007438338102164974,2.536
-0.006177806315525927,2.537
-0.004762063431663198,2.538
-0.003324543090750127,2.539
-0.0019772872616265307,2.54
-0.0008024694445840738,2.541
0.00013932850942462768,2.542
0.0007998795653039153,2.543
0.0011524659699644624,2.544
0.0012219257664813177,2.545
0.0011091665031012592,2.546
0.0009742373008581387,2.547
0.0009881078118817391,2.548
0.001294098220610129,2.549
0.0019905301258837473,2.55
0.003100785441476923,2.551
0.004521970487194467,2.552
0.006017876707636013,2.553
0.007285244152528881,2.554
0.008036292755736358,2.555
0.008062175320500247,2.556
0.007284039992343408,2.557
0.005783729143489294,2.558
0.0037925944365549353,2.559
0.0016350432373933874,2.56
-0.0003572034302994113,2.561
-0.0019434347746311925,2.562
-0.0030532104757490064,2.563
-0.003803648859397711,2.564
-0.0044383007236684004,2.565
-0.005204747760547809,2.566
-0.006224746630562775,2.567
-0.0074292437195983205,2.568
-0.008596630471990944,2.569
-0.009456926635525411,2.57
-0.009762181911057021,2.571
-0.009288312604210069,2.572
-0.007845154668004528,2.573
-0.005342727104934366,2.574
-0.00188295581761258,2.575
0.002179793345993091,2.576
0.006275650550657117,2.577
0.009759072255400956,2.578
0.012052951167714133,2.579
0.01272896887596257,2.58
0.011593859044360342,2.581
0.00884390388948515,2.582
0.005160388979985793,2.583
0.0015635692849752848,2.584
-0.0009441911749856321,2.585
-0.001745667892528217,2.586
-0.0008171515572399558,2.587
0.001303713237710847,2.588
0.003767082790464609,2.589
0.005739790951079239,2.59
0.006629750229991559,2.591
0.006115224406440662,2.592
0.0040788611781296885,2.593
0.000610433231328172,2.594
-0.0038957064588021205,2.595
-0.008688786736558108,2.596
-0.012804763818139596,2.597
-0.015374815278427425,2.598
-0.015901203965574547,2.599
-0.014339190189413356,2.6
-0.011000499538192106,2.601
-0.00641175018126669,2.602
-0.0012285993404535598,2.603
0.0038035888203336006,2.604
0.007928110368523544,2.605
0.010551391638863898,2.606
0.01143939578968301,2.607
0.010780289209002718,2.608
0.009053700632927441,2.609
0.006803859379547319,2.61
0.004460088747554598,2.611
0.00227954479059036,2.612
0.00038408264522914144,2.613
-0.0011794762389230747,2.614
-0.0023802896447823025,2.615
-0.003159841699399875,2.616
-0.0034513782430733654,2.617
-0.0032556446676315406,2.618
-0.0026992297087839704,2.619
-0.002023183271995447,2.62
-0.0014895659200421857,2.621
-0.0012511799895399724,2.622
-0.0012896858665113406,2.623
-0.0014791990869282502,2.624
-0.0017102641446851623,2.625
-0.0019671319503189273,2.626
-0.002323672468154926,2.627
-0.0028867805808276354,2.628
-0.003715592112568842,2.629
-0.004741486565976376,2.63
-0.0057213526385362255,2.631
-0.006258449390466256,2.632
-0.00590920837127178,2.633
-0.004348660476794066,2.634
-0.0015271223408443234,2.635
0.0022517948270749867,2.636
0.006381568777600757,2.637
0.01013899991591063,2.638
0.012921447869431545,2.639
0.014380510601363033,2.64
0.014412315968363626,2.641
0.01313043247804801,2.642
0.010865089793814758,2.643
0.008073482887747617,2.644
0.005132631541197295,2.645
0.0021759955634353097,2.646
-0.0008699618815163542,2.647
-0.004083782863558593,2.648
-0.007346411346065813,2.649
-0.010271923500274973,2.65
-0.01231263954168323,2.651
-0.012979426637991853,2.652
-0.0120548509925191,2.653
-0.00970306611997,2.654
-0.006453227581113186,2.655
-0.0030798759248807264,2.656
-0.00039908036817024235,2.657
0.0010065223932294819,2.658
0.0010485076571051563,2.659
0.00019601336038177895,2.66
-0.0007573598772583725,2.661
-0.0010655164575606323,2.662
-0.00030817569835018394,2.663
0.001499328473279109,2.664
0.003939108848717518,2.665
0.006324235175873329,2.666
0.00789687897791606,2.667
0.008084151189594381,2.668
0.006748424022665602,2.669
0.004262455085961026,2.67
0.001315677361578255,2.671
-0.0014004163745245535,2.672
-0.0034128872748915287,2.673
-0.004527960892933098,2.674
-0.0047683126884303624,2.675
-0.004259942320376871,2.676
-0.0031568737832951476,2.677
-0.001631612303318712,2.678
0.00010568954960221446,2.679
0.0017972760196841447,2.68
0.0031608152398099622,2.681
0.003949969737508154,2.682
0.00401723862756108,2.683
0.0033345218830989594,2.684
0.001984388993938182,2.685
0.00017488041469557482,2.686
-0.001732170674345541,2.687
-0.003260939841658634,2.688
-0.003964693609534848,2.689
-0.003610121799096118,2.69
-0.002302799570628415,2.691
-0.0004694439013315769,2.692
0.0013139472217803668,2.693
0.0025522234516890266,2.694
0.002987225668549519,2.695
0.0026200147691350637,2.696
0.0016449871240537932,2.697
0.0003659130623342056,2.698
-0.0008918963586327492,2.699
-0.0018725260221305144,2.7
-0.002445043561426199,2.701
-0.0025984704848899423,2.702
-0.002397350987499473,2.703
-0.001926763365154953,2.704
-0.0012530719987819815,2.705
-0.00042313840288007987,2.706
0.0005068332265525067,2.707
0.0014422917701130862,2.708
0.0022389622957927897,2.709
0.00271658590202008,2.71
0.002710028777192872,2.711
0.002148324965786387,2.712
0.001101664055238085,2.713
-0.0002508921091348885,2.714
-0.0017051072097224325,2.715
-0.0030962428675002642,2.716
-0.004299879434935639,2.717
-0.005186991534611071,2.718
-0.005590986659916002,2.719
-0.005344008619029952,2.72
-0.004374777291371818,2.721
-0.00275887306769418,2.722
-0.0006433424241273626,2.723
0.001856775465217594,2.724
0.0046319821193221995,2.725
0.007439984003349189,2.726
0.009833894230613732,2.727
0.011274369118422755,2.728
0.011372268112991779,2.729
0.010092210827417137,2.73
0.007766350706466635,2.731
0.004916063703329631,2.732
0.002018694670004825,2.733
-0.0006352747432135394,2.734
-0.002936547766778598,2.735
-0.004853289272775677,2.736
-0.0063445327470527885,2.737
-0.0073605590462414465,2.738
-0.007894141207713559,2.739
-0.008014401263356896,2.74
-0.007860713159627008,2.741
-0.007593649208392014,2.742
-0.007311053899597474,2.743
-0.006970861996338771,2.744
-0.00637257314936984,2.745
-0.005227338628198742,2.746
-0.0032949460333239525,2.747
-0.0005300177620961237,2.748
0.0028253863957330384,2.749
0.006263893047750383,2.75
0.009153235937250597,2.751
0.01092790244102094,2.752
0.01126310059167631,2.753
0.01016348481795337,2.754
0.007917800781947664,2.755
0.004974407663976648,2.756
0.0018262577553952327,2.757
-0.0010828431729770834,2.758
-0.0034279724391599333,2.759
-0.005022916662634613,2.76
-0.005799359616948904,2.761
-0.005783054822184148,2.762
-0.005086258325953854,2.763
-0.003901980566078153,2.764
-0.0024829479700311306,2.765
-0.0011021860910988457,2.766
2.8815996133205688e-06,2.767
0.0006811293569168384,2.768
0.0008770342425526447,2.769
0.0006008004979918111,2.77
-8.878218430278964e-05,2.771
-0.0010591286880966776,2.772
-0.002069978968770877,2.773
-0.0027874979052859633,2.774
-0.0028765713491271223,2.775
-0.0021350253366523527,2.776
-0.000586753229965546,2.777
0.0015133438798630452,2.778
0.0037646389068243203,2.779
0.005765201963001263,2.78
0.00722586259474064,2.781
0.00799271533504828,2.782
0.00802488082870923,2.783
0.007387593765526651,2.784
0.00624732774612999,2.785
0.004828742231759473,2.786
0.003352342206625533,2.787
0.0019997339789844955,2.788
0.0008896641966678331,2.789
3.622722884584743e-05,2.79
-0.000680929363122392,2.791
-0.0014912989987577628,2.792
-0.002646176036706781,2.793
-0.004308703883856674,2.794
-0.00646596452843721,2.795
-0.008875564796846327,2.796
-0.011074674326097567,2.797
-0.012498871169147647,2.798
-0.012686005376196442,2.799
-0.01145725080831282,2.8
-0.008981074062322049,2.801
-0.005715405061467069,2.802
-0.002284382063216663,2.803
0.000678484608675916,2.804
0.0027046096349833547,2.805
0.0036228414259207235,2.806
0.0035888461105086787,2.807
0.0030110237977832026,2.808
0.0024104186102922322,2.809
0.0022592383384165246,2.81
0.002842645768680926,2.811
0.004168324834368182,2.812
0.005958882696564491,2.813
0.0077754106626086675,2.814
0.009218639476437708,2.815
0.010059043772555985,2.816
0.01023599749633792,2.817
0.00979689844970296,2.818
0.008851540645162581,2.819
0.0075516295485654255,2.82
0.006049533572411542,2.821
0.004416415657751856,2.822
0.0025964974167130765,2.823
0.0004525417256964942,2.824
-0.002160412103167179,2.825
-0.005342329653077646,2.826
-0.009075677804912115,2.827
-0.01311932432917272,2.828
-0.01694818486001479,2.829
-0.019817301273220667,2.83
-0.020940807412160853,2.831
-0.01971894699255496,2.832
-0.01594814450928475,2.833
-0.009969115259586074,2.834
-0.0027026320185506805,2.835
0.004530295125264811,2.836
0.010462746923144327,2.837
0.01438210562445747,2.838
0.016269392943154007,2.839
0.016527054480979745,2.84
0.015641522193336414,2.841
0.013986223393835212,2.842
0.011751636492206275,2.843
0.009017575813963813,2.844
0.005915860441453948,2.845
0.0027209954322113417,2.846
-0.00020148664739212316,2.847
-0.0025291741354926444,2.848
-0.004112276582051323,2.849
-0.0050171609326042504,2.85
-0.005454222271690004,2.851
-0.0056585260399176175,2.852
-0.005802566940488122,2.853
-0.005954428755313014,2.854
-0.0060761264699479975,2.855
-0.006054908125051779,2.856
-0.005742835368231876,2.857
-0.004995047968886133,2.858
-0.0037164931092640943,2.859
-0.0019188789800753856,2.86
0.00022750810523035215,2.861
0.0023827480919130454,2.862
0.00410117007031627,2.863
0.004965027714102703,2.864
0.004740256794680889,2.865
0.003479271974959472,2.866
0.0015150969762032973,2.867
-0.000630110934601273,2.868
-0.0023701172830076604,2.869
-0.0032029517585490707,2.87
-0.002856706404977726,2.871
-0.0013597831817105382,2.872
0.000991653710708092,2.873
0.003712376665306886,2.874
0.006194237164076131,2.875
0.0077852641998088145,2.876
0.007974631174590789,2.877
0.00665443347580132,2.878
0.004216068634128046,2.879
0.0013395179274947554,2.88
-0.001331184154939118,2.881
-0.003383442032040736,2.882
-0.004665994794822553,2.883
-0.005222345318696423,2.884
-0.00521080459571286,2.885
-0.004874405554627383,2.886
-0.0045355014555057156,2.887
-0.004534178980418929,2.888
-0.00509883962808513,2.889
-0.0062271800331325,2.89
-0.0076324998956906805,2.891
-0.008776467586287948,2.892
-0.009023286676659458,2.893
-0.00787195270957536,2.894
-0.005140943392325869,2.895
-0.0010435950091497227,2.896
0.0038388195476486016,2.897
0.008694411057575574,2.898
0.01269143590049387,2.899
0.015146744056018884,2.9
0.015643349388575235,2.901
0.014195533586894063,2.902
0.011359369933491365,2.903
0.008061975208680239,2.904
0.005199993335975498,2.905
0.0032772843696484036,2.906
0.0022573989158983284,2.907
0.0016589459999585827,2.908
0.000814237238247453,2.909
-0.0008397789594414663,2.91
-0.003525097967682963,2.911
-0.006995769798512225,2.912
-0.01058385774660271,2.913
-0.013422285904091832,2.914
-0.014734842900411934,2.915
-0.01405334335189701,2.916
-0.011315617217880556,2.917
-0.0068920781703381406,2.918
-0.0015616947354458908,2.919
0.0036149884299220727,2.92
0.007548628791064082,2.921
0.009432245483115553,2.922
0.008998124913978937,2.923
0.006593041304192778,2.924
0.0030117989118905717,2.925
-0.0007859592659479147,2.926
-0.003890674908541891,2.927
-0.005567766719560371,2.928
-0.0053777060654903236,2.929
-0.003301603654487697,2.93
0.0002029026666878346,2.931
0.004278014037067408,2.932
0.007878661109715909,2.933
0.010078502586312819,2.934
0.010361168473048356,2.935
0.008748496115772428,2.936
0.005724748153527175,2.937
0.002049658778351821,2.938
-0.0014735779817117223,2.939
-0.00423823159350671,2.94
-0.00596935726229084,2.941
-0.006681859334746259,2.942
-0.006546081923137484,2.943
-0.00576717107126624,2.944
-0.0045172991461654745,2.945
-0.002944998473571598,2.946
-0.0012332075441698525,2.947
0.00038089909941575625,2.948
0.0016483027413729803,2.949
0.0023601424388755704,2.95
0.0023791895348578393,2.951
0.001665947754617755,2.952
0.0003377898464316669,2.953
-0.001248652814985171,2.954
-0.002531135264613944,2.955
-0.002981380193037025,2.956
-0.0023858692985329485,2.957
-0.0009486620879205211,2.958
0.0008053955144433771,2.959
0.002217242185862196,2.96
0.002685488069379668,2.961
0.0018570439427477786,2.962
-0.000185568486701209,2.963
-0.00283891774049811,2.964
-0.005135092169726833,2.965
-0.006136997557051598,2.966
-0.005351001885150275,2.967
-0.0029119287241285317,2.968
0.0004943414384673946,2.969
0.0038713328334041633,2.97
0.006238226192564268,2.971
0.00695421734219352,2.972
0.005932632636531598,2.973
0.003674725375503493,2.974
0.001110273445811635,2.975
-0.0007194981159951926,2.976
-0.0010533200952944086,2.977
0.00027752812424414663,2.978
0.002778043074839155,2.979
0.005499424783564043,2.98
0.007414352409043141,2.981
0.007777709458768,2.982
0.0063467960053404104,2.983
0.0034386517099264866,2.984
-0.00015824114448348433,2.985
-0.003437439561675244,2.986
-0.00556209684018621,2.987
-0.006200142540890921,2.988
-0.0056199270017261325,2.989
-0.0045180241594941365,2.99
-0.00366825675269724,2.991
-0.0035669116585588805,2.992
-0.0042576420012052675,2.993
-0.00537554884712223,2.994
-0.0063266657829666355,2.995
-0.006532342831612309,2.996
-0.005672057276601866,2.997
-0.0037951775017012507,2.998
-0.0012333926335964139,2.999
0.001581937563276232,3.0
0.0042618161274710405,3.001
0.006509900987653396,3.002
0.008104758295631677,3.003
0.008904031609290671,3.004
0.008899440866569049,3.005
0.008215607440277968,3.006
0.006998223055602043,3.007
0.005296514915810323,3.008
0.0030711362728347335,3.009
0.0003406628933454156,3.01
-0.0026907705717559727,3.011
-0.005688309439476194,3.012
-0.008330688743626696,3.013
-0.010338021983552124,3.014
-0.011406530801412722,3.015
-0.011227635562437471,3.016
-0.00963257753004912,3.017
-0.006733256057950698,3.018
-0.002964364457652875,3.019
0.0009677445096195151,3.02
0.004252213930337946,3.021
0.006220822667497949,3.022
0.006509733279453348,3.023
0.0051109972930243166,3.024
0.0024133742102000035,3.025
-0.0008180354216522894,3.026
-0.003586797019136845,3.027
-0.0048862636728202674,3.028
-0.003986912368944112,3.029
-0.0007441553873305169,3.03
0.004245500092665381,3.031
0.009773957644716641,3.032
0.014438842178572832,3.033
0.017204386477600052,3.034
0.01777909513417662,3.035
0.01651238589344337,3.036
0.013938806814501737,3.037
0.010444278795647502,3.038
0.006270660274478682,3.039
0.0016493310247613672,3.04
-0.003141741148412514,3.041
-0.007810732794825765,3.042
-0.012110517848124728,3.043
-0.01583100550211515,3.044
-0.018704987819261335,3.045
-0.020356450550659717,3.046
-0.02040613403549352,3.047
-0.018674750805650068,3.048
-0.01533038989942618,3.049
-0.010894180334837971,3.05
-0.006120178425501227,3.051
-0.001794606111502006,3.052
0.0014867494717148183,3.053
0.003478371252936449,3.054
0.0043471523840870885,3.055
0.004636812292494439,3.056
0.005076949966592253,3.057
0.006246449891887186,3.058
0.008291310589756937,3.059
0.010888857591579709,3.06
0.013426899116467675,3.061
0.015221633890129684,3.062
0.015682377340968286,3.063
0.014477836089683983,3.064
0.011699553377501256,3.065
0.007863788896432994,3.066
0.0036827347355363623,3.067
-0.00023243287339532763,3.068
-0.0035327603319598153,3.069
-0.006105260404038387,3.07
-0.007960664931121441,3.071
-0.009158182890689856,3.072
-0.009794457310443828,3.073
-0.010006181400468604,3.074
-0.009952672209494843,3.075
-0.009800142411173596,3.076
-0.00971570488192613,3.077
-0.009810806795944257,3.078
-0.010013756385117659,3.079
-0.00998687140031813,3.08
-0.009223447654071123,3.081
-0.007302755952165553,3.082
-0.004109659536940635,3.083
0.00013485534044232637,3.084
0.0049666104815030655,3.085
0.009750000568417322,3.086
0.013732950264101838,3.087
0.016200697869090567,3.088
0.016734527081455005,3.089
0.015406005434072766,3.09
0.012743472319787069,3.091
0.009483524610564384,3.092
0.0062644648903857104,3.093
0.0034267858400426833,3.094
0.0010156381250940323,3.095
-0.001045334915781771,3.096
-0.0027800931293522446,3.097
-0.0041133175967539995,3.098
-0.004917961694675593,3.099
-0.0051041791084758615,3.1
-0.004706497638084551,3.101
-0.00390700581553204,3.102
-0.002988489555495932,3.103
-0.0022423887973357015,3.104
-0.0018628896275802085,3.105
-0.0018693969679865815,3.106
-0.002062615310025524,3.107
-0.002060765462981517,3.108
-0.0014943386468421077,3.109
-0.00027354209222469933,3.11
0.0012694667755931968,3.111
0.0024736108752939612,3.112
0.0026743338778881407,3.113
0.0016230119740400525,3.114
-0.00028322106950472853,3.115
-0.002177338036460062,3.116
-0.0032150260923154944,3.117
-0.003043773103058593,3.118
-0.001956360706052467,3.119
-0.0006970540224326782,3.12
-8.275614808922947e-05,3.121
-0.0006242077866725324,3.122
-0.0022989763720861808,3.123
-0.004583217068158278,3.124
-0.006700796055385722,3.125
-0.007900226422954173,3.126
-0.007646699960795575,3.127
-0.0057688912071244035,3.128
-0.002550123484800161,3.129
0.0013493484759243709,3.13
0.005155180437382338,3.131
0.00826656320618417,3.132
0.010383170152622192,3.133
0.011449039489265456,3.134
0.011561959761776605,3.135
0.010941916800981203,3.136
0.009870825652495155,3.137
0.008527742800626867,3.138
0.006834787968870289,3.139
0.0044913933931389535,3.14
0.0012175613694285293,3.141
-0.002964880815853323,3.142
-0.0076284799850070166,3.143
-0.012081417731350656,3.144
-0.015622064651922582,3.145
-0.017703959907903657,3.146
-0.017943176754597362,3.147
-0.016109462013959228,3.148
-0.01224149344197193,3.149
-0.006826061000032421,3.15
-0.0008274262390795353,3.151
0.004582271217239227,3.152
0.008461000640545826,3.153
0.01042800208608276,3.154
0.01075825702637903,3.155
0.010234036561371423,3.156
0.009784444555815982,3.157
0.010032136119712544,3.158
0.010961630823310382,3.159
0.011930576363697983,3.16
0.012047349508812318,3.161
0.01064306829241737,3.162
0.007555182635336596,3.163
0.003182454002799383,3.164
-0.001640889499654964,3.165
-0.005939896559396019,3.166
-0.008947511833222597,3.167
-0.010316177769933153,3.168
-0.010134130145210809,3.169
-0.008809680758522835,3.17
-0.006892876417584886,3.171
-0.00490000909996485,3.172
-0.0031618643854412496,3.173
-0.0017193212760424085,3.174
-0.0003890553854503308,3.175
0.0009902190690628911,3.176
0.0023831456088166483,3.177
0.00361827630485469,3.178
0.004502458810336307,3.179
0.004808540593919759,3.18
0.004264338145968827,3.181
0.0026996541497666684,3.182
0.00022779530948286177,3.183
-0.0027647698759211145,3.184
-0.0058180779344372754,3.185
-0.008572837068684646,3.186
-0.010783749987552445,3.187
-0.012227068202427013,3.188
-0.012624919913722204,3.189
-0.01167597180662371,3.19
-0.009211494532911839,3.191
-0.005383905688351858,3.192
-0.0007358543871967802,3.193
0.003913298783292136,3.194
0.007722164101220779,3.195
0.010117620888513347,3.196
0.01096251852196612,3.197
0.010510862876810363,3.198
0.009207064188438373,3.199
0.007462258148525886,3.2
0.0055209595238168395,3.201
0.0034718499487087374,3.202
0.0013983779032009877,3.203
-0.00046474558624753746,3.204
-0.001782936166726192,3.205
-0.0023603070887031124,3.206
-0.002272397845625007,3.207
-0.0017464695588598799,3.208
-0.0009582222887666901,3.209
7.389463531379529e-05,3.21
0.0014817272854830603,3.211
0.003443044129754575,3.212
0.00597825290998503,3.213
0.008750166171851008,3.214
0.011054558021250568,3.215
0.012078439312428454,3.216
0.011288011829066956,3.217
0.008694499073138344,3.218
0.00483032569692171,3.219
0.00048679373720820346,3.22
-0.003595898024857397,3.221
-0.006940080406906241,3.222
-0.009417159674573116,3.223
-0.011221984049992332,3.224
-0.012694173740246539,3.225
-0.014023221733953092,3.226
-0.015063152675761929,3.227
-0.015403485894229142,3.228
-0.014581370522042196,3.229
-0.012291274416497282,3.23
-0.00854632916526566,3.231
-0.0037452028961509577,3.232
0.00140239282641665,3.233
0.006081478168065671,3.234
0.009605997970185829,3.235
0.011552736263512366,3.236
0.011782652487542832,3.237
0.010412320542937484,3.238
0.007753840089801694,3.239
0.004275002473587627,3.24
0.0006453902429137031,3.241
-0.0022774295262398794,3.242
-0.0037017066953595355,3.243
-0.003262530496016101,3.244
-0.001234442962106749,3.245
0.0015170312687559856,3.246
0.003826040013535676,3.247
0.004614268370683251,3.248
0.003218212437180632,3.249
-0.0003636913091371998,3.25
-0.00531878771397504,3.251
-0.010102677487948289,3.252
-0.012862400539085198,3.253
-0.012111135006269171,3.254
-0.007364152409355597,3.255
0.0005951566531100283,3.256
0.009918500492951288,3.257
0.018248370889619638,3.258
0.02349755566329665,3.259
0.024596842174612506,3.26
0.021794467879474047,3.261
0.016357293866834464,3.262
0.009925405943889125,3.263
0.003847992274013984,3.264
-0.0012298276694571232,3.265
-0.005370620550402063,3.266
-0.009000286153323525,3.267
-0.012453768674739093,3.268
-0.015692580927292168,3.269
-0.018313247942254383,3.27
-0.019719032269971955,3.271
-0.01931352115753357,3.272
-0.016721069583856538,3.273
-0.012022686738456728,3.274
-0.005874920381159174,3.275
0.0005927584168238812,3.276
0.006072381830821883,3.277
0.00944437147436004,3.278
0.010093111855966055,3.279
0.008104078980426038,3.28
0.00426954513752297,3.281
-0.00018365452311891215,3.282
-0.004044067715668493,3.283
-0.006476368649142394,3.284
-0.007139581843779811,3.285
-0.0060872986989292934,3.286
-0.00357150176775685,3.287
8.147601045098806e-05,3.288
0.004441903108705716,3.289
0.00891139174897472,3.29
0.012792733016855119,3.291
0.015452083098210964,3.292
0.01639935229241616,3.293
0.015304692508280983,3.294
0.012083703230278074,3.295
0.007033185243925733,3.296
0.0008798629827863711,3.297
-0.005343496416756282,3.298
-0.010539719296657618,3.299
-0.013806994909520113,3.3
-0.014651184354003968,3.301
-0.013084441394417355,3.302
-0.009605292125898914,3.303
-0.0050969117495465125,3.304
-0.0006231391071212457,3.305
0.0028450465163367498,3.306
0.00461924882455883,3.307
0.00433103175466053,3.308
0.001955902751714636,3.309
-0.002025594087950851,3.31
-0.006441790681743892,3.311
-0.009574524680076208,3.312
-0.009799437688402355,3.313
-0.006356843758388063,3.314
0.00026840648497733347,3.315
0.008448125699125772,3.316
0.01582928572318454,3.317
0.020068397461936,3.318
0.019769762208582432,3.319
0.015122448323438726,3.32
0.007752904755077276,3.321
-0.00010642766083168136,3.322
-0.006524831087525171,3.323
-0.010365616728651755,3.324
-0.01132410506459183,3.325
-0.009744326425285181,3.326
-0.006421006199867348,3.327
-0.002394164176253233,3.328
0.001326571162935203,3.329
0.004004202724609577,3.33
0.0052338677375528666,3.331
0.004884848019342252,3.332
0.0030947517992561645,3.333
0.00032146162841159033,3.334
-0.0026903339279270738,3.335
-0.005120854567377955,3.336
-0.0063930667237151505,3.337
-0.0064035891082969785,3.338
-0.005527199544092514,3.339
-0.00441246559788604,3.34
-0.0036624862151303263,3.341
-0.003515453161359591,3.342
-0.003694015697874144,3.343
-0.00353970379237672,3.344
-0.002328442844938077,3.345
0.0004314177511353423,3.346
0.004779999821570815,3.347
0.01015219416353577,3.348
0.015359953840748092,3.349
0.0188212742991653,3.35
0.019040155110953118,3.351
0.01517920829554647,3.352
0.007492198398528573,3.353
-0.0025826838105836845,3.354
-0.012788115768704858,3.355
-0.020794065630351112,3.356
-0.02497005280401636,3.357
-0.02481296502573265,3.358
-0.020958700101737667,3.359
-0.014886818718863671,3.36
-0.00839238420412823,3.361
-0.0029527619639854144,3.362
0.000746985032488136,3.363
0.0028849037703919996,3.364
0.004146601945289239,3.365
0.005232856307811779,3.366
0.0066123952921470835,3.367
0.00854201618185031,3.368
0.01106381084774425,3.369
0.01395548622101984,3.37
0.016825841726348156,3.371
0.01923171686775416,3.372
0.02064271070640883,3.373
0.020465633036074054,3.374
0.018276209822732727,3.375
0.014030209041454737,3.376
0.008102997858594353,3.377
0.0012396173550773602,3.378
-0.0055547751663961465,3.379
-0.01123395664262053,3.38
-0.01501269973844458,3.381
-0.016595140189920886,3.382
-0.016196800223653867,3.383
-0.014392976992224476,3.384
-0.011899389786224608,3.385
-0.009385548625506142,3.386
-0.007376104761062468,3.387
-0.006191208179569605,3.388
-0.0058766433044984715,3.389
-0.006205907621904314,3.39
-0.006821629275310414,3.391
-0.007399701390480592,3.392
-0.007710734415214523,3.393
-0.0075955034887233205,3.394
-0.006906286735474529,3.395
-0.005489359245416735,3.396
-0.0032870945147142313,3.397
-0.00047455031402747743,3.398
0.0025507395586876276,3.399
0.005347764393647969,3.4
0.0076183466100165865,3.401
0.009290615289923282,3.402
0.010535438699977678,3.403
0.011688060867548292,3.404
0.012987290179901982,3.405
0.0142882230111438,3.406
0.015042783461228212,3.407
0.014572992889168784,3.408
0.012441221335671703,3.409
0.008757100612324148,3.41
0.00426659636927088,3.411
9.71205550750204e-05,3.412
-0.0027424559712677958,3.413
-0.0038020556651197834,3.414
-0.0033423269664180776,3.415
-0.00221471277653299,3.416
-0.0015530971397224114,3.417
-0.002262787364247796,3.418
-0.004460873297091266,3.419
-0.007324992709410637,3.42
-0.00956621904426926,3.421
-0.010170209172755778,3.422
-0.008906553498094385,3.423
-0.006358571225109244,3.424
-0.0035480753014862252,3.425
-0.0014550802880402692,3.426
-0.0006787489976535198,3.427
-0.0012764370854976073,3.428
-0.002731122360864513,3.429
-0.0040784077359027615,3.43
-0.004269980642258033,3.431
-0.0026606189301144924,3.432
0.0006866219126169754,3.433
0.005067931127799143,3.434
0.009456662083806274,3.435
0.012773226450196223,3.436
0.01403503529602494,3.437
0.012606670958491027,3.438
0.008566149360543241,3.439
0.0028234822642278297,3.44
-0.0032498076445761953,3.441
-0.008454479932955155,3.442
-0.012229708970017275,3.443
-0.014670677531896254,3.444
-0.016141590629365744,3.445
-0.01685208115105868,3.446
-0.016697065626010858,3.447
-0.015282322560487524,3.448
-0.0120228578126953,3.449
-0.006434667533315194,3.45
0.001377306015282681,3.451
0.010356894344959065,3.452
0.018588948537309354,3.453
0.023880938371382113,3.454
0.02457829260139896,3.455
0.020254642818977157,3.456
0.011966855974099149,3.457
0.0019215057792727943,3.458
-0.007269552484323388,3.459
-0.01335927076511703,3.46
-0.015025421834585943,3.461
-0.012135253617496903,3.462
-0.005651783788416062,3.463
0.0027798994735601158,3.464
0.011336949963695404,3.465
0.018353960598635186,3.466
0.02251733429349815,3.467
0.023119824337646998,3.468
0.020295099961833558,3.469
0.014935148634922603,3.47
0.008275277015529428,3.471
0.0014451337892955444,3.472
-0.004786489948510134,3.473
-0.010033664983545841,3.474
-0.014164823940468581,3.475
-0.01715306311619471,3.476
-0.018966867763982733,3.477
-0.019534517582818798,3.478
-0.01882611611208512,3.479
-0.017003511380473166,3.48
-0.014483776339752164,3.481
-0.011792151237824603,3.482
-0.009288580679649262,3.483
-0.007034048790575644,3.484
-0.004915841648840497,3.485
-0.0028515203465595503,3.486
-0.0008395906888433121,3.487
0.0011611172490121869,3.488
0.0033207299336841215,3.489
0.00581702843066662,3.49
0.00860239117543318,3.491
0.011350120286157797,3.492
0.013650389954974413,3.493
0.01518483612425638,3.494
0.015716181731099624,3.495
0.015054529667592676,3.496
0.013129030207629358,3.497
0.010077536499551898,3.498
0.006254030434687318,3.499
0.002155406408085723,3.5
-0.0016866856875805383,3.501
-0.0048052469724009375,3.502
-0.0068831602093187795,3.503
-0.007849158867741346,3.504
-0.00792910122237837,3.505
-0.007520382065649319,3.506
-0.006891318834493233,3.507
-0.005956886433478975,3.508
-0.004386844887413199,3.509
-0.0019436714490952017,3.51
0.0012821545599531693,3.511
0.004829392490835954,3.512
0.007910333287680189,3.513
0.009607925316960593,3.514
0.009259537256814722,3.515
0.006730047071531638,3.516
0.0023400262358344946,3.517
-0.003350238103170853,3.518
-0.009579623604961021,3.519
-0.01525606173354327,3.52
-0.018965981170120105,3.521
-0.01934162780077513,3.522
-0.015690863295971195,3.523
-0.008535825393518827,3.524
0.0003255183752977266,3.525
0.008313815290243488,3.526
0.0129147678681766,3.527
0.012686643974134729,3.528
0.008052780758490542,3.529
0.0012470787364565546,3.53
-0.004706542072114687,3.531
-0.007337147294873205,3.532
-0.005673346374057702,3.533
-0.00040270393935812825,3.534
0.006683759711022795,3.535
0.013484495462148133,3.536
0.01821658206241855,3.537
0.01976627527871793,3.538
0.017782909229483418,3.539
0.012626673176922353,3.54
0.005266865963241842,3.541
-0.0028955433474210004,3.542
-0.010324617559825474,3.543
-0.01573753582913894,3.544
-0.018439308711015037,3.545
-0.01836968681288901,3.546
-0.015838771388324825,3.547
-0.011241409838088346,3.548
-0.004993750804743277,3.549
0.00233355279405225,3.55
0.009850567213954817,3.551
0.016322312115844454,3.552
0.020382298710594462,3.553
0.020961188538384228,3.554
0.017796519733633588,3.555
0.011720476692957883,3.556
0.00436802227679257,3.557
-0.002594734455467357,3.558
-0.008123077804937744,3.559
-0.011914057909856782,3.56
-0.014122036554405852,3.561
-0.015058407176371906,3.562
-0.01509467771170992,3.563
-0.01462984165642304,3.564
-0.013918681972187211,3.565
-0.01288711697464104,3.566
-0.011189502518446663,3.567
-0.00844867883056271,3.568
-0.004494954207683331,3.569
0.0004231909374113244,3.57
0.005529245301723144,3.571
0.009647049287166006,3.572
0.011615049507482635,3.573
0.01091590825516474,3.574
0.008151415625701637,3.575
0.004843284922649847,3.576
0.0025776306504893794,3.577
0.0021455533319008906,3.578
0.0032669787895466293,3.579
0.004943366237819779,3.58
0.006063101249320135,3.581
0.005859139342950766,3.582
0.0040966870100298215,3.583
0.0010906162910045373,3.584
-0.002376177389530761,3.585
-0.005248810016278313,3.586
-0.006531943651113263,3.587
-0.005711906244882426,3.588
-0.003062345530848315,3.589
0.00041586137146875746,3.59
0.003440551495058511,3.591
0.005040814023234684,3.592
0.004931082541014696,3.593
0.0034573964259345005,3.594
0.0013372356780063793,3.595
-0.0005141252288570627,3.596
-0.001171086827001277,3.597
-2.542655688857131e-05,3.598
0.002945793890550838,3.599
0.0071784935780150995,3.6
0.011766049985447042,3.601
0.01574622327753904,3.602
0.018202662928556955,3.603
0.01821038804519956,3.604
0.014910452732745286,3.605
0.007902601303110171,3.606
-0.0022453550238235196,3.607
-0.013858872933028054,3.608
-0.024644639264821678,3.609
-0.03252104763062143,3.61
-0.03628103787613811,3.611
-0.03579643309868825,3.612
-0.031804232457850856,3.613
-0.025469221513426107,3.614
-0.017912509250837684,3.615
-0.009906673582245425,3.616
-0.0018617233457245272,3.617
0.005999117948980886,3.618
0.013454706617785419,3.619
0.020136234423893194,3.62
0.025392500420104165,3.621
0.028268093403918615,3.622
0.027761706675755733,3.623
0.02335599538051958,3.624
0.015521355887670311,3.625
0.00580778893450978,3.626
-0.003614313717828095,3.627
-0.010742932542273397,3.628
-0.014460204163039385,3.629
-0.014776018955149312,3.63
-0.012476190744677096,3.631
-0.008574291521902254,3.632
-0.00400980415446545,3.633
0.0004146848921361934,3.634
0.004002718107900598,3.635
0.006161747067488529,3.636
0.006588686780435513,3.637
0.0055353647827586705,3.638
0.0038140395902678207,3.639
0.002479054869024946,3.64
0.002489113715892661,3.641
0.004562891721226805,3.642
0.00905237678519675,3.643
0.015620247158681039,3.644
0.022946303543067276,3.645
0.028973381851166352,3.646
0.03178007505645852,3.647
0.030414508717636998,3.648
0.025062920108302085,3.649
0.01671699539204,3.65
0.0067526921477033,3.651
-0.003501246235203133,3.652
-0.013138661340625905,3.653
-0.021784835159700467,3.654
-0.02938928692165015,3.655
-0.03585649219958602,3.656
-0.04074541640944463,3.657
-0.04325281036148189,3.658
-0.042482190882743236,3.659
-0.03780167459630397,3.66
-0.029219319637291876,3.661
-0.01775870964594922,3.662
-0.005517615980448936,3.663
0.004861416369032598,3.664
0.01109123762340803,3.665
0.012071252851299924,3.666
0.008285671773909027,3.667
0.001631283121181493,3.668
