VaMe,time
-0.0016387255721360065,0.001
-0.012066433916400601,0.002
-0.021650264722173986,0.003
-0.029897521478909568,0.004
-0.036634553938031514,0.005
-0.04182507834823075,0.006
-0.04540984082737699,0.007
-0.04733871377588915,0.008
-0.04768442118647235,0.009
-0.0465659759433374,0.01
-0.04381167395114876,0.011
-0.03876329423796476,0.012
-0.03072310241489976,0.013
-0.019758327019788448,0.014
-0.007008090019351651,0.015
0.005762183283746996,0.016
0.01688405259913709,0.017
0.025285744556538405,0.018
0.03056606064627283,0.019
0.03275154180818817,0.02
0.03201070268632327,0.021
0.028535208913286737,0.022
0.022661010403970932,0.023
0.015154542275919745,0.024
0.007394313151178952,0.025
0.001124591881897481,0.026
-0.0022278229586978507,0.027
-0.0022256440189274145,0.028
0.0004273600335556538,0.029
0.004284532717036279,0.03
0.007712564236653703,0.031
0.009318723021080602,0.032
0.008163363645864122,0.033
0.0037638849282469037,0.034
-0.0038853001660839083,0.035
-0.014069913163557159,0.036
-0.025078470585738012,0.037
-0.03430593321159369,0.038
-0.038912730415128466,0.039
-0.03673366133702423,0.04
-0.027039781073726458,0.041
-0.011003697467917628,0.042
0.008434627448347633,0.043
0.027560044859623888,0.044
0.04311934806552731,0.045
0.05288647290697754,0.046
0.05548246382426559,0.047
0.05004019246688901,0.048
0.036254837965199196,0.049
0.014948251207178017,0.05
-0.01125189004922307,0.051
-0.037769717649660785,0.052
-0.05898484534937932,0.053
-0.07014535365101406,0.054
-0.06928306188242409,0.055
-0.05773659410408879,0.056
-0.03893613509898068,0.057
-0.016592890153439035,0.058
0.00623910342276,0.059
0.02704569084279263,0.06
0.04370727970111626,0.061
0.05480187286063325,0.062
0.05984639445487801,0.063
0.05917134341046499,0.064
0.05365696062123042,0.065
0.044530583072633884,0.066
0.03321722940920262,0.067
0.02111826968830843,0.068
0.009375091254961629,0.069
-0.001115794194099086,0.07
-0.009648728594908937,0.071
-0.015933506566517458,0.072
-0.0201878442247297,0.073
-0.02283441065518457,0.074
-0.02419295294303441,0.075
-0.024407182011613408,0.076
-0.023532001799815728,0.077
-0.02168795339780325,0.078
-0.019168004216477907,0.079
-0.016353383997811475,0.08
-0.013483483729461974,0.081
-0.010521107075428615,0.082
-0.0071916598296901625,0.083
-0.003180997401270884,0.084
0.0014996278290097418,0.085
0.006221686624244673,0.086
0.009767009972938773,0.087
0.010621196129372448,0.088
0.00742824131004244,0.089
-0.0004841908149805392,0.09
-0.01265371716753651,0.091
-0.027207398795371544,0.092
-0.04089407451518594,0.093
-0.04969103105262197,0.094
-0.05002159731384799,0.095
-0.04004017075841577,0.096
-0.020419771362160426,0.097
0.005489099272112465,0.098
0.03229728144937959,0.099
0.0541201347925404,0.1
0.06646235498422702,0.101
0.06749658247966894,0.102
0.05820223321361307,0.103
0.04164141722933494,0.104
0.021996428068803465,0.105
0.003616566390678092,0.106
-0.00995673715886371,0.107
-0.016789389789486686,0.108
-0.016826270232638996,0.109
-0.011562006909774148,0.11
-0.0033259382714617967,0.111
0.005577997276838133,0.112
0.013566430265542693,0.113
0.019923907172777384,0.114
0.024382835100689292,0.115
0.02661264639236139,0.116
0.02606039277140938,0.117
0.02224522192068135,0.118
0.015274083719983499,0.119
0.006065868863976664,0.12
-0.004004827202977227,0.121
-0.013800470920131416,0.122
-0.0229942820600498,0.123
-0.03208336817328818,0.124
-0.04169061207544996,0.125
-0.05159612656989689,0.126
-0.060177700251577475,0.127
-0.06473708130384771,0.128
-0.06278799964900436,0.129
-0.05352929443208181,0.13
-0.03817729474120678,0.131
-0.01882168343928712,0.132
0.0029586992204913426,0.133
0.026236914823656927,0.134
0.049320541740317095,0.135
0.06803911962933655,0.136
0.07591094718784676,0.137
0.06722734016173332,0.138
0.041279283585032196,0.139
0.004518048863984831,0.14
-0.031054355306325703,0.141
-0.052607457364093196,0.142
-0.05214335699100481,0.143
-0.03015397881742161,0.144
0.004853848828052133,0.145
0.04050529012841181,0.146
0.06576268923684235,0.147
0.0745375102527994,0.148
0.06655920271708232,0.149
0.0459375542277098,0.15
0.0188160854064285,0.151
-0.008455006793411116,0.152
-0.030190629783308102,0.153
-0.04191673499582461,0.154
-0.04118478916730138,0.155
-0.02843651491442725,0.156
-0.007361526758780406,0.157
0.01562553269296471,0.158
0.03292339368497091,0.159
0.0379467338690183,0.16
0.027073080720586094,0.161
0.00045883741760122993,0.162
-0.0383017012398432,0.163
-0.08295414300043509,0.164
-0.12527887748811123,0.165
-0.155905279422944,0.166
-0.1657684767627904,0.167
-0.1482483470728698,0.168
-0.10139086192524681,0.169
-0.029530996183568612,0.17
0.05642500018587194,0.171
0.14088899221812248,0.172
0.20762815238843754,0.173
0.2444327216492109,0.174
0.24627157012485543,0.175
0.21573549962801786,0.176
0.16109490677062338,0.177
0.093275309632387,0.178
0.023177725750678713,0.179
-0.039985659809440334,0.18
-0.08953849944192174,0.181
-0.1217710286205634,0.182
-0.13605426137342588,0.183
-0.13446957727453943,0.184
-0.12094397044569134,0.185
-0.10017488546718745,0.186
-0.07665235286825574,0.187
-0.05393125151557564,0.188
-0.03425352676484662,0.189
-0.018582971158383272,0.19
-0.006936170507357715,0.191
0.0011036354225958693,0.192
0.00583978183610969,0.193
0.007335143817392617,0.194
0.005931844246205114,0.195
0.0029051177439242334,0.196
0.00045916243085156264,0.197
0.0007768726982596923,0.198
0.004756084392603209,0.199
0.01153014659548518,0.2
0.019304447155339157,0.201
0.026829771021635786,0.202
0.034118882838063774,0.203
0.041903022999768766,0.204
0.050672864148035554,0.205
0.060087938482424844,0.206
0.06884935151029242,0.207
0.07488820889672639,0.208
0.07566651081849363,0.209
0.06851146103892893,0.21
0.05114392154781116,0.211
0.022619923076910062,0.212
-0.015425059547283914,0.213
-0.05793907245886643,0.214
-0.09688491728282235,0.215
-0.12331641800542106,0.216
-0.13055291849800357,0.217
-0.11680496493653164,0.218
-0.08568380980342274,0.219
-0.04460141018927669,0.22
-0.002298724588552519,0.221
0.03333929136845358,0.222
0.056716898627357105,0.223
0.06522291202474918,0.224
0.05935567299571465,0.225
0.042458286518434384,0.226
0.02005747213776227,0.227
-0.001328262500839155,0.228
-0.015853879656387838,0.229
-0.020038763917971505,0.23
-0.013683595624485649,0.231
0.0004896167978901932,0.232
0.01813663041524786,0.233
0.03477547687994945,0.234
0.04684624386138889,0.235
0.05218723053139548,0.236
0.05014072121438845,0.237
0.04134927114710759,0.238
0.027263499804145056,0.239
0.009729299029489323,0.24
-0.009059673577965095,0.241
-0.026473483898001214,0.242
-0.03962435734332251,0.243
-0.04598965310772566,0.244
-0.04435126592002376,0.245
-0.03551381221463978,0.246
-0.022221582569469014,0.247
-0.008298158099096564,0.248
0.0025060406861557357,0.249
0.007381470592693101,0.25
0.0046661653419695776,0.251
-0.00620327975295341,0.252
-0.024272946781575152,0.253
-0.046434040181616926,0.254
-0.067519274987045,0.255
-0.08143856949029436,0.256
-0.08283756710275035,0.257
-0.06876800891771316,0.258
-0.039969250921890576,0.259
-0.000994143356475067,0.26
0.04131136364855716,0.261
0.0801023860461055,0.262
0.11010920072080378,0.263
0.12802839246195719,0.264
0.13236756100244806,0.265
0.12334890082273793,0.266
0.10288639088714874,0.267
0.07441017609255017,0.268
0.042322399413490544,0.269
0.01096456827947337,0.27
-0.016505827544507478,0.271
-0.038681115266057,0.272
-0.05571274095739283,0.273
-0.06856166271435737,0.274
-0.0780531951718436,0.275
-0.08417789560493928,0.276
-0.0859689228326702,0.277
-0.08204854834977586,0.278
-0.07159785087447919,0.279
-0.05504285347424311,0.28
-0.03387112560369569,0.281
-0.009920583649508796,0.282
0.015118942279535674,0.283
0.03968678408728186,0.284
0.06186708425157704,0.285
0.07872045590797114,0.286
0.08619032592397155,0.287
0.08051007795372567,0.288
0.06063924775468905,0.289
0.029528271096619416,0.29
-0.00700576071816983,0.291
-0.0424359786866213,0.292
-0.07102694604894988,0.293
-0.08857871113495484,0.294
-0.09293768583578509,0.295
-0.08429581081657203,0.296
-0.0649302761577336,0.297
-0.03831652599410128,0.298
-0.008234899282871007,0.299
0.02160953450328532,0.3
0.047788518152069914,0.301
0.0675688513391541,0.302
0.07939981721086052,0.303
0.08320548297586997,0.304
0.08027914184736835,0.305
0.07273649446785521,0.306
0.06279329988958288,0.307
0.05211893103115549,0.308
0.04140970670046884,0.309
0.030366516112419008,0.31
0.018085560138570544,0.311
0.003621009827090269,0.312
-0.013585681100455846,0.313
-0.03352080152529867,0.314
-0.05538605706014373,0.315
-0.07714328766218197,0.316
-0.09525530625955261,0.317
-0.10532854665185502,0.318
-0.10361955054242582,0.319
-0.08858206189224106,0.32
-0.06172835883675214,0.321
-0.027483520593219256,0.322
0.008017536681029001,0.323
0.038764656898747446,0.324
0.06047504845391683,0.325
0.07132676413614704,0.326
0.07178640744379855,0.327
0.06378312260337843,0.328
0.049596877603613504,0.329
0.03098578171766025,0.33
0.008978281553719207,0.331
-0.015593554898204527,0.332
-0.04102553079338903,0.333
-0.06368385134448654,0.334
-0.07797952138982175,0.335
-0.07806482909577062,0.336
-0.060547919613619064,0.337
-0.026702067911956374,0.338
0.016963657190491924,0.339
0.060408638673961,0.34
0.0938115463974633,0.341
0.11135870182744192,0.342
0.11251433848728878,0.343
0.10037134274786341,0.344
0.07904600296884931,0.345
0.0521700686909839,0.346
0.022851336676579886,0.347
-0.005988164655983237,0.348
-0.03175008931802172,0.349
-0.05264671360955803,0.35
-0.06821183028652986,0.351
-0.07942709711773596,0.352
-0.08773720099842844,0.353
-0.09305324832309636,0.354
-0.0925226836266734,0.355
-0.08167419542692161,0.356
-0.05728762753506364,0.357
-0.020026271125855467,0.358
0.024608024325272603,0.359
0.06751143701097422,0.36
0.09883715167289613,0.361
0.1111822206489324,0.362
0.10213679207184174,0.363
0.07523797556739556,0.364
0.03846313890692377,0.365
0.0010572253898569863,0.366
-0.029503198394895916,0.367
-0.04933148074786953,0.368
-0.058350500007409815,0.369
-0.059062373635301924,0.37
-0.05468964178041907,0.371
-0.047677132133032325,0.372
-0.0391464498416214,0.373
-0.02928356014310507,0.374
-0.018077231519280458,0.375
-0.005841499900997206,0.376
0.006544543034419828,0.377
0.017615773066607963,0.378
0.025586244036358837,0.379
0.028976177208329675,0.38
0.02753663435805484,0.381
0.02294767345430237,0.382
0.01852591757455156,0.383
0.017734229569674548,0.384
0.022158777605711763,0.385
0.03027654481400081,0.386
0.038249357236379566,0.387
0.042359226429342145,0.388
0.04093038698537691,0.389
0.03429564163631917,0.39
0.0236397885777786,0.391
0.010404511462982404,0.392
-0.0033650530335953624,0.393
-0.015014909402161096,0.394
-0.02249109354258237,0.395
-0.02565021723570889,0.396
-0.026224280962051382,0.397
-0.026700040776743095,0.398
-0.02914775381534365,0.399
-0.034205784448143595,0.4
-0.04040345534254602,0.401
-0.044715667068002965,0.402
-0.04435841897286685,0.403
-0.03837734963183317,0.404
-0.028002279796841074,0.405
-0.01603386271474658,0.406
-0.00578654619477306,0.407
0.00014620153622399993,0.408
0.0009293121562361708,0.409
-0.0021985448659966947,0.41
-0.0065684416824479345,0.411
-0.009219084402619086,0.412
-0.0077618008928609155,0.413
-0.0006665348517240004,0.414
0.012768648619587987,0.415
0.03219848152922716,0.416
0.05557817019070328,0.417
0.07877143473040828,0.418
0.09617931463642107,0.419
0.10228379025032992,0.42
0.0932992376138284,0.421
0.06823611767945606,0.422
0.029332042596810288,0.423
-0.017928131110812973,0.424
-0.06535756800089233,0.425
-0.10361769148942222,0.426
-0.12486414599367457,0.427
-0.12552159834858218,0.428
-0.10732891576847171,0.429
-0.07575400970133299,0.43
-0.03706616719059282,0.431
0.003869709306676081,0.432
0.04399015433487652,0.433
0.0809181743681277,0.434
0.11160430325296017,0.435
0.13192965216971214,0.436
0.13763461815172665,0.437
0.12598986131816656,0.438
0.09705023047336038,0.439
0.053806801451703606,0.44
0.0015661159790876316,0.441
-0.052883828362684106,0.442
-0.10215460006172938,0.443
-0.13915710903399442,0.444
-0.1580798875315683,0.445
-0.15562901208669644,0.446
-0.13218393299803768,0.447
-0.09199434013286516,0.448
-0.04212365569145615,0.449
0.009297789188881751,0.45
0.054780046997912724,0.451
0.08851280614955333,0.452
0.10650565503033466,0.453
0.10652640052884374,0.454
0.08871295274814724,0.455
0.05659053757704741,0.456
0.017323215967051345,0.457
-0.01967300075517802,0.458
-0.04561529739333825,0.459
-0.05548505091697329,0.46
-0.0496893386407908,0.461
-0.033361855279436886,0.462
-0.013870314726721438,0.463
0.0020781031208867286,0.464
0.01044467295680964,0.465
0.010425748671856274,0.466
0.00392970874589618,0.467
-0.005384558304425309,0.468
-0.013243335941232998,0.469
-0.016033815580257543,0.47
-0.011982298857532842,0.471
-0.0018028959984391123,0.472
0.011588598495294623,0.473
0.024315038698033,0.474
0.03319577100899331,0.475
0.037160374969405066,0.476
0.037846672880889345,0.477
0.03884969649638265,0.478
0.04369907334932077,0.479
0.05342807353783791,0.48
0.06480079189013976,0.481
0.0706095783768917,0.482
0.06300139134177431,0.483
0.03797190193242059,0.484
-0.0024162213758350207,0.485
-0.05097879868608023,0.486
-0.09794202697739832,0.487
-0.13379715124245395,0.488
-0.15179607565041825,0.489
-0.14927797517584288,0.49
-0.12739176141157313,0.491
-0.089999969862108,0.492
-0.04310647437993985,0.493
0.005256280408232541,0.494
0.046253892704472006,0.495
0.07323987187600128,0.496
0.08464903867571344,0.497
0.08426280239937906,0.498
0.07853028815184908,0.499
0.07282075013875762,0.5
0.0687764529664124,0.501
0.06411375159676053,0.502
0.054980784450297054,0.503
0.03937331082900113,0.504
0.018910096285011484,0.505
-0.0024097800108439523,0.506
-0.02075607915188052,0.507
-0.03389985087879657,0.508
-0.04107651088546052,0.509
-0.04227189116365352,0.51
-0.03782173126475776,0.511
-0.02848969160881455,0.512
-0.0156886718130586,0.513
-0.0015351524001583775,0.514
0.01138470676502241,0.515
0.0206312258259085,0.516
0.024630521880494232,0.517
0.022732790671977796,0.518
0.01450729852022203,0.519
-0.0007033980334139268,0.52
-0.023015665719261284,0.521
-0.05036543621118572,0.522
-0.07768052591787701,0.523
-0.09813751828706264,0.524
-0.10573380505151399,0.525
-0.09739180935313174,0.526
-0.07369817104503122,0.527
-0.038491550803014356,0.528
0.0022597638381533975,0.529
0.041987408111090134,0.53
0.07498333832201617,0.531
0.09727559958222119,0.532
0.10690375985381549,0.533
0.1039939921373883,0.534
0.09076085369590409,0.535
0.07109903179211569,0.536
0.04955672863254018,0.537
0.0300381837862082,0.538
0.014930773159482994,0.539
0.005053302265591822,0.54
0.00020876220669342657,0.541
-0.0001375945164642512,0.542
0.003463163157444717,0.543
0.010055512202932684,0.544
0.017339401442624955,0.545
0.02118365733354234,0.546
0.016881336946815956,0.547
0.0019855327045758637,0.548
-0.021582825041430193,0.549
-0.04817768897334579,0.55
-0.07109985640436087,0.551
-0.08522133031037496,0.552
-0.08839597577715219,0.553
-0.0813962947807281,0.554
-0.06673087052642128,0.555
-0.04735357389504357,0.556
-0.0261705891668713,0.557
-0.00618991091992218,0.558
0.009740046699665248,0.559
0.020017023296131926,0.56
0.025055158576552872,0.561
0.02666616883554798,0.562
0.026709210262073887,0.563
0.026274804204875463,0.564
0.025739374722746868,0.565
0.02521575472460469,0.566
0.024794661603479158,0.567
0.02441013603435562,0.568
0.023687915739593165,0.569
0.02208447132783906,0.57
0.01914582820866294,0.571
0.014607994642530282,0.572
0.008448341266673867,0.573
0.0011444504075196515,0.574
-0.0059647064438925635,0.575
-0.010695635674954084,0.576
-0.010840191046489318,0.577
-0.005608272835466281,0.578
0.0032898864706000703,0.579
0.011960146056292871,0.58
0.016055433918862026,0.581
0.01282433827837557,0.582
0.0021930628832143345,0.583
-0.013550541673605757,0.584
-0.030887982194362056,0.585
-0.046177795088772615,0.586
-0.05628052219284033,0.587
-0.05874462832486483,0.588
-0.05195074429588733,0.589
-0.03560086013691411,0.59
-0.011448668908917721,0.591
0.016391349650252157,0.592
0.042308916861314834,0.593
0.061282143653185794,0.594
0.07090421734890107,0.595
0.07181351483336795,0.596
0.06640170522292503,0.597
0.05702765023217021,0.598
0.045046958123181,0.599
0.030918563269924728,0.6
0.0147910947574961,0.601
-0.002885608603826685,0.602
-0.020940385712298618,0.603
-0.03748463091351712,0.604
-0.05038460089932708,0.605
-0.0579297680134359,0.606
-0.05933421155997655,0.607
-0.05494059406798802,0.608
-0.046235533849542605,0.609
-0.03564346451026562,0.61
-0.025844901191089637,0.611
-0.01869614097962136,0.612
-0.014447473886232649,0.613
-0.011830520068293514,0.614
-0.008670667918534327,0.615
-0.0025298867033736756,0.616
0.008548874182766928,0.617
0.02532974874458945,0.618
0.04696450381502365,0.619
0.07064344404801698,0.62
0.09131355212498983,0.621
0.10220697628255918,0.622
0.09699486669569675,0.623
0.07318235020219058,0.624
0.03450784617101627,0.625
-0.010033184281056491,0.626
-0.05014043957213054,0.627
-0.07826238703389621,0.628
-0.09152332331216988,0.629
-0.0911978046975018,0.63
-0.08069257804565817,0.631
-0.06353501336632965,0.632
-0.0424946223945131,0.633
-0.019927870120990798,0.634
0.0015183104125002693,0.635
0.018811452962708187,0.636
0.029191157364337354,0.637
0.030964337616099073,0.638
0.02409052081929706,0.639
0.010686059303018483,0.64
-0.004828151978419422,0.641
-0.016655277095661416,0.642
-0.019802106520309355,0.643
-0.012425185241812424,0.644
0.003271258888134206,0.645
0.022132947510846126,0.646
0.03829323182830322,0.647
0.04730079898664965,0.648
0.04737159457318812,0.649
0.03960887363775927,0.65
0.027344526490393057,0.651
0.0148137217658793,0.652
0.005525578949396807,0.653
0.00107086512407807,0.654
0.0009349115457763868,0.655
0.003146588954377718,0.656
0.005341120685839791,0.657
0.005813412672585562,0.658
0.004033351687623317,0.659
0.00041663897455697217,0.66
-0.004288722395486274,0.661
-0.009488722009234155,0.662
-0.014883299939684274,0.663
-0.020306552574037375,0.664
-0.025447485529674723,0.665
-0.029748080116841172,0.666
-0.032632560371735925,0.667
-0.03388135937950675,0.668
-0.03378604185327482,0.669
-0.032835889617779855,0.67
-0.03114987359720021,0.671
-0.02821075985288614,0.672
-0.02309448240458547,0.673
-0.014921266668131573,0.674
-0.003337346518293598,0.675
0.01105838162409408,0.676
0.026553416826441027,0.677
0.04055437446190105,0.678
0.050168619404317764,0.679
0.05307613917294163,0.68
0.048501225767758595,0.681
0.0377840894881327,0.682
0.023982876404423616,0.683
0.010554151616894608,0.684
1.4415269639550478e-05,0.685
-0.006678257757826299,0.686
-0.010201232802828976,0.687
-0.01265270707491321,0.688
-0.016756648869148728,0.689
-0.024366520026364854,0.69
-0.03486304954907436,0.691
-0.0445952288799193,0.692
-0.04824370480951118,0.693
-0.04154057130839028,0.694
-0.0235549942339612,0.695
0.002774995405692586,0.696
0.031836797085752176,0.697
0.05733319509927408,0.698
0.07407213369447971,0.699
0.07921544858020489,0.7
0.07292926349767262,0.701
0.058044280352192924,0.702
0.038687368770092746,0.703
0.018656836094901583,0.704
0.0003804125873389514,0.705
-0.015214348120126394,0.706
-0.028138304314022075,0.707
-0.03861896498976206,0.708
-0.04657961314936692,0.709
-0.05145968866570094,0.71
-0.05245702392767406,0.711
-0.04904917932203689,0.712
-0.041457750923309694,0.713
-0.030754952628765965,0.714
-0.018552688597810403,0.715
-0.006483472234491838,0.716
0.004267668657527892,0.717
0.013166730436281929,0.718
0.02014362019130973,0.719
0.025128944450786794,0.72
0.027660986619370113,0.721
0.026769823960160238,0.722
0.0211941476034257,0.723
0.010194729610004203,0.724
-0.005226986398541043,0.725
-0.021778659903563185,0.726
-0.03468988564321952,0.727
-0.03964945830947382,0.728
-0.03508950892048715,0.729
-0.023401726499904872,0.73
-0.009935991128443396,0.731
-0.0002518003275507786,0.732
0.002698253018871056,0.733
-7.418691643067962e-05,0.734
-0.004325295457578393,0.735
-0.00492096997553981,0.736
0.001621527068627204,0.737
0.015692179484401384,0.738
0.03465404745344727,0.739
0.05414611766069808,0.74
0.06987472148956214,0.741
0.07896942469537145,0.742
0.08030226468456869,0.743
0.073817928719008,0.744
0.05963322779260401,0.745
0.03770630458562151,0.746
0.0083625194921339,0.747
-0.026424319871572767,0.748
-0.06187642128500626,0.749
-0.09094161253440541,0.75
-0.10685111177634148,0.751
-0.10594983415062299,0.752
-0.08883354793167776,0.753
-0.05955132613450688,0.754
-0.024010821645267803,0.755
0.011445103255973352,0.756
0.04105642903824242,0.757
0.060374008434353435,0.758
0.06685731296229354,0.759
0.06029883876742822,0.76
0.04285210511595087,0.761
0.018573933421664704,0.762
-0.007363864774211327,0.763
-0.0295631563420191,0.764
-0.04337693741585329,0.765
-0.04608728618065082,0.766
-0.037908554809849206,0.767
-0.021990290360991274,0.768
-0.0032158072720635655,0.769
0.01345660063206114,0.77
0.024333839789581427,0.771
0.02774155738268817,0.772
0.02413928000029125,0.773
0.015543237563738446,0.774
0.004543814148736854,0.775
-0.006419042282110753,0.776
-0.015275066741433573,0.777
-0.020368039008110194,0.778
-0.020529443164455024,0.779
-0.015232257843026861,0.78
-0.0049473292186645165,0.781
0.008515965138094553,0.782
0.0221868880989189,0.783
0.03276165529797289,0.784
0.037732649872457606,0.785
0.03623202995011718,0.786
0.029095959468388135,0.787
0.018258875404145464,0.788
0.006003311890736122,0.789
-0.0056458864749311145,0.79
-0.015239709966779024,0.791
-0.021894900761171926,0.792
-0.02521925678761657,0.793
-0.0252557585588002,0.794
-0.02223267298321308,0.795
-0.01627000423008341,0.796
-0.00753703015474922,0.797
0.0031717303425550175,0.798
0.014213568074903168,0.799
0.02364112627253181,0.8
0.029969119994851585,0.801
0.032499792273040895,0.802
0.031090226742389235,0.803
0.025704348195720855,0.804
0.016211665603930447,0.805
0.002612920858140362,0.806
-0.014451712736889865,0.807
-0.03324581138571579,0.808
-0.051047886857773124,0.809
-0.06500231523740063,0.81
-0.0730190462962969,0.811
-0.07394481541980971,0.812
-0.06711618508881126,0.813
-0.05213211602124528,0.814
-0.029442484740729684,0.815
-0.001203126054712888,0.816
0.028618268543325994,0.817
0.05498378009101913,0.818
0.07297994026034693,0.819
0.07930285501649666,0.82
0.07348363663529259,0.821
0.05795472867060236,0.822
0.036930984539571866,0.823
0.015075263908818599,0.824
-0.0034258591771213678,0.825
-0.015477663538587285,0.826
-0.019456282161548603,0.827
-0.015275024311071847,0.828
-0.004214807067048306,0.829
0.011308630527241799,0.83
0.027947043532718988,0.831
0.041660581863685445,0.832
0.04827283496789763,0.833
0.04452269968674238,0.834
0.029295929705091657,0.835
0.0044136170915378735,0.836
-0.02542824240449057,0.837
-0.053646847283948654,0.838
-0.073553332347255,0.839
-0.08038258968790532,0.84
-0.07273140419258445,0.841
-0.05282223376272042,0.842
-0.025575549141383002,0.843
0.0029112797134695527,0.844
0.02670122649079132,0.845
0.04097723559730616,0.846
0.04295430484116907,0.847
0.03271951858220884,0.848
0.013428269269539017,0.849
-0.00950407696101607,0.85
-0.029989911101111107,0.851
-0.04302794399549547,0.852
-0.04591707222168421,0.853
-0.03854875712617233,0.854
-0.02299249232721298,0.855
-0.0028191214140896904,0.856
0.017694264383301826,0.857
0.03457668845103436,0.858
0.045237070619994386,0.859
0.049046857312763724,0.86
0.04697934916922644,0.861
0.040633200009029154,0.862
0.031448622347780494,0.863
0.020437753258857595,0.864
0.008289631258696745,0.865
-0.0042623426024416015,0.866
-0.016070189566164336,0.867
-0.025635014256155608,0.868
-0.031665474370842585,0.869
-0.03362838905448098,0.87
-0.031814044925537806,0.871
-0.02694603836917002,0.872
-0.019703255861817932,0.873
-0.01056813278979875,0.874
-0.00015085147519516292,0.875
0.01039143797704408,0.876
0.01936001711575817,0.877
0.025025826745971043,0.878
0.026308294849740614,0.879
0.023173879102429833,0.88
0.016567492108576408,0.881
0.008106306781286364,0.882
-0.00020816052397509155,0.883
-0.006283489476696719,0.884
-0.00837791500448535,0.885
-0.005669808932688046,0.886
0.0012941431643329793,0.887
0.010501389638339926,0.888
0.018807856713447566,0.889
0.02287713031621853,0.89
0.02074740721393194,0.891
0.01304047068630918,0.892
0.0025760270068666737,0.893
-0.007210195997842084,0.894
-0.013717388146229519,0.895
-0.01600367146936522,0.896
-0.014927405072582263,0.897
-0.012429152245308012,0.898
-0.010231852340183041,0.899
-0.00891876636623267,0.9
-0.00817513980630616,0.901
-0.007779877382135967,0.902
-0.008117917580382671,0.903
-0.009698884622388937,0.904
-0.012479610243014009,0.905
-0.01582415789236347,0.906
-0.018914064998280425,0.907
-0.021126464785747298,0.908
-0.02226994447055295,0.909
-0.02260044853137827,0.91
-0.022456691752426153,0.911
-0.021644962502593453,0.912
-0.019040939899007774,0.913
-0.012880508951987404,0.914
-0.001846734254539802,0.915
0.013728418960816164,0.916
0.03165911181317665,0.917
0.048881095897718684,0.918
0.0626109825895807,0.919
0.07086072748126862,0.92
0.07230810153567391,0.921
0.06605412514601723,0.922
0.051917951479275505,0.923
0.031218782885249565,0.924
0.007157410961523724,0.925
-0.015855323208206287,0.926
-0.03369382256585319,0.927
-0.044027810998640234,0.928
-0.04699732964933911,0.929
-0.04471846065279966,0.93
-0.040115894065390026,0.931
-0.035864888749679566,0.932
-0.03372811596755946,0.933
-0.034160975985755994,0.934
-0.036060063563323995,0.935
-0.036770413976803806,0.936
-0.032828308123018686,0.937
-0.021562074463115432,0.938
-0.0026142601377237675,0.939
0.021709200928067048,0.94
0.04730303639104787,0.941
0.06950383718437558,0.942
0.08404820473826155,0.943
0.0878112688993344,0.944
0.07954409018116694,0.945
0.06036532738220295,0.946
0.03356179275958944,0.947
0.0036071816518769215,0.948
-0.025128520869234103,0.949
-0.04926702874735682,0.95
-0.06657242751090726,0.951
-0.07563600237332857,0.952
-0.07562304514023442,0.953
-0.06634429354654821,0.954
-0.04848892146980942,0.955
-0.023802639560634897,0.956
0.004821502940585668,0.957
0.03334432388702635,0.958
0.05673699945044209,0.959
0.06947528135952427,0.96
0.06670541375334839,0.961
0.046309654078363856,0.962
0.011314364660046974,0.963
-0.02924504788443186,0.964
-0.06291948959607602,0.965
-0.07922607041009341,0.966
-0.07436644204665833,0.967
-0.05225696726484712,0.968
-0.021829268841965482,0.969
0.007186169753052017,0.97
0.027714675793829736,0.971
0.036887018769157544,0.972
0.03571975131056727,0.973
0.027799398665439345,0.974
0.017896169639102805,0.975
0.010612719676150826,0.976
0.008925246851026539,0.977
0.013174662853524964,0.978
0.021090867220679807,0.979
0.02882471937011249,0.98
0.032597043342722294,0.981
0.030224112252740867,0.982
0.021804954393027987,0.983
0.009478333569464177,0.984
-0.00337517209126409,0.985
-0.013126913332286732,0.986
-0.016943498807093307,0.987
-0.01382891609561762,0.988
-0.0054462433273402,0.989
0.00395537293566095,0.99
0.00923377555016042,0.991
0.007050488833391907,0.992
-0.002414676083083664,0.993
-0.015854865042501602,0.994
-0.028620862691781865,0.995
-0.03664262931057728,0.996
-0.03766411695984364,0.997
-0.031560415809543586,0.998
-0.019957311451071214,0.999
-0.005537165819117773,1.0
0.008571479428539681,1.001
0.019236633233378642,1.002
0.02394812211168216,1.003
0.021673993766237836,1.004
0.013292827118741347,1.005
0.0011542630766308594,1.006
-0.011809807569925359,1.007
-0.022856482035367557,1.008
-0.029967842856487067,1.009
-0.03207638189677257,1.01
-0.028821946105427685,1.011
-0.020088575400925558,1.012
-0.0059116231065067405,1.013
0.013018662275309454,1.014
0.03465109453940684,1.015
0.055281404185532415,1.016
0.07018714291078217,1.017
0.07525859782419876,1.018
0.06878570188278092,1.019
0.05212195210177515,1.02
0.02878738864796967,1.021
0.002816889871354333,1.022
-0.022507355091304575,1.023
-0.04505197898014902,1.024
-0.06358188746330483,1.025
-0.07725475138866748,1.026
-0.08508511026809913,1.027
-0.08561632117521648,1.028
-0.07719195824725411,1.029
-0.05889692507425868,1.03
-0.03164534435936641,1.031
0.0012342374289572519,1.032
0.03439010729826512,1.033
0.06191613474182811,1.034
0.07928549879772469,1.035
0.08467433052314563,1.036
0.07898316310379924,1.037
0.06486229997777791,1.038
0.04559849419167275,1.039
0.02439551341624198,1.04
0.004047580764300827,1.041
-0.01326282431032282,1.042
-0.026108139578968587,1.043
-0.033741730694841855,1.044
-0.035939283311087346,1.045
-0.0330143350158424,1.046
-0.02590476581579419,1.047
-0.01610943161290902,1.048
-0.005471934409771338,1.049
0.004118238890479121,1.05
0.011094763610200535,1.051
0.014572638220002456,1.052
0.014497215413358968,1.053
0.011470024677004712,1.054
0.006380736935752858,1.055
0.0001297094825890637,1.056
-0.006408739550252868,1.057
-0.012308392260449445,1.058
-0.016572270038403857,1.059
-0.01824308148227814,1.06
-0.01667836181800605,1.061
-0.011928680739280464,1.062
-0.004899158152693758,1.063
0.003002787851200603,1.064
0.010425257378983675,1.065
0.016299551980180363,1.066
0.019803865052532513,1.067
0.02040079573004312,1.068
0.017985230812127117,1.069
0.012962442306243471,1.07
0.006050424966682441,1.071
-0.0020368960067821285,1.072
-0.010549122114985132,1.073
-0.018374794361632724,1.074
-0.02402090246775188,1.075
-0.026005159930962612,1.076
-0.023363651174626274,1.077
-0.016197570659929265,1.078
-0.006082385054766022,1.079
0.004143411802586774,1.08
0.011402634685085383,1.081
0.013895630350253905,1.082
0.012313931867537185,1.083
0.009599739261914514,1.084
0.008961511115572862,1.085
0.011559378239502755,1.086
0.01562523632341854,1.087
0.017555679526321578,1.088
0.014140778390867487,1.089
0.004378146021380778,1.09
-0.01021294380467899,1.091
-0.026556574627290754,1.092
-0.041311862826671694,1.093
-0.05171706046519703,1.094
-0.055707513979392324,1.095
-0.051775876835021835,1.096
-0.03928293287583014,1.097
-0.019028134990306915,1.098
0.006639458336648742,1.099
0.03431609357273995,1.1
0.0603153552785621,1.101
0.08130502481418889,1.102
0.09454985910330099,1.103
0.09798564366585459,1.104
0.09055243748179832,1.105
0.0727870791750105,1.106
0.04716229437933323,1.107
0.01766460555009424,1.108
-0.01131636859763745,1.109
-0.03621151078469497,1.11
-0.05502639993603659,1.111
-0.06728499275598955,1.112
-0.07333746230860946,1.113
-0.07368560047929773,1.114
-0.0687283838467087,1.115
-0.05884560480154022,1.116
-0.04469892377295835,1.117
-0.02762360020345527,1.118
-0.009765338623504621,1.119
0.006300543191140434,1.12
0.018247199813479213,1.121
0.024561553221752422,1.122
0.024926400436221414,1.123
0.020484443184704885,1.124
0.01369232091889617,1.125
0.007454477899871167,1.126
0.003888336824437251,1.127
0.0035596611917712902,1.128
0.005651758663933037,1.129
0.008716851146344592,1.13
0.011384653944936773,1.131
0.01278448317446886,1.132
0.012692492408778377,1.133
0.011368782896642147,1.134
0.009219285308158506,1.135
0.0066600378908724485,1.136
0.004257068739219042,1.137
0.002752591684659119,1.138
0.0027682115806997175,1.139
0.004451412196618965,1.14
0.007314486218842217,1.141
0.01024551092049886,1.142
0.011739821941893373,1.143
0.010474510448730958,1.144
0.005974508406610145,1.145
-0.0011495765198786872,1.146
-0.009506713361662826,1.147
-0.017431146346548344,1.148
-0.023416861471433837,1.149
-0.02641014719856832,1.15
-0.025970453450542032,1.151
-0.02235264890283758,1.152
-0.016496507555252764,1.153
-0.009764385979459307,1.154
-0.0033485984663399276,1.155
0.0022719759507371005,1.156
0.007285875683510346,1.157
0.01197275048321588,1.158
0.016177365806734536,1.159
0.019279201925129587,1.16
0.02060560127125623,1.161
0.019817053339580986,1.162
0.016987424528988868,1.163
0.012666537714614064,1.164
0.008127524607100338,1.165
0.005293794846771835,1.166
0.005824013711860418,1.167
0.009820194435130316,1.168
0.015159641036946944,1.169
0.017932229108353424,1.17
0.013865962981934045,1.171
0.000249330604315784,1.172
-0.02246572383402002,1.173
-0.05007296619367703,1.174
-0.0753154325564771,1.175
-0.08988628666503427,1.176
-0.08734076139445981,1.177
-0.0659464488022441,1.178
-0.0300891814276348,1.179
0.010915332042044737,1.18
0.04656897076529606,1.181
0.06960443650931719,1.182
0.07830887150451794,1.183
0.07564414656980578,1.184
0.06645826456448439,1.185
0.05476594498561073,1.186
0.042436602514327994,1.187
0.02967081880897609,1.188
0.01649299822996164,1.189
0.003806178869514709,1.19
-0.006876301686438635,1.191
-0.0145232995470728,1.192
-0.019302492587384208,1.193
-0.022319975761254135,1.194
-0.024734180112295,1.195
-0.026971712515976853,1.196
-0.028471175101175014,1.197
-0.028013042841353846,1.198
-0.024538977563603702,1.199
-0.018030043863631492,1.2
-0.009832582385565593,1.201
-0.002264354421948599,1.202
0.002249481759159628,1.203
0.0021818633674753184,1.204
-0.002397388814391556,1.205
-0.009743488543456923,1.206
-0.016909483273256986,1.207
-0.020656067307454506,1.208
-0.018707172411994114,1.209
-0.010872260685307857,1.21
0.0007343605589041713,1.211
0.012645470551902096,1.212
0.021549928779975733,1.213
0.025438119648707295,1.214
0.023940150762063267,1.215
0.01808603095126531,1.216
0.009912333144976299,1.217
0.002013810578166209,1.218
-0.0031712762514873594,1.219
-0.004293874180712937,1.22
-0.001621146439997036,1.221
0.00332272110312132,1.222
0.008641395443041544,1.223
0.012785489807820278,1.224
0.01485626467604171,1.225
0.014566327591777405,1.226
0.011928329115069136,1.227
0.0069892037231724545,1.228
2.6420125484136246e-05,1.229
-0.007955223617670353,1.23
-0.015010274983198282,1.231
-0.01869671579242411,1.232
-0.017133321074045978,1.233
-0.010149518485515865,1.234
0.0003086975981632881,1.235
0.011014861853871488,1.236
0.01899864058546068,1.237
0.02259525337605115,1.238
0.021477005832192846,1.239
0.0161678696206704,1.24
0.007747116281086535,1.241
-0.002160301650167058,1.242
-0.011532340233654658,1.243
-0.018395238111851633,1.244
-0.02129107464630909,1.245
-0.019621384468958558,1.246
-0.013902406435376108,1.247
-0.005805998411185113,1.248
0.0022234102548209173,1.249
0.007806540017759034,1.25
0.009643155894608419,1.251
0.008054033294671997,1.252
0.004514862889250659,1.253
0.0005199181768845596,1.254
-0.0032653531727792253,1.255
-0.007029987370926471,1.256
-0.011310742643518947,1.257
-0.016482503177570457,1.258
-0.022426188493106267,1.259
-0.028287983780471367,1.26
-0.032343403327451954,1.261
-0.032268372994920566,1.262
-0.026110412608734337,1.263
-0.013562580598939632,1.264
0.003404254983068249,1.265
0.021080887734069367,1.266
0.035486555215459556,1.267
0.043934341771876516,1.268
0.04577093812519826,1.269
0.04200268371431741,1.27
0.0342911866213246,1.271
0.024159181305688577,1.272
0.01294065928782636,1.273
0.00210700221920096,1.274
-0.006790198773255158,1.275
-0.012619072357872506,1.276
-0.015039963260806897,1.277
-0.014468011864415611,1.278
-0.011829400132198022,1.279
-0.00826116775367372,1.28
-0.004719099851567218,1.281
-0.0016379650049861676,1.282
0.0011104482201525776,1.283
0.003964712166971435,1.284
0.0073279698885628675,1.285
0.011285737461303461,1.286
0.01540388713307419,1.287
0.018599021256661557,1.288
0.019205969287217756,1.289
0.015509990753235904,1.29
0.006758568267822647,1.291
-0.006007578866764225,1.292
-0.020016733553768814,1.293
-0.0316573624243437,1.294
-0.03776297456737438,1.295
-0.036891495606966286,1.296
-0.029960261271322928,1.297
-0.019740608937584083,1.298
-0.009507357333539532,1.299
-0.0016812039776020584,1.3
0.002852058192581012,1.301
0.004596089433723003,1.302
0.004776167176236635,1.303
0.004608462347743863,1.304
0.004870743684068246,1.305
0.005911595669302402,1.306
0.007908639053644162,1.307
0.010974936095310169,1.308
0.014956112560500293,1.309
0.019144621490539734,1.31
0.02222715223674131,1.311
0.0226814818447671,1.312
0.019530819780101724,1.313
0.012976963705626336,1.314
0.00444068499815001,1.315
-0.004034230257728469,1.316
-0.010607364214811628,1.317
-0.014242736080887738,1.318
-0.01491676343223007,1.319
-0.013460838891219745,1.32
-0.011123876950383249,1.321
-0.009023322188388862,1.322
-0.007752898482780465,1.323
-0.0073011351076517255,1.324
-0.007149995043510082,1.325
-0.006450148054639392,1.326
-0.004352161739036424,1.327
-0.000417151244998675,1.328
0.0051683579060582295,1.329
0.01167554808771807,1.33
0.01802910937881831,1.331
0.022894958914250658,1.332
0.024659841515377066,1.333
0.02166141094995978,1.334
0.013020164962619367,1.335
-0.0003435290064338008,1.336
-0.015466033977490436,1.337
-0.028293965422364863,1.338
-0.03532527190548705,1.339
-0.03496530317906448,1.34
-0.027927132854049637,1.341
-0.016666009395527454,1.342
-0.004310783428624986,1.343
0.00635215591660449,1.344
0.013537367815495468,1.345
0.016645723696246742,1.346
0.016049986002668982,1.347
0.012813691147815585,1.348
0.008527240021509043,1.349
0.005094701204006919,1.35
0.004299613932005594,1.351
0.007269623025597739,1.352
0.014103899925045146,1.353
0.02370636189573557,1.354
0.03365703126695039,1.355
0.040283016711799485,1.356
0.03965645567217414,1.357
0.029739641765602048,1.358
0.01217683056347736,1.359
-0.008209076025927877,1.36
-0.025962744215837875,1.361
-0.03747275200287058,1.362
-0.041934171242493136,1.363
-0.04078058999298,1.364
-0.036350390232835615,1.365
-0.03068519295563599,1.366
-0.02494184938900994,1.367
-0.019423572583175914,1.368
-0.01400067620851341,1.369
-0.0086324006285949,1.37
-0.0036371841345059688,1.371
0.000541748822113619,1.372
0.0038043806732337626,1.373
0.0065457633593357266,1.374
0.0093556116652331,1.375
0.012542201674481437,1.376
0.01581134400226914,1.377
0.01829723193542961,1.378
0.018877722478884328,1.379
0.016612604036117137,1.38
0.011240131926784932,1.381
0.0035528209004207713,1.382
-0.0046642628509861485,1.383
-0.011188070137675244,1.384
-0.014129605791063466,1.385
-0.012616408731312877,1.386
-0.007111289294726686,1.387
0.0008164674755329272,1.388
0.009163227689397278,1.389
0.0162413677673568,1.39
0.021128195004372782,1.391
0.023684432622760765,1.392
0.02428023219912719,1.393
0.023411439081614683,1.394
0.021335299851441194,1.395
0.017847460964436755,1.396
0.012334313142046572,1.397
0.004193633512803917,1.398
-0.006523044346309377,1.399
-0.018714865235947915,1.4
-0.030391211277733348,1.401
-0.03915681924637034,1.402
-0.04272902945903212,1.403
-0.03953449323091586,1.404
-0.029391642694752824,1.405
-0.01386605248889404,1.406
0.00409875836722561,1.407
0.021054595049128776,1.408
0.033903673776453654,1.409
0.040519242182411916,1.41
0.040124274778175914,1.411
0.03333316547653009,1.412
0.021805879651543136,1.413
0.007682447101958991,1.414
-0.006933686557393044,1.415
-0.020251093585748704,1.416
-0.030820066167197558,1.417
-0.03748729258613092,1.418
-0.039464450973846064,1.419
-0.0365452215034433,1.42
-0.029328559975205,1.421
-0.019250758588335797,1.422
-0.008255332899863849,1.423
0.0018410064423142979,1.424
0.009871000962360547,1.425
0.01540661602792438,1.426
0.01854902590005142,1.427
0.019672698956121122,1.428
0.01920639419039922,1.429
0.017504887407037862,1.43
0.014901844333042957,1.431
0.011899655752661607,1.432
0.00924580540798793,1.433
0.007679762414686402,1.434
0.007474957299723778,1.435
0.00814546397926171,1.436
0.008590698453121734,1.437
0.0077100844645783435,1.438
0.005183775231309149,1.439
0.0018271973891754564,1.44
-0.0007969728840022357,1.441
-0.00119543339971202,1.442
0.0012782906021103794,1.443
0.0059177571891249415,1.444
0.01062731615995275,1.445
0.012613352625228369,1.446
0.009719457836620208,1.447
0.0016567400716191991,1.448
-0.009723061719571574,1.449
-0.02121912497997707,1.45
-0.029576363312686444,1.451
-0.0326228290266352,1.452
-0.029795284117514365,1.453
-0.021995377608564466,1.454
-0.011065568728910392,1.455
0.0007955999677440586,1.456
0.011477356066187792,1.457
0.019212356675346678,1.458
0.02274557975296546,1.459
0.021490531257910638,1.46
0.015640629893441213,1.461
0.006150653640756544,1.462
-0.00546089259048327,1.463
-0.01739688629680398,1.464
-0.027852475804371276,1.465
-0.03524765543741469,1.466
-0.03836899832810941,1.467
-0.03643944765710108,1.468
-0.029257237730629028,1.469
-0.01739376642951521,1.47
-0.0022213470893975742,1.471
0.014314032716543145,1.472
0.029972947989728917,1.473
0.042451614394315634,1.474
0.04978446793478461,1.475
0.05098216861718568,1.476
0.046445751125399615,1.477
0.037779900353685766,1.478
0.02717560854893856,1.479
0.016772960468897768,1.48
0.008266519124167556,1.481
0.002685695042279451,1.482
0.00021303363763577676,1.483
0.00015441144871562853,1.484
0.0011480652698586946,1.485
0.0014790763029936763,1.486
-0.0004937523581231465,1.487
-0.005654293606940231,1.488
-0.01351383664312764,1.489
-0.022321523981187936,1.49
-0.029933237110265805,1.491
-0.03479197123126422,1.492
-0.036463227276188094,1.493
-0.03557498600806795,1.494
-0.03331465420073697,1.495
-0.030776482467282342,1.496
-0.028436876776783106,1.497
-0.0258984141452299,1.498
-0.021910110843049994,1.499
-0.0147154893956391,1.5
-0.002848996545858463,1.501
0.01376372047981741,1.502
0.032995359899589544,1.503
0.05061348130875558,1.504
0.06155406775380344,1.505
0.06214600723361547,1.506
0.05207178403610497,1.507
0.0344819617102499,1.508
0.014258688381520272,1.509
-0.004037696655768248,1.51
-0.017412923343567924,1.511
-0.024741542393822688,1.512
-0.026378485021793553,1.513
-0.023455415580869804,1.514
-0.017288797258404275,1.515
-0.009129645771677778,1.516
-0.0001954131184837439,1.517
0.008196046572561727,1.518
0.01464147985581805,1.519
0.017951114861073366,1.52
0.017524478091780135,1.521
0.013542272353565601,1.522
0.006889520656438956,1.523
-0.0011634666796520544,1.524
-0.009378635821117833,1.525
-0.016888399490110957,1.526
-0.023317224350979982,1.527
-0.02861884712133241,1.528
-0.03275719244046988,1.529
-0.03543063975620469,1.53
-0.03592447462598762,1.531
-0.03323325796919566,1.532
-0.026599410933259814,1.533
-0.016194348415041207,1.534
-0.0033923985186986943,1.535
0.009598207554695589,1.536
0.020567601852507587,1.537
0.02818611620829749,1.538
0.03246167529461026,1.539
0.03453763248271698,1.54
0.035964116100039155,1.541
0.03779591915945434,1.542
0.0399580098466178,1.543
0.04126882354893196,1.544
0.04009343825429837,1.545
0.035157259682984617,1.546
0.02616614618755728,1.547
0.014098600703231757,1.548
0.0009781878620516683,1.549
-0.010856591819193552,1.55
-0.019580974022611202,1.551
-0.024458047844634838,1.552
-0.02604329723379244,1.553
-0.025943683534364565,1.554
-0.02607229707961259,1.555
-0.027593122047989565,1.556
-0.03017817140081491,1.557
-0.03217314451925136,1.558
-0.031573148337893535,1.559
-0.027123212212509955,1.56
-0.01889300040909791,1.561
-0.008163705735587206,1.562
0.0030461385790631536,1.563
0.012472794975005485,1.564
0.018120774360066896,1.565
0.018893219026601817,1.566
0.015068581891225893,1.567
0.008218276281859206,1.568
0.000623999001567444,1.569
-0.005431601581166977,1.57
-0.00828049748255405,1.571
-0.007297198542588228,1.572
-0.003001934255099396,1.573
0.00324444010913816,1.574
0.009793833791570164,1.575
0.015212255426337045,1.576
0.018550355594342646,1.577
0.019378774371791665,1.578
0.017687607567086053,1.579
0.01378349943875796,1.58
0.008267012729275146,1.581
0.0020330422986928175,1.582
-0.00385622685649689,1.583
-0.008472876260381153,1.584
-0.011346012769036563,1.585
-0.01255754711909463,1.586
-0.012503667643401908,1.587
-0.011485323583062042,1.588
-0.009438151365775369,1.589
-0.00602576790502824,1.59
-0.00102949158795371,1.591
0.005271423506808752,1.592
0.01197934304098765,1.593
0.017791589281668355,1.594
0.021463735941460407,1.595
0.022239941736277302,1.596
0.019956218399736814,1.597
0.014838922335938146,1.598
0.007271248880032236,1.599
-0.002288302618659078,1.6
-0.013235254858201748,1.601
-0.02468360870812754,1.602
-0.03538294894152722,1.603
-0.04371424010513666,1.604
-0.047693291457886505,1.605
-0.045102616106486,1.606
-0.034102487495703514,1.607
-0.014344219418199551,1.608
0.012043326432037647,1.609
0.04027934924891521,1.61
0.06379543998151488,1.611
0.07619043429617495,1.612
0.07389191363014427,1.613
0.0578973112158796,1.614
0.0330125559175141,1.615
0.005340458225483759,1.616
-0.019869865962084336,1.617
-0.039104213229536465,1.618
-0.05060949644179677,1.619
-0.05408627177481227,1.62
-0.050213298513564375,1.621
-0.04012841184908837,1.622
-0.025170338503749008,1.623
-0.006995433138963131,1.624
0.012217830046070095,1.625
0.029800021612029413,1.626
0.04286869130315832,1.627
0.04878334408270359,1.628
0.0458895218630046,1.629
0.034317717762170595,1.63
0.01617440719031488,1.631
-0.0050309401740259285,1.632
-0.02531305258741803,1.633
-0.04118357270531266,1.634
-0.05046485821290037,1.635
-0.052685736085124654,1.636
-0.048872224743267544,1.637
-0.04082953891641066,1.638
-0.03028993982532526,1.639
-0.018325897292887725,1.64
-0.005300061107401023,1.641
0.008693655091136723,1.642
0.02332895139436913,1.643
0.037875782144186715,1.644
0.05131279268690005,1.645
0.06242575725832913,1.646
0.06980290062414604,1.647
0.07188382203380721,1.648
0.06723155903864042,1.649
0.05518218019263339,1.65
0.03665760370400196,1.651
0.014354842345893572,1.652
-0.008101148569371455,1.653
-0.027448838419798945,1.654
-0.041700022249298946,1.655
-0.05034106014238843,1.656
-0.053932058069028996,1.657
-0.05344528254518772,1.658
-0.04977345668919105,1.659
-0.043625055201290876,1.66
-0.03568027053946352,1.661
-0.026795095914755703,1.662
-0.018100034637683837,1.663
-0.010836143097624049,1.664
-0.005900858654065419,1.665
-0.0033758100855172148,1.666
-0.0024079885657683642,1.667
