VaMe,time
0.0015472120919206632,0.001
-0.0023423915380740823,0.002
-0.006845481671840106,0.003
-0.012135185643374414,0.004
-0.01785203479871814,0.005
-0.023113298648241458,0.006
-0.02681810685166631,0.007
-0.02814159130502417,0.008
-0.027003238443884765,0.009
-0.024226939823966356,0.01
-0.021103325532337854,0.011
-0.018510284208193697,0.012
-0.016362887346480077,0.013
-0.013918481870965668,0.014
-0.010642115970079767,0.015
-0.007009660456019817,0.016
-0.004704104163205034,0.017
-0.005914784077150393,0.018
-0.011945123819890805,0.019
-0.021828874112862082,0.02
-0.03191175719666493,0.021
-0.03710421653541794,0.022
-0.03343091609539964,0.023
-0.020139339404735175,0.024
0.00015257636022099528,0.025
0.022950195267951046,0.026
0.04377731221453921,0.027
0.05955675987810746,0.028
0.06897471852208886,0.029
0.07201090828297871,0.03
0.06929969881674318,0.031
0.06171654074510178,0.032
0.05020148407281734,0.033
0.035720054913996636,0.034
0.019189093624495827,0.035
0.0012924370838361292,0.036
-0.017439532106543615,0.037
-0.03600088749605106,0.038
-0.05228767498877879,0.039
-0.06329244384214602,0.04
-0.06624685876650557,0.041
-0.05998049814400656,0.042
-0.04552135974113013,0.043
-0.02574312210219973,0.044
-0.004522469604100003,0.045
0.014303768323452419,0.046
0.027908038863588468,0.047
0.03495902038603692,0.048
0.03560501010733586,0.049
0.03119095331948892,0.05
0.02371413407205066,0.051
0.015112974699337004,0.052
0.006769363354156074,0.053
-0.0006281942385113165,0.054
-0.006972236819620544,0.055
-0.012409483694121044,0.056
-0.016921589880858946,0.057
-0.020107157485625003,0.058
-0.02127382807690465,0.059
-0.019705827593198166,0.06
-0.015050717435660308,0.061
-0.00776357266862441,0.062
0.0007004383913102848,0.063
0.008228321016072942,0.064
0.01283430125654613,0.065
0.013452886925947889,0.066
0.010319747906113877,0.067
0.004836071311289361,0.068
-0.0009557517479491655,0.069
-0.005108148070238345,0.07
-0.006476798401416861,0.071
-0.005042586935714596,0.072
-0.001686909082791069,0.073
0.002303256891400471,0.074
0.005730640426472307,0.075
0.007871052562981902,0.076
0.008559023333819346,0.077
0.008011300166596999,0.078
0.00670195264449998,0.079
0.00535126510183154,0.08
0.004803571168873884,0.081
0.00569803587800591,0.082
0.008107350150985355,0.083
0.011419263663546128,0.084
0.014527695819327417,0.085
0.016159353294103333,0.086
0.015194969069753945,0.087
0.010940922804977818,0.088
0.0033240744551314297,0.089
-0.0070045731854684575,0.09
-0.018633184840952836,0.091
-0.02942590215925684,0.092
-0.03687719740551731,0.093
-0.03900673740643107,0.094
-0.03534582563705791,0.095
-0.0271864555938318,0.096
-0.016880278766049122,0.097
-0.006716955440813477,0.098
0.0019425661380558907,0.099
0.008883007153293621,0.1
0.014660708505293146,0.101
0.02004660665093796,0.102
0.025636765344779818,0.103
0.03157381522288123,0.104
0.037158788883121296,0.105
0.04060679079942715,0.106
0.0395306850818652,0.107
0.03209930654530745,0.108
0.018158975107288866,0.109
-0.000283128880425418,0.11
-0.019611854962446995,0.111
-0.03609810319778424,0.112
-0.0473891095375981,0.113
-0.05300222871430728,0.114
-0.05361489587267838,0.115
-0.049832516176828705,0.116
-0.04159680082643772,0.117
-0.028758929596177426,0.118
-0.012051372753201249,0.119
0.006596594537654295,0.12
0.024610673365728374,0.121
0.03969208247317472,0.122
0.050453477502571266,0.123
0.05644334873837535,0.124
0.05780162709501351,0.125
0.0549118734987001,0.126
0.048186388349213655,0.127
0.03807992744496491,0.128
0.025290901676499604,0.129
0.010790735162571894,0.13
-0.004498596465323618,0.131
-0.019970574985334423,0.132
-0.03512868671082945,0.133
-0.04910634128126971,0.134
-0.060349326399041975,0.135
-0.0666663218531831,0.136
-0.06581952212485087,0.137
-0.05667284150110685,0.138
-0.04020245237972094,0.139
-0.019446798822272057,0.14
0.0016147494020493241,0.141
0.01946330425995543,0.142
0.03205623873398832,0.143
0.03909621039802083,0.144
0.04141384031996376,0.145
0.03996101185533207,0.146
0.03533195557620718,0.147
0.028025561225694624,0.148
0.01885241112459711,0.149
0.009078685651590934,0.15
0.00033971056895033326,0.151
-0.005651253475729772,0.152
-0.00761802309669599,0.153
-0.00524149368207145,0.154
0.0006494564920844903,0.155
0.008286168922808429,0.156
0.015438034804866444,0.157
0.02003440116463212,0.158
0.020722692785568556,0.159
0.017142708792995596,0.16
0.009834736636098112,0.161
-0.0001679222230509209,0.162
-0.011818481401520376,0.163
-0.02431989726813331,0.164
-0.03706597659494618,0.165
-0.04922169210726861,0.166
-0.05904458925640049,0.167
-0.06364444515726718,0.168
-0.06004491079998236,0.169
-0.04712253700832933,0.17
-0.026744903901753627,0.171
-0.0030858051929618987,0.172
0.019254363001445167,0.173
0.036838583491579466,0.174
0.04785881107503631,0.175
0.05192920306592645,0.176
0.04988487930935367,0.177
0.04363046188089359,0.178
0.035741301833058604,0.179
0.028580172046240245,0.18
0.02324165631736809,0.181
0.019178440015452984,0.182
0.014907226551779453,0.183
0.009271346034563286,0.184
0.0023916629881932765,0.185
-0.004303127132582529,0.186
-0.008967963696601645,0.187
-0.010486857192006776,0.188
-0.009032690272659355,0.189
-0.005812169097826774,0.19
-0.002472285093327989,0.191
-0.0006044277506778917,0.192
-0.0013485814733411791,0.193
-0.005043687545643126,0.194
-0.01106482076188284,0.195
-0.017920340008441872,0.196
-0.023527056140341566,0.197
-0.025656083980186543,0.198
-0.022627652264767987,0.199
-0.014225446426469578,0.2
-0.002336407770609616,0.201
0.00950002720657409,0.202
0.017594824558466303,0.203
0.019501738470027084,0.204
0.014457031970084735,0.205
0.0031154807928340644,0.206
-0.012793599095055761,0.207
-0.030592561874214694,0.208
-0.04667383425835438,0.209
-0.05676851565311756,0.21
-0.05685693927223512,0.211
-0.04475032358839258,0.212
-0.021597944688535646,0.213
0.007861741257709248,0.214
0.03680476272763347,0.215
0.05874409112601266,0.216
0.06939727366130576,0.217
0.06733923861984263,0.218
0.0539824255801917,0.219
0.03333056545426674,0.22
0.011026070606854966,0.221
-0.007575752024336381,0.222
-0.01926789615991861,0.223
-0.02348172286946854,0.224
-0.02135151331562367,0.225
-0.014496695235828186,0.226
-0.004593762563361017,0.227
0.006422320853591847,0.228
0.01641259536885566,0.229
0.023520865235104806,0.23
0.026633880267724373,0.231
0.02558687819835582,0.232
0.02107487541376116,0.233
0.014295585152924397,0.234
0.006585659766952087,0.235
-0.0007380140409904791,0.236
-0.006451815807236805,0.237
-0.009638675516087878,0.238
-0.010097665996458406,0.239
-0.008740691143024691,0.24
-0.007578012212502022,0.241
-0.009031094663972138,0.242
-0.014797233301945817,0.243
-0.024923626714107187,0.244
-0.03759730151626216,0.245
-0.04961021129200135,0.246
-0.05725311469373691,0.247
-0.05748588931119827,0.248
-0.04904244497452104,0.249
-0.03288563689897234,0.25
-0.01175329143466388,0.251
0.010888341832261767,0.252
0.031907739286353015,0.253
0.04906327606137204,0.254
0.060939301047654,0.255
0.06665840230314886,0.256
0.06577920339344848,0.257
0.05842397107860576,0.258
0.04540203051142528,0.259
0.02819115403414567,0.26
0.008944667564662152,0.261
-0.009464368663158525,0.262
-0.023795392079733742,0.263
-0.03139996374251302,0.264
-0.0312937636863769,0.265
-0.024643175528796878,0.266
-0.014474741573286648,0.267
-0.0049158017111278285,0.268
-0.00014843024885623368,0.269
-0.00297576805184373,0.27
-0.0132560000884929,0.271
-0.02721509826857917,0.272
-0.03869818744545069,0.273
-0.04214522337692966,0.274
-0.03545106657611464,0.275
-0.02075352944639191,0.276
-0.002899059945281876,0.277
0.013109737747600988,0.278
0.02421507359751933,0.279
0.03002821903600823,0.28
0.03204522905756356,0.281
0.03215096411898739,0.282
0.03157864129324289,0.283
0.03079201072321259,0.284
0.02982733720728624,0.285
0.028521876678248924,0.286
0.02647761520683999,0.287
0.022953444268033946,0.288
0.016931169742969304,0.289
0.007485176026005978,0.29
-0.00549287290072705,0.291
-0.020483340160026765,0.292
-0.03426213449058768,0.293
-0.043154924562957615,0.294
-0.04489250115409124,0.295
-0.039613371200872875,0.296
-0.0294553140465854,0.297
-0.017317764362782925,0.298
-0.005675829625920035,0.299
0.003972589763789191,0.3
0.010993938306896883,0.301
0.015223261220521521,0.302
0.01662165548709099,0.303
0.015124695244771388,0.304
0.010750790098184141,0.305
0.003854059986276086,0.306
-0.004721914326743498,0.307
-0.013654526299843045,0.308
-0.02129967329858999,0.309
-0.026094694067496194,0.31
-0.027090788372926704,0.311
-0.024101736759436818,0.312
-0.017369974266905428,0.313
-0.007405877856419247,0.314
0.004715185574700586,0.315
0.017149640804647582,0.316
0.027652614265504458,0.317
0.03436363996726012,0.318
0.036483131010887855,0.319
0.03439125345049697,0.32
0.029234843219790183,0.321
0.02237735507857881,0.322
0.015033119191190875,0.323
0.00823068837246685,0.324
0.0030113485244115906,0.325
0.0004954182541773183,0.326
0.0015663196085812185,0.327
0.006311030834895762,0.328
0.013569610674769176,0.329
0.020934929273813782,0.33
0.025410542105249213,0.331
0.02459266462677989,0.332
0.01776517451632161,0.333
0.006162019819495689,0.334
-0.0077957523634051085,0.335
-0.021699434084268863,0.336
-0.03404463779913799,0.337
-0.044446791555717444,0.338
-0.05317322401223532,0.339
-0.06034198542311021,0.34
-0.06527497758105404,0.341
-0.06630911362405838,0.342
-0.061234757675272304,0.343
-0.04842526265808874,0.344
-0.02834240433989556,0.345
-0.004400301553847156,0.346
0.017944688259673637,0.347
0.03367968604010387,0.348
0.04061261111450326,0.349
0.040104124073621655,0.35
0.036011983878145803,0.351
0.03265053000482885,0.352
0.032698921523380685,0.353
0.03612584490375943,0.354
0.040833926930334816,0.355
0.044333277010259214,0.356
0.044992768367080396,0.357
0.042267469524605986,0.358
0.036259822536099495,0.359
0.027112006102727113,0.36
0.014656507287173664,0.361
-0.0013339890996491033,0.362
-0.02043184533707272,0.363
-0.04097628125101959,0.364
-0.05995439956535393,0.365
-0.07334320302551711,0.366
-0.07713547562400289,0.367
-0.06895569940201604,0.368
-0.04930316199276152,0.369
-0.021516079231600652,0.37
0.00942987039060763,0.371
0.03843140322380435,0.372
0.06121705082026666,0.373
0.07459384611169921,0.374
0.07668292325585235,0.375
0.06763980026774997,0.376
0.05017372484938888,0.377
0.02880387105852438,0.378
0.007938932450567267,0.379
-0.009884834125447191,0.38
-0.024293169444385282,0.381
-0.03583686715355597,0.382
-0.044569313086326695,0.383
-0.04971794762844378,0.384
-0.0504131626658789,0.385
-0.046745668715727044,0.386
-0.04046093762455961,0.387
-0.0345104329959917,0.388
-0.03131891654062408,0.389
-0.031037556112498997,0.39
-0.03120114992147495,0.391
-0.027988012036940898,0.392
-0.018382892442182667,0.393
-0.002086851202071037,0.394
0.018074106352671804,0.395
0.0376063153607365,0.396
0.05276373323783479,0.397
0.062281174223665775,0.398
0.0671208347035582,0.399
0.06866391343781719,0.4
0.06722213538368015,0.401
0.06192534748028173,0.402
0.05150088153573681,0.403
0.03516296653842573,0.404
0.01321410999291927,0.405
-0.012604590360343157,0.406
-0.03895842382470213,0.407
-0.06136537723379623,0.408
-0.07539954604221674,0.409
-0.07805427975154985,0.41
-0.06865667973148275,0.411
-0.0491449683476795,0.412
-0.023679581828347663,0.413
0.002341386033172096,0.414
0.023568719557610703,0.415
0.035914437226393064,0.416
0.03745043223253677,0.417
0.02888413515014577,0.418
0.013457721849278901,0.419
-0.003881272586665977,0.42
-0.01788755680105643,0.421
-0.02457613135033519,0.422
-0.022379866948770737,0.423
-0.012400096171979397,0.424
0.0022706985983360576,0.425
0.01772149852631079,0.426
0.030397072284138082,0.427
0.03789467024080847,0.428
0.03926118556352707,0.429
0.034824529933482395,0.43
0.025731691675411228,0.431
0.01355957592852703,0.432
0.00011400406319210583,0.433
-0.012752542064175702,0.434
-0.023322569182319654,0.435
-0.030185825331779093,0.436
-0.032467241704413737,0.437
-0.030034577443259138,0.438
-0.0235561212546887,0.439
-0.014406936119710346,0.44
-0.004510179210070972,0.441
0.003926470714404672,0.442
0.008914926430723778,0.443
0.009325425072769344,0.444
0.005367735860154868,0.445
-0.0012811311040985414,0.446
-0.007872071156512339,0.447
-0.011578176109104025,0.448
-0.01066859620667463,0.449
-0.0051578496542075865,0.45
0.003363279385931127,0.451
0.012541297702958804,0.452
0.020304102312840886,0.453
0.02555476132303992,0.454
0.02814701059268493,0.455
0.028324845067749627,0.456
0.026156033433381482,0.457
0.021329451084513274,0.458
0.013253257931306925,0.459
0.001282950953256608,0.46
-0.014829986888862301,0.461
-0.03410676653756254,0.462
-0.053377748147001185,0.463
-0.06715446513786569,0.464
-0.06937983876503798,0.465
-0.05651734862932692,0.466
-0.029700467414898436,0.467
0.005651265963899719,0.468
0.04211955153757527,0.469
0.07273418160913502,0.47
0.09242222818843283,0.471
0.09848573478037126,0.472
0.0904824606762436,0.473
0.06963180420431517,0.474
0.03820839790748581,0.475
-0.0005024751496659883,0.476
-0.04201128611848786,0.477
-0.08096627784449463,0.478
-0.11205799398920786,0.479
-0.13077536703585324,0.48
-0.13363318419634151,0.481
-0.11848378557432568,0.482
-0.08557653692673861,0.483
-0.03875395544126666,0.484
0.014595138061979247,0.485
0.06530660287940179,0.486
0.10502273233794202,0.487
0.12830805150745198,0.488
0.13349046494465047,0.489
0.12212778411238126,0.49
0.0978999363188419,0.491
0.0658024647165954,0.492
0.03146151611622616,0.493
7.956832966231545e-05,0.494
-0.024617840954602926,0.495
-0.04085833935865838,0.496
-0.048718749479262434,0.497
-0.049639735761648346,0.498
-0.045758080042572674,0.499
-0.039277145121658065,0.5
-0.031979875760971374,0.501
-0.024960768795321754,0.502
-0.018678756067049013,0.503
-0.013240756249897586,0.504
-0.00865296566928954,0.505
-0.004977315810005427,0.506
-0.002461576879121124,0.507
-0.0015026923849515335,0.508
-0.002414762346991838,0.509
-0.005279285306820045,0.51
-0.009942553728708696,0.511
-0.015935660341975577,0.512
-0.022215873568619253,0.513
-0.02693120602608261,0.514
-0.027673315387007968,0.515
-0.022482782753326602,0.516
-0.011079198886422168,0.517
0.004666318765362657,0.518
0.02143783732527542,0.519
0.035867905604605156,0.52
0.045722582827362884,0.521
0.05027204091599984,0.522
0.04987830610058541,0.523
0.045261910608189834,0.524
0.03698734851992041,0.525
0.0255799739110685,0.526
0.012184479172563227,0.527
-0.001033465399849051,0.528
-0.011416603665154701,0.529
-0.016907111903528022,0.53
-0.016861639294585454,0.531
-0.012225924049094915,0.532
-0.0051319124733118756,0.533
0.0018101535335944285,0.534
0.006147385572152134,0.535
0.00602943185251227,0.536
0.0006423598197872531,0.537
-0.009366370848036574,0.538
-0.021806002360638142,0.539
-0.03348005907385476,0.54
-0.041195885256508746,0.541
-0.04274434832345771,0.542
-0.03746964246132985,0.543
-0.02646200970405221,0.544
-0.012448319967106271,0.545
0.0009218232885257265,0.546
0.010551574286504169,0.547
0.015321587373508402,0.548
0.016370690173545737,0.549
0.0161976045825748,0.55
0.017353980512172466,0.551
0.02131504452916619,0.552
0.02779540811882405,0.553
0.03471638604632855,0.554
0.038959140271431714,0.555
0.037697556271987134,0.556
0.029619771206730833,0.557
0.015328375988404577,0.558
-0.003138198854375058,0.559
-0.02307756995591856,0.56
-0.041591079556105456,0.561
-0.055634543002332074,0.562
-0.062056221222707125,0.563
-0.05820298173682694,0.564
-0.043173205404457335,0.565
-0.01897171388174074,0.566
0.009388028238578804,0.567
0.03520516745530306,0.568
0.05228475209933782,0.569
0.05697885799789772,0.57
0.04940413453514208,0.571
0.03346675707310938,0.572
0.015346832176896691,0.573
0.0008103434709857356,0.574
-0.007154606071237309,0.575
-0.00898958573328193,0.576
-0.007498738193848875,0.577
-0.005967619725829255,0.578
-0.0064371808995214806,0.579
-0.008917111695848861,0.58
-0.011743534280887811,0.581
-0.01266150667780772,0.582
-0.010050353067420748,0.583
-0.003718063890292848,0.584
0.005079837682077488,0.585
0.014150338068969603,0.586
0.02093093746477648,0.587
0.023094057314368897,0.588
0.019279837620697283,0.589
0.009580760560092045,0.59
-0.004505876202265893,0.591
-0.020412078934243374,0.592
-0.034971261349305074,0.593
-0.045157422586431836,0.594
-0.04902825356021981,0.595
-0.046491265695327154,0.596
-0.039339040131299206,0.597
-0.03028377110827249,0.598
-0.02143644083391635,0.599
-0.013128850572741059,0.6
-0.0039029963824669944,0.601
0.008132944408605286,0.602
0.023449284548207848,0.603
0.040192429056018365,0.604
0.05493285187715626,0.605
0.06427442802850984,0.606
0.06603373231013894,0.607
0.05964226680443626,0.608
0.046195558633942195,0.609
0.02823618956142824,0.61
0.009071768598164567,0.611
-0.008112964322082788,0.612
-0.020870586056229334,0.613
-0.02776390887955461,0.614
-0.02849090916827001,0.615
-0.023880059478352277,0.616
-0.015649629716085713,0.617
-0.006037203101232365,0.618
0.0025309263840808515,0.619
0.007867999670111831,0.62
0.008685952404758791,0.621
0.005135342972012456,0.622
-0.0012850934121992911,0.623
-0.0084912027814686,0.624
-0.014769843849985944,0.625
-0.019310504942226126,0.626
-0.022056333184816923,0.627
-0.02320368869517231,0.628
-0.02288309064241721,0.629
-0.021221105427405695,0.63
-0.01846005232273691,0.631
-0.014797260518558385,0.632
-0.010216137412214627,0.633
-0.004731239703942976,0.634
0.0011762483447772393,0.635
0.006444908926667181,0.636
0.009801814834118378,0.637
0.010491966572315305,0.638
0.008995287310386698,0.639
0.007094044729872733,0.64
0.0070224835309286955,0.641
0.010317071026138757,0.642
0.017166179955542794,0.643
0.026391401316228122,0.644
0.035793710930174694,0.645
0.042719219244508486,0.646
0.04481046307159686,0.647
0.04070948334457094,0.648
0.030378345946642033,0.649
0.015089764329113594,0.65
-0.0027317353445296564,0.651
-0.020079815171717235,0.652
-0.034487154775860604,0.653
-0.04497913994112001,0.654
-0.05201970694315961,0.655
-0.056533401346144076,0.656
-0.05877321219508187,0.657
-0.05768138951857383,0.658
-0.05110669238676211,0.659
-0.037059671871012244,0.66
-0.015473819575953342,0.661
0.01081611541278585,0.662
0.0366667664951765,0.663
0.05638330698637514,0.664
0.06563561871428457,0.665
0.06270934594609182,0.666
0.04882662065835292,0.667
0.027708072196357163,0.668
0.0046650600374528615,0.669
-0.014686147033297842,0.67
-0.026004664569731398,0.671
-0.02745407714309374,0.672
-0.019893403222195308,0.673
-0.00615642571137684,0.674
0.00997570251009117,0.675
0.02459349928952667,0.676
0.03412874967152479,0.677
0.0358510010088255,0.678
0.028756331051675407,0.679
0.014469200207752421,0.68
-0.002858679986305861,0.681
-0.018172876613490003,0.682
-0.027766260866628374,0.683
-0.030635104535796518,0.684
-0.028275476778753826,0.685
-0.023370430931278486,0.686
-0.01834715093835399,0.687
-0.014637985518925978,0.688
-0.012745835770947607,0.689
-0.012659024120683985,0.69
-0.014220557916829211,0.691
-0.0171069664420788,0.692
-0.020250083417236876,0.693
-0.021339120939177496,0.694
-0.01738682566592339,0.695
-0.006288189863182918,0.696
0.011892923826097405,0.697
0.03484171136498146,0.698
0.05872136826302358,0.699
0.07884034139274397,0.7
0.09019960601026143,0.701
0.0886515927803267,0.702
0.07281588654959259,0.703
0.045435488497835005,0.704
0.012733104313492685,0.705
-0.01803713032658682,0.706
-0.04141211703771554,0.707
-0.05550517207189091,0.708
-0.06193928681686896,0.709
-0.0641121922680616,0.71
-0.06491143569836699,0.711
-0.0651832914909209,0.712
-0.06371047289728145,0.713
-0.05851787122768762,0.714
-0.04852245134794069,0.715
-0.03454793100464908,0.716
-0.019302747879639707,0.717
-0.006331332401568597,0.718
0.0016245647018879926,0.719
0.004038383992436321,0.72
0.003107197309447019,0.721
0.003001134962271235,0.722
0.007897448401531487,0.723
0.019672273855636108,0.724
0.03668618583221484,0.725
0.05442689318325215,0.726
0.06757298304205346,0.727
0.07243499134144762,0.728
0.06862853594971548,0.729
0.05902875209568054,0.73
0.047984218814599834,0.731
0.03904577686168272,0.732
0.03352108623579029,0.733
0.030198017412468987,0.734
0.0262052112014774,0.735
0.018804513423010455,0.736
0.007075480918662862,0.737
-0.007765795727752459,0.738
-0.023421276497817386,0.739
-0.037856219068209455,0.74
-0.05004802295723871,0.741
-0.05989268743008767,0.742
-0.06747260464511566,0.743
-0.07224060527014799,0.744
-0.07278242730701122,0.745
-0.06739969330381337,0.746
-0.055076912604089964,0.747
-0.03619792689073787,0.748
-0.01275841528104089,0.749
0.011884890271715253,0.75
0.03355130198456712,0.751
0.04788010296380787,0.752
0.05124116333623246,0.753
0.04199201314236529,0.754
0.0215274458035105,0.755
-0.005598383243074567,0.756
-0.03265271247081235,0.757
-0.0523403824911024,0.758
-0.05862230477578682,0.759
-0.04856561529360442,0.76
-0.023581701298418585,0.761
0.010806553876949015,0.762
0.04667157330834735,0.763
0.07603924616392574,0.764
0.09299606506227202,0.765
0.09498581041279615,0.766
0.08303886108018581,0.767
0.06095331022912193,0.768
0.033905111683921824,0.769
0.007142619014731639,0.77
-0.014965029615843943,0.771
-0.029589661549715707,0.772
-0.03579933750197731,0.773
-0.034433382484034866,0.774
-0.027475409555364722,0.775
-0.017315831188808223,0.776
-0.006339481993367572,0.777
0.003247732062018707,0.778
0.009681659998158508,0.779
0.01194646427121131,0.78
0.009876641685638001,0.781
0.00402751629646538,0.782
-0.004591964782683039,0.783
-0.01483895738695831,0.784
-0.025681901961929977,0.785
-0.03619870262793677,0.786
-0.04525036490857124,0.787
-0.05117068845576104,0.788
-0.05204718841268389,0.789
-0.046662910825267426,0.79
-0.03546643497478705,0.791
-0.020768096562723094,0.792
-0.0058716594721123444,0.793
0.0063664646877376035,0.794
0.014623483018021475,0.795
0.01910856240299327,0.796
0.020622773406914187,0.797
0.019718340005207675,0.798
0.016744284046400004,0.799
0.012509604804718076,0.8
0.008700227025247939,0.801
0.007422914034757669,0.802
0.010067867224810572,0.803
0.01643726363784721,0.804
0.024898048385955548,0.805
0.0334172187910337,0.806
0.040623014791142616,0.807
0.04593197179838753,0.808
0.04869637059264195,0.809
0.04760354572796536,0.81
0.04129561998165356,0.811
0.029607992565133086,0.812
0.01420016667877007,0.813
-0.001939831894200146,0.814
-0.015772677141626362,0.815
-0.025492891971667292,0.816
-0.031117427475559283,0.817
-0.03404403205490125,0.818
-0.03583443592926394,0.819
-0.03708931204707965,0.82
-0.037251391138871194,0.821
-0.03534708140902681,0.822
-0.030883888246214776,0.823
-0.02427108868865799,0.824
-0.01681350417951896,0.825
-0.010431474566733379,0.826
-0.0070661729115366265,0.827
-0.007904669264591772,0.828
-0.012760779998072277,0.829
-0.019899773915641707,0.83
-0.026477971987930716,0.831
-0.02955096966963003,0.832
-0.027155788327032148,0.833
-0.018867130513000617,0.834
-0.005746724885043587,0.835
0.01006816836525421,0.836
0.025981696536083086,0.837
0.03963676555231361,0.838
0.049495282204705844,0.839
0.0551039349650028,0.84
0.05698961976098082,0.841
0.05631514529719352,0.842
0.054427007315967446,0.843
0.05231533603518457,0.844
0.050066895487372455,0.845
0.046634047107232554,0.846
0.040373135542374684,0.847
0.030217216130246864,0.848
0.016460635372127143,0.849
0.0005380554243989616,0.85
-0.015691764910879633,0.851
-0.030615296258174912,0.852
-0.043400985492182444,0.853
-0.054242963343461584,0.854
-0.06408417308678789,0.855
-0.07386399659654629,0.856
-0.08367122836891897,0.857
-0.09223644325944888,0.858
-0.09690107114294162,0.859
-0.09411881052569838,0.86
-0.08068491221807257,0.861
-0.055459481557614244,0.862
-0.020601645235082663,0.863
0.01868904687939092,0.864
0.055903269988237685,0.865
0.08526257184669775,0.866
0.10302434321477981,0.867
0.10785560575699145,0.868
0.1004639648215532,0.869
0.0829723133490794,0.87
0.05855443114557525,0.871
0.03121516766463848,0.872
0.005314757325265056,0.873
-0.015149274332529024,0.874
-0.027275871800814,0.875
-0.029932693133688217,0.876
-0.02414626289687352,0.877
-0.012845222243055428,0.878
2.8302188684298533e-05,0.879
0.010665761009931317,0.88
0.016412429970717665,0.881
0.016342129298382375,0.882
0.011208872185278725,0.883
0.0028907010058545875,0.884
-0.006350201961051835,0.885
-0.014514043091307235,0.886
-0.020254103051177093,0.887
-0.02296218401390354,0.888
-0.022657018960204372,0.889
-0.01984748996519355,0.89
-0.015447330456214233,0.891
-0.010689218712850184,0.892
-0.006958088046011792,0.893
-0.0054612757571116865,0.894
-0.00669148130616148,0.895
-0.00994432830399256,0.896
-0.013405749479804791,0.897
-0.014975022885902264,0.898
-0.013368015043106989,0.899
-0.008808937405435945,0.9
-0.0028784659730197106,0.901
0.0023633282044702632,0.902
0.005431659945502863,0.903
0.0060764397457083634,0.904
0.005254785482744233,0.905
0.00454369221778836,0.906
0.005404283878493332,0.907
0.008646493736039334,0.908
0.014157166167028825,0.909
0.020818846686703696,0.91
0.026665995390400373,0.911
0.029333484525011073,0.912
0.026741879686169118,0.913
0.01794750042008808,0.914
0.003860185591570894,0.915
-0.012754079417928407,0.916
-0.028149245062638197,0.917
-0.038768073781403664,0.918
-0.04207515672960699,0.919
-0.03693952159647491,0.92
-0.023826414273964678,0.921
-0.0049804656636727035,0.922
0.015653827714457592,0.923
0.03324193729901495,0.924
0.04360278881620265,0.925
0.04473493331754081,0.926
0.03745371174876131,0.927
0.024891124610303322,0.928
0.011229632215694256,0.929
0.00030533717801297863,0.93
-0.005417761351828478,0.931
-0.005373377728951329,0.932
-0.0009587486133555346,0.933
0.004936099407856052,0.934
0.008985880030581928,0.935
0.00870987730790772,0.936
0.003342973159103045,0.937
-0.006053412707821061,0.938
-0.017181641955632813,0.939
-0.027479984151808193,0.94
-0.03502402445940676,0.941
-0.03900768598908268,0.942
-0.03969784240487221,0.943
-0.03792424023906481,0.944
-0.03437078006173234,0.945
-0.029183219937392493,0.946
-0.02221199414493385,0.947
-0.013562582855021234,0.948
-0.003905094143592875,0.949
0.005605523260695461,0.95
0.013689887901004023,0.951
0.01950805100214478,0.952
0.02319707843059738,0.953
0.025952014468642672,0.954
0.029464548442280806,0.955
0.035007970302394754,0.956
0.04262915337293059,0.957
0.05076483157583207,0.958
0.05638103465114678,0.959
0.055678109513548686,0.96
0.04557334722107705,0.961
0.025783051732304507,0.962
1.4141063993384524e-05,0.963
-0.025287160089183795,0.964
-0.043905298770142216,0.965
-0.052331715968633896,0.966
-0.05053068890667514,0.967
-0.04118285836929766,0.968
-0.02822486250122142,0.969
-0.015557284923045004,0.97
-0.006278070372019436,0.971
-0.0021477917039072064,0.972
-0.0030929694330327252,0.973
-0.007267607070752635,0.974
-0.012027160512176002,0.975
-0.015155938759465557,0.976
-0.015518198225762407,0.977
-0.01299773545300096,0.978
-0.0081533797362496,0.979
-0.0020100418385158737,0.98
0.004162544886065552,0.981
0.009356710678463349,0.982
0.013265710196724607,0.983
0.016188438624232988,0.984
0.018576261914606346,0.985
0.02068236812959183,0.986
0.022447587512573523,0.987
0.023552374606766725,0.988
0.023577827877556513,0.989
0.022160748936499112,0.99
0.019071593067722027,0.991
0.014295561418858875,0.992
0.008155562347414982,0.993
0.0013160785521618085,0.994
-0.005412675100599653,0.995
-0.011307290388089485,0.996
-0.015904603826360258,0.997
-0.01910262566423066,0.998
-0.02109628507344631,0.999
-0.02215721173416702,1.0
-0.02242843672837085,1.001
-0.021860559245337148,1.002
-0.02024552336053128,1.003
-0.017226911198666553,1.004
-0.012344083270273476,1.005
-0.005310019701206639,1.006
0.0035685925862179615,1.007
0.013204891293049118,1.008
0.021961283552516253,1.009
0.028197294129970615,1.01
0.03086466992551018,1.011
0.0297830956754333,1.012
0.025488978572214094,1.013
0.01886031055638038,1.014
0.010720372063925962,1.015
0.0017208955234033496,1.016
-0.007274673489158614,1.017
-0.014857564856691355,1.018
-0.019539192665369746,1.019
-0.020661529494180368,1.02
-0.018758074696684324,1.021
-0.015155514352906062,1.022
-0.011322607680878649,1.023
-0.008273511002029383,1.024
-0.006218137002783657,1.025
-0.004749470858223942,1.026
-0.0034084708390502653,1.027
-0.002048766025866956,1.028
-0.0007134596022629187,1.029
0.0007209690040884121,1.03
0.0026599030781632458,1.031
0.005495123502392063,1.032
0.009205378697359674,1.033
0.013226898849239608,1.034
0.01664242612367782,1.035
0.018472710970001634,1.036
0.017896874968512434,1.037
0.014457221523762132,1.038
0.008314241670436399,1.039
0.00033080411894863954,1.04
-0.008230805808219768,1.041
-0.01619760814642068,1.042
-0.022779421567326454,1.043
-0.02750613574490245,1.044
-0.02992400073032844,1.045
-0.029357697571043975,1.046
-0.025062378551517356,1.047
-0.016766340637736136,1.048
-0.005148934359525623,1.049
0.00816574783141125,1.05
0.021050491985137903,1.051
0.03146010906545613,1.052
0.03789764329262519,1.053
0.03962935642840235,1.054
0.03670967394264583,1.055
0.029951582006513662,1.056
0.020851026972834,1.057
0.011266591793728329,1.058
0.0027862360277821833,1.059
-0.003808043400340832,1.06
-0.008540125134155571,1.061
-0.011816264353886427,1.062
-0.013995410487249667,1.063
-0.015187956590112994,1.064
-0.01529442848175971,1.065
-0.01421906238964133,1.066
-0.01215355841588935,1.067
-0.009733264024882135,1.068
-0.007877932652945608,1.069
-0.007403996701451199,1.07
-0.008718960972002657,1.071
-0.011807888855297516,1.072
-0.016366013828775044,1.073
-0.021732470901047168,1.074
-0.026649072630389594,1.075
-0.029250644128540507,1.076
-0.027519392141918547,1.077
-0.02006566146951005,1.078
-0.006842583843797395,1.079
0.010599226601254154,1.08
0.029405299410643154,1.081
0.04613739674400687,1.082
0.05775491474919666,1.083
0.06246633699421192,1.084
0.060002502963721636,1.085
0.05132843784920903,1.086
0.03814951911216063,1.087
0.0224309427082486,1.088
0.006011970468945567,1.089
-0.009596865196064739,1.09
-0.023219219673713827,1.091
-0.03393285676923137,1.092
-0.04103296289628332,1.093
-0.04409362884938318,1.094
-0.04311260746506477,1.095
-0.03863384932523059,1.096
-0.031695660543547874,1.097
-0.02355087726448596,1.098
-0.015232528869129312,1.099
-0.007202483250927215,1.1
0.0005952490024985818,1.101
0.008301076753359686,1.102
0.015726071953108062,1.103
0.0222020677929647,1.104
0.02664976088289887,1.105
0.027845764870158583,1.106
0.024951713176621197,1.107
0.018132973242141737,1.108
0.008769787104163842,1.109
-0.0010274560548124982,1.11
-0.009255603042643808,1.111
-0.014647467250987343,1.112
-0.016843275945578256,1.113
-0.01616496372616534,1.114
-0.013207306108550547,1.115
-0.008526427119020593,1.116
-0.0026282608232225018,1.117
0.0037952829936249736,1.118
0.00966821637510186,1.119
0.013625490281649014,1.12
0.01438887800829759,1.121
0.011199643487157525,1.122
0.004202653151829897,1.123
-0.005203190266153637,1.124
-0.014358823871036227,1.125
-0.020139507753308656,1.126
-0.02026856356727235,1.127
-0.014204929818403494,1.128
-0.0031462028312444963,1.129
0.010517799227952018,1.13
0.023861062546567117,1.131
0.03398903937502143,1.132
0.038507965947263,1.133
0.03601432095356471,1.134
0.026620460093455617,1.135
0.012209239623012737,1.136
-0.003897124742840318,1.137
-0.017819786472755506,1.138
-0.026312734051062707,1.139
-0.027841779030079273,1.14
-0.02300506388263573,1.141
-0.01407592435617183,1.142
-0.004015961781932114,1.143
0.004469188021970256,1.144
0.009486042437173773,1.145
0.010124352205460561,1.146
0.0064183499996003845,1.147
-0.0007344856570199515,1.148
-0.009646068813389707,1.149
-0.018035674145538656,1.15
-0.023503214944092035,1.151
-0.024230330163566814,1.152
-0.019704056843030907,1.153
-0.011083661239743959,1.154
-0.0008493964261690482,1.155
0.008104515341774894,1.156
0.013378671693730625,1.157
0.013657127214144658,1.158
0.009008100149692722,1.159
0.0009627549221938825,1.16
-0.007740151016006472,1.161
-0.013952439061178167,1.162
-0.015338901348988094,1.163
-0.011311011790291758,1.164
-0.0030233853118680444,1.165
0.007399429155728725,1.166
0.017760711606317477,1.167
0.02637423744839388,1.168
0.032245275918473204,1.169
0.03496403456183194,1.17
0.03448742108957316,1.171
0.030975987312770764,1.172
0.02476732554857003,1.173
0.01645476378054723,1.174
0.006972352523482301,1.175
-0.002489717874328493,1.176
-0.010816823347577196,1.177
-0.01726457278452472,1.178
-0.02142031079737627,1.179
-0.023004804166324735,1.18
-0.021847938135552136,1.181
-0.01809975747345233,1.182
-0.012497232478678255,1.183
-0.0063627802201119835,1.184
-0.001145902927340174,1.185
0.002165468573155638,1.186
0.0032896579812745604,1.187
0.0025145507291539984,1.188
0.00036952840886626955,1.189
-0.0027182757227691744,1.19
-0.006572927155100085,1.191
-0.011138326894633099,1.192
-0.01619318657087677,1.193
-0.02112918778124654,1.194
-0.024931531569594795,1.195
-0.02641411065264997,1.196
-0.024676137852455697,1.197
-0.01949346158638699,1.198
-0.011369863196441189,1.199
-0.001360494906470651,1.2
0.00914904060598435,1.201
0.018731305749392517,1.202
0.026246265447463165,1.203
0.031049874543140503,1.204
0.03299878745468983,1.205
0.03229554428629997,1.206
0.02929066464210587,1.207
0.024404265992099536,1.208
0.01822079103545424,1.209
0.01154758056378777,1.21
0.005235472715839083,1.211
-9.384221470487659e-05,1.212
-0.004169282372633196,1.213
-0.007025897509858651,1.214
-0.008907699691118195,1.215
-0.010180328845720562,1.216
-0.011219794094948003,1.217
-0.01219470428317484,1.218
-0.012738778412363191,1.219
-0.01175699797527922,1.22
-0.007760063713412182,1.221
0.00023799668436723292,1.222
0.011764427993362175,1.223
0.024419107463024635,1.224
0.034170846396685856,1.225
0.0366370554515175,1.226
0.02921112694715433,1.227
0.01278237411124063,1.228
-0.008438787266037933,1.229
-0.028805385937061306,1.23
-0.04340173294367291,1.231
-0.04950070455591925,1.232
-0.047018075297024044,1.233
-0.03806094427023723,1.234
-0.025892190162253227,1.235
-0.013697394899340685,1.236
-0.003560422509375403,1.237
0.0039817258155276656,1.238
0.009621326980226807,1.239
0.014420583955078404,1.24
0.018954301657399482,1.241
0.02287570906576153,1.242
0.025063752424996373,1.243
0.02434215080144224,1.244
0.02033665473358311,1.245
0.013769872901345369,1.246
0.006053813937563456,1.247
-0.0013760977260090788,1.248
-0.007645009348960418,1.249
-0.01277072919385638,1.25
-0.01748614334019411,1.251
-0.02243199886219654,1.252
-0.027165036594802166,1.253
-0.029779421747985813,1.254
-0.0275840361971809,1.255
-0.018571699349532057,1.256
-0.002813547686829049,1.257
0.017072943974332504,1.258
0.036574342871708694,1.259
0.050794035885757954,1.26
0.056319132312235606,1.261
0.05251001969436836,1.262
0.04143066681724209,1.263
0.026571925990727364,1.264
0.011267891404284714,1.265
-0.0022809006050341345,1.266
-0.013040913125519783,1.267
-0.020635057199772256,1.268
-0.024903820073779157,1.269
-0.025793342071758117,1.27
-0.023488363623083788,1.271
-0.01861836809389706,1.272
-0.012360157560002192,1.273
-0.006289321425202607,1.274
-0.001979054101504401,1.275
-0.0005394843330677324,1.276
-0.0023346136115159756,1.277
-0.006959268673436393,1.278
-0.013359166551331847,1.279
-0.019962253489827247,1.28
-0.024856412748771803,1.281
-0.026152142102651068,1.282
-0.0225762411949527,1.283
-0.014075679683557394,1.284
-0.002022353422119439,1.285
0.011188417590263445,1.286
0.022930154865676712,1.287
0.031104621007314058,1.288
0.03458129536746143,1.289
0.033274461501120685,1.29
0.027943413797670232,1.291
0.019847268952809496,1.292
0.010408456292627913,1.293
0.0009831215954867007,1.294
-0.007286454704895934,1.295
-0.013594255194061948,1.296
-0.017552213857228587,1.297
-0.01919688489809174,1.298
-0.01890682522756442,1.299
-0.017242516438759754,1.3
-0.014775697212457459,1.301
-0.011968450758162044,1.302
-0.009099564308725203,1.303
-0.006234649079187215,1.304
