VaMe,time
-0.00010952906441254636,0.001
-0.0072662143690796,0.002
-0.013835771972598014,0.003
-0.019290560122408748,0.004
-0.023245199837170175,0.005
-0.025512898586887815,0.006
-0.026079669210213808,0.007
-0.025039203250639942,0.008
-0.02254507347966989,0.009
-0.01881863156930822,0.01
-0.014232345757562288,0.011
-0.009375737824782711,0.012
-0.004948180063123015,0.013
-0.001482313545321937,0.014
0.0008816749125014563,0.015
0.00237129570405714,0.016
0.0033519380348921777,0.017
0.004096438925709986,0.018
0.0046936693770958755,0.019
0.005096811665137094,0.02
0.00522917519877315,0.021
0.00504676246986398,0.022
0.004512415672448507,0.023
0.0035732308630089245,0.024
0.002277588091591699,0.025
0.0009423424117541649,0.026
0.00011772402350218742,0.027
0.00035160179180193435,0.028
0.001975797675110045,0.029
0.00498235175507983,0.03
0.00893894673834964,0.031
0.012943749881819776,0.032
0.0156492072448544,0.033
0.015471554638648763,0.034
0.011138366873159219,0.035
0.0024725782366277075,0.036
-0.009005078180461342,0.037
-0.020209863993919396,0.038
-0.027656639581336497,0.039
-0.029066439708250555,0.04
-0.024296098804651778,0.041
-0.015135054245849008,0.042
-0.004363955296878048,0.043
0.005330530153230046,0.044
0.012159904870915573,0.045
0.015578787661895932,0.046
0.016172152185030927,0.047
0.015186674674741356,0.048
0.013952171480144803,0.049
0.013529621059412243,0.05
0.014631717936890535,0.051
0.01749805013955542,0.052
0.02159037339995346,0.053
0.025328607554082436,0.054
0.026230048232723322,0.055
0.021901819250458,0.056
0.011638135995596663,0.057
-0.0027983270893700337,0.058
-0.0180267577102009,0.059
-0.030627574288002613,0.06
-0.03834520446856747,0.061
-0.0405918998840593,0.062
-0.03828487854839734,0.063
-0.033155794304732235,0.064
-0.026865613241989033,0.065
-0.020396656277994682,0.066
-0.013969620001120689,0.067
-0.007400961167294618,0.068
-0.0006378754420579802,0.069
0.005934133869612561,0.07
0.011650738962013633,0.071
0.015960428582864568,0.072
0.018579509167296917,0.073
0.019292933125160543,0.074
0.017846421775633697,0.075
0.014218096044908294,0.076
0.008942125505403355,0.077
0.0031207416728779047,0.078
-0.0019019572498889543,0.079
-0.005011313239668209,0.08
-0.005681638038649909,0.081
-0.004048871032609743,0.082
-0.0006883425952754451,0.083
0.003662120391464787,0.084
0.008176686013591642,0.085
0.011931909397159149,0.086
0.014113280195444956,0.087
0.014405833800575562,0.088
0.013207835479011798,0.089
0.011422575976602886,0.09
0.009941738756021869,0.091
0.009133124190253097,0.092
0.008603933086022617,0.093
0.007383475104819913,0.094
0.004477623544698845,0.095
-0.0004864870167354141,0.096
-0.006929840448623699,0.097
-0.01354837657996485,0.098
-0.018923454361285258,0.099
-0.022094328804079525,0.1
-0.022810354311314052,0.101
-0.021436623373161393,0.102
-0.01866676366126065,0.103
-0.015231648352858,0.104
-0.011676163517629063,0.105
-0.008222806545855636,0.106
-0.004815574615669234,0.107
-0.0013356978256019586,0.108
0.002242656595401339,0.109
0.005887597033430802,0.11
0.009593239314496592,0.111
0.013341980127659433,0.112
0.01692908797854895,0.113
0.01978224055508026,0.114
0.020978131322200298,0.115
0.019547557656227205,0.116
0.014897247073607718,0.117
0.007132878763576516,0.118
-0.0027369630591992525,0.119
-0.012823301912639706,0.12
-0.02084457725127608,0.121
-0.024968378343074034,0.122
-0.02451632440312924,0.123
-0.020113467033351665,0.124
-0.013244779013071717,0.125
-0.005552329429647186,0.126
0.0017128812860678652,0.127
0.00786678557825979,0.128
0.012642033324253246,0.129
0.015924611881843517,0.13
0.017551207205258514,0.131
0.01723290501826617,0.132
0.014657147048901328,0.133
0.009752734059970979,0.134
0.002988556073294141,0.135
-0.004435588181239566,0.136
-0.010676930879672447,0.137
-0.013784421223720669,0.138
-0.01256208132136851,0.139
-0.007237019893748587,0.14
0.0005514572990765918,0.141
0.008397888773481292,0.142
0.01400936239919659,0.143
0.015929933348111183,0.144
0.013870349853602072,0.145
0.008618680990493306,0.146
0.001678979269951563,0.147
-0.005191058411812278,0.148
-0.010407962082189958,0.149
-0.012870806171915068,0.15
-0.012158078377628485,0.151
-0.008650187624716775,0.152
-0.0035083259756452305,0.153
0.0016247084808892398,0.154
0.00521217613867322,0.155
0.006430842436640228,0.156
0.005378589358953906,0.157
0.0027587613201808564,0.158
-0.0006324940575515849,0.159
-0.00422157276968156,0.16
-0.00765415814890727,0.161
-0.010621650752369868,0.162
-0.012740046976929785,0.163
-0.01358025654684336,0.164
-0.012799937522861682,0.165
-0.010287529983059596,0.166
-0.0062340463585328215,0.167
-0.001066488382958738,0.168
0.004739003512174324,0.169
0.01085078071815227,0.17
0.017134410492815465,0.171
0.02347549870613083,0.172
0.029421965783914966,0.173
0.0337943137414235,0.174
0.0345367063878409,0.175
0.029318016425910375,0.176
0.01700929835652461,0.177
-0.0010787905815199898,0.178
-0.02146781051186217,0.179
-0.03997643531591031,0.18
-0.05318868451580399,0.181
-0.05928525754484289,0.182
-0.05811949807497911,0.183
-0.05069500781449982,0.184
-0.038448686385190285,0.185
-0.022725694571982046,0.186
-0.004604925504368532,0.187
0.014946732825202298,0.188
0.034717012817118406,0.189
0.05291337003110307,0.19
0.06707668132398306,0.191
0.0744606739651394,0.192
0.07300826466714737,0.193
0.062448712099386766,0.194
0.04458620796146461,0.195
0.02257598473401597,0.196
-9.984286642028942e-05,0.197
-0.020338474029301577,0.198
-0.03579233884640778,0.199
-0.04515147926797336,0.2
-0.04830421047221122,0.201
-0.046185866661375974,0.202
-0.040347545652400514,0.203
-0.032457873091177585,0.204
-0.023948993305849386,0.205
-0.015899537996399676,0.206
-0.009057425232611042,0.207
-0.003854422463160592,0.208
-0.000395329094674506,0.209
0.001524113424403355,0.21
0.0023645885258750006,0.211
0.0027512816787133854,0.212
0.003293207758325087,0.213
0.00436187940841531,0.214
0.006001932378621871,0.215
0.00801679585558868,0.216
0.010102401193722445,0.217
0.011937661502647292,0.218
0.01322857043937832,0.219
0.013729321658835975,0.22
0.013268581309477024,0.221
0.011794337531034645,0.222
0.009416455545048748,0.223
0.006422129870730478,0.224
0.003244901551271843,0.225
0.00035891808091350984,0.226
-0.0018847905119088227,0.227
-0.00336955941211769,0.228
-0.004171532519447258,0.229
-0.004416210253935449,0.23
-0.004177128162718819,0.231
-0.003480965702393607,0.232
-0.002363270907745016,0.233
-0.0009096281507857551,0.234
0.0007346791291218743,0.235
0.002398307144845017,0.236
0.0039509059479599816,0.237
0.005340973224877618,0.238
0.0065548659776042476,0.239
0.007504859959868841,0.24
0.007899742541968445,0.241
0.00723833307809507,0.242
0.00505222599641208,0.243
0.0012492454187399988,0.244
-0.0037270641182955257,0.245
-0.008979524879264986,0.246
-0.013400844264926791,0.247
-0.01603311220558946,0.248
-0.01641961049507522,0.249
-0.014772978045971972,0.25
-0.01186965259141833,0.251
-0.008681955933216842,0.252
-0.005921815385711721,0.253
-0.00377619505820922,0.254
-0.0019737281343936495,0.255
-9.793526858983718e-05,0.256
0.002077178711249458,0.257
0.004418439252005861,0.258
0.006465748026891032,0.259
0.007638761002352475,0.26
0.007533223196805824,0.261
0.006119363052885443,0.262
0.0037491323893800626,0.263
0.0010341330850875182,0.264
-0.001354959471016748,0.265
-0.00289801405521824,0.266
-0.003317614599915196,0.267
-0.0025305937161441525,0.268
-0.0005722039076122785,0.269
0.0024135025917859524,0.27
0.006127924913115232,0.271
0.010064575397125994,0.272
0.013470080212256626,0.273
0.015359077364925504,0.274
0.014701461345943334,0.275
0.01085980272557629,0.276
0.004066514284993602,0.277
-0.0044342465255273215,0.278
-0.012674080311815421,0.279
-0.01846871691086967,0.28
-0.019975859374177535,0.281
-0.01622660057843927,0.282
-0.007510082445242052,0.283
0.004518126020870407,0.284
0.01703388928593894,0.285
0.026570192182662173,0.286
0.030029585955958442,0.287
0.02607244023857685,0.288
0.015932724855239607,0.289
0.002760250918514611,0.29
-0.009992468883998445,0.291
-0.019880609411136486,0.292
-0.02588719211053814,0.293
-0.0281342805582348,0.294
-0.02735506929154739,0.295
-0.024474637131742662,0.296
-0.020375288413529025,0.297
-0.015789016981564086,0.298
-0.011235540533534955,0.299
-0.006997122134693538,0.3
-0.00317013332343388,0.301
0.0002620339290191573,0.302
0.00339721110952616,0.303
0.006365700330604328,0.304
0.009251827001005618,0.305
0.01206201385722463,0.306
0.014733027072178388,0.307
0.017128847973196127,0.308
0.01902249519667171,0.309
0.020084702732123712,0.31
0.01991915289458158,0.311
0.018188921660495967,0.312
0.01482742370073407,0.313
0.01019723325224076,0.314
0.005005509075514416,0.315
1.2468411102540624e-06,0.316
-0.004297651729921002,0.317
-0.007685992963528693,0.318
-0.010186465407787912,0.319
-0.01188904210547444,0.32
-0.012800417814896665,0.321
-0.012768618311539602,0.322
-0.011539649534640744,0.323
-0.008999817380243044,0.324
-0.005514593919765032,0.325
-0.0020495705425602126,0.326
0.0001220195905005308,0.327
-5.429155051873891e-05,0.328
-0.0029301888081092377,0.329
-0.00786850317446087,0.33
-0.013267328251963315,0.331
-0.016995618580980875,0.332
-0.01719739071374976,0.333
-0.0131051693717924,0.334
-0.00535217266631201,0.335
0.004402086202128294,0.336
0.014254232864100654,0.337
0.022765251035723747,0.338
0.029193231628954396,0.339
0.03323292840342521,0.34
0.034673055014021036,0.341
0.03334370460340152,0.342
0.02929183286449878,0.343
0.02289925280222069,0.344
0.014792285329349605,0.345
0.005604347564585516,0.346
-0.004149442060962985,0.347
-0.013906526849570855,0.348
-0.022839979001948067,0.349
-0.029929342295736766,0.35
-0.034284317685173996,0.351
-0.035458314994633894,0.352
-0.0335636048632242,0.353
-0.029154242525569175,0.354
-0.0230155801122098,0.355
-0.016034280432791346,0.356
-0.00917597760730222,0.357
-0.0034610012586588734,0.358
0.00021636510944111637,0.359
0.0014621934515953558,0.36
0.0007007198090573436,0.361
-0.0009058253617659544,0.362
-0.0019424549822251854,0.363
-0.0013131898942135953,0.364
0.0013981861064005295,0.365
0.005907989770126352,0.366
0.011490535519296553,0.367
0.01729594056420884,0.368
0.02255577079569698,0.369
0.026653194419992064,0.37
0.02910902910120291,0.371
0.029544492746154005,0.372
0.027664305819863903,0.373
0.02329267546606815,0.374
0.0164566189861906,0.375
0.007493756971795706,0.376
-0.002816343757505263,0.377
-0.013191086733111894,0.378
-0.021995432649462864,0.379
-0.02761014171779978,0.38
-0.028898538892704603,0.381
-0.025565062490116912,0.382
-0.018238632086263057,0.383
-0.0083483287440183,0.384
0.0020790088242025107,0.385
0.010791577876752488,0.386
0.01596000024929809,0.387
0.01682617046598578,0.388
0.013909656782976851,0.389
0.00867865410740631,0.39
0.002933129275523831,0.391
-0.0018354013125747967,0.392
-0.004911549541421908,0.393
-0.006500999166869292,0.394
-0.007478444262003188,0.395
-0.008830557799410697,0.396
-0.01108240538469538,0.397
-0.013991364901248998,0.398
-0.016614283907571963,0.399
-0.017707037745450287,0.4
-0.01626967549222015,0.401
-0.01193168608568174,0.402
-0.004964728835696069,0.403
0.004003751339597816,0.404
0.014230125269405385,0.405
0.02474090745088094,0.406
0.03397925120280275,0.407
0.03968201604442145,0.408
0.03942013775009222,0.409
0.03180304829959469,0.41
0.01759644396148513,0.411
-0.00025330714232219074,0.412
-0.017768574686430557,0.413
-0.03139614848492596,0.414
-0.03900429157572921,0.415
-0.04017541486973048,0.416
-0.035889859095544166,0.417
-0.027897707136860458,0.418
-0.018122119163204428,0.419
-0.008267792348246192,0.42
0.00040286617639591213,0.421
0.0071582186567529195,0.422
0.011713028042268083,0.423
0.014060217341145466,0.424
0.01441674984066158,0.425
0.013261464354790637,0.426
0.011250231067656232,0.427
0.009010419679365679,0.428
0.007002110303913003,0.429
0.005501156970930112,0.43
0.004636376970226616,0.431
0.0044378849558208,0.432
0.004893005217891432,0.433
0.0059863588355511576,0.434
0.00766490779730456,0.435
0.009709019181920398,0.436
0.011582507323447922,0.437
0.01237621263370051,0.438
0.010980542414151844,0.439
0.006574870993681207,0.44
-0.0007780751071328143,0.441
-0.009879185764342012,0.442
-0.018661446344354845,0.443
-0.02480252758844451,0.444
-0.026482803652406666,0.445
-0.02309045883428904,0.446
-0.015531674518663397,0.447
-0.005899472901650178,0.448
0.003334461429048969,0.449
0.010195063129015245,0.45
0.01377502333527658,0.451
0.014274278590128968,0.452
0.01257512594855625,0.453
0.009691026764539734,0.454
0.006408361303117566,0.455
0.003206532864837787,0.456
0.0003397808133451328,0.457
-0.0020612112865932603,0.458
-0.003926053933830246,0.459
-0.005211654718115113,0.46
-0.005903964720765969,0.461
-0.006065535458116156,0.462
-0.005869082979383239,0.463
-0.0055498928307959145,0.464
-0.005318996168705103,0.465
-0.005321874094859554,0.466
-0.0056255899079191264,0.467
-0.006168071113275602,0.468
-0.00670010224555999,0.469
-0.006791747212451726,0.47
-0.00592358095463565,0.471
-0.0036846929664855325,0.472
-5.0349395154817005e-05,0.473
0.004451867949893695,0.474
0.008873127819907577,0.475
0.012208588032144871,0.476
0.013769249601100746,0.477
0.013396561458259933,0.478
0.011487721104914365,0.479
0.008839350974949539,0.48
0.0063398176016673715,0.481
0.0046758095827170686,0.482
0.004218186030476044,0.483
0.005008279608210209,0.484
0.006691986912610416,0.485
0.008460931833280425,0.486
0.009215305062950901,0.487
0.008031344835382353,0.488
0.004660991627174346,0.489
-0.0003478157197364149,0.49
-0.0059747339894518706,0.491
-0.011187166011206536,0.492
-0.01522511833220672,0.493
-0.017633111351438337,0.494
-0.01818577154795002,0.495
-0.016866221335541814,0.496
-0.013913133632493871,0.497
-0.009846594930002584,0.498
-0.005381847121374556,0.499
-0.0012343461257350423,0.5
0.0020749783513582505,0.501
0.004290186572835557,0.502
0.0053483106958320745,0.503
0.005271455976018877,0.504
0.004133017579243601,0.505
0.0021084160285838663,0.506
-0.0004657537849239873,0.507
-0.0030864647735079657,0.508
-0.005139572105557403,0.509
-0.0060163253656914445,0.51
-0.005266283356134064,0.511
-0.002751305963023399,0.512
0.0012017927170406358,0.513
0.005746228867666074,0.514
0.00972014970550518,0.515
0.012070422055779476,0.516
0.012236259399858805,0.517
0.010266838608819447,0.518
0.006679675060004179,0.519
0.002247683684406379,0.52
-0.002165838824493032,0.521
-0.0057440211336029934,0.522
-0.007860430095315545,0.523
-0.00819879413550382,0.524
-0.006761545856095716,0.525
-0.0037537043984316987,0.526
0.0005277935233608633,0.527
0.0056725826434573835,0.528
0.01104307727978713,0.529
0.01573345466125589,0.53
0.018730806794341914,0.531
0.019264531466411137,0.532
0.01714616695601136,0.533
0.012808078068524673,0.534
0.006977229030318636,0.535
0.0003125934483859968,0.536
-0.006649200043343993,0.537
-0.013302155954410956,0.538
-0.01887665501551153,0.539
-0.022607887144473288,0.54
-0.024014297137229842,0.541
-0.023069180054481147,0.542
-0.02016659321478257,0.543
-0.015936977335392778,0.544
-0.011061973687159218,0.545
-0.006185388569043723,0.546
-0.001916124435971397,0.547
0.0011718186126992971,0.548
0.0026993364488375102,0.549
0.0027895644700729164,0.55
0.0021875878524607547,0.551
0.0019355828934138658,0.552
0.0028329610023276205,0.553
0.00511204852306499,0.554
0.008471323122482118,0.555
0.012288739516022421,0.556
0.0158143875871111,0.557
0.018301218072838642,0.558
0.01912492993304367,0.559
0.01791770455641169,0.56
0.014682348927789187,0.561
0.009830551533208443,0.562
0.004108668440179577,0.563
-0.0015771262523768886,0.564
-0.006381450736131638,0.565
-0.00972347976290755,0.566
-0.011399581688407899,0.567
-0.011558954753403948,0.568
-0.010582420029085146,0.569
-0.0089293894184748,0.57
-0.0070023838299299946,0.571
-0.0050850998397083584,0.572
-0.0033730528239902927,0.573
-0.0020195772762543317,0.574
-0.0011033638107890201,0.575
-0.0005548862126634216,0.576
-0.00017053391277103,0.577
0.00025052775199827426,0.578
0.0007559905789682195,0.579
0.0012030433724764006,0.58
0.0013679540514735353,0.581
0.0011174363312535507,0.582
0.0004760152911872824,0.583
-0.0004740868988948572,0.584
-0.0017005051647931385,0.585
-0.003173201623314501,0.586
-0.004712460656444011,0.587
-0.005881679875749218,0.588
-0.006012902120712843,0.589
-0.004385515416346643,0.59
-0.0005541204555769306,0.591
0.00526934403652539,0.592
0.012040748872432068,0.593
0.018098282715122732,0.594
0.021669859348721683,0.595
0.021509921040005976,0.596
0.017454334324674248,0.597
0.010537174929615931,0.598
0.0025235912623856097,0.599
-0.004832570136914806,0.6
-0.010360924562599254,0.601
-0.013671806845559973,0.602
-0.01503636144424882,0.603
-0.015076411461701415,0.604
-0.014401138325126874,0.605
-0.013369432637405075,0.606
-0.012080130383815349,0.607
-0.010504909015705723,0.608
-0.008609856605458896,0.609
-0.006414358421542526,0.61
-0.004029856382708547,0.611
-0.0016830392245958837,0.612
0.0003541837279560552,0.613
0.0019310117191069086,0.614
0.00312210539899579,0.615
0.004155734065019022,0.616
0.005243855624731686,0.617
0.006471242211094333,0.618
0.007822218808704035,0.619
0.009274174742138572,0.62
0.01082848168010362,0.621
0.012458663857876426,0.622
0.014046204728900984,0.623
0.015337152491341524,0.624
0.01590386363541961,0.625
0.01513483594486632,0.626
0.012382166359805014,0.627
0.0073306547805169564,0.628
0.0003437502351023123,0.629
-0.007532623695239064,0.63
-0.014905690321392235,0.631
-0.020472238489408795,0.632
-0.023357830037912176,0.633
-0.023291116569551747,0.634
-0.020626339794111378,0.635
-0.01622367899704835,0.636
-0.011203665096116354,0.637
-0.006645730102632387,0.638
-0.00332833640300093,0.639
-0.0015636648647979656,0.64
-0.0011198670261276609,0.641
-0.0012394674090843343,0.642
-0.0007925283763410121,0.643
0.0014198678806795922,0.644
0.006245740487734107,0.645
0.013749931629752828,0.646
0.0229213613588895,0.647
0.03167523632314123,0.648
0.037306126797269294,0.649
0.03743693922201743,0.65
0.031097694590275136,0.651
0.01923264697462156,0.652
0.0043129283677368424,0.653
-0.010602328436086694,0.654
-0.022846443623947815,0.655
-0.030821804373233133,0.656
-0.03420525388243606,0.657
-0.03370462906557432,0.658
-0.030536079372332287,0.659
-0.025859735537926743,0.66
-0.020412374999573553,0.661
-0.014482781495327553,0.662
-0.008158154250889746,0.663
-0.0016009595647646319,0.664
0.004816286073621575,0.665
0.010533869896295579,0.666
0.01494445436267649,0.667
0.01759089875438106,0.668
0.01832638219762882,0.669
0.017348194996430626,0.67
0.015087590341787298,0.671
0.012025962665666535,0.672
0.008536615692851466,0.673
0.004796857539694932,0.674
0.0007756405914798617,0.675
-0.003664431576525781,0.676
-0.008478288664903282,0.677
-0.013042356424243357,0.678
-0.016075859459570855,0.679
-0.01620022331051516,0.68
-0.012732190370300578,0.681
-0.006044015767487418,0.682
0.0026519960716231148,0.683
0.011785571536853766,0.684
0.019837415596947496,0.685
0.02552935244875423,0.686
0.027877559833439064,0.687
0.0262996607847723,0.688
0.02083421915430458,0.689
0.012277641979106857,0.69
0.002045398952540725,0.691
-0.008169497936669259,0.692
-0.016756045021618336,0.693
-0.02250187522166628,0.694
-0.024835358429809714,0.695
-0.02390462141545344,0.696
-0.020485073654236838,0.697
-0.01576517535934575,0.698
-0.01100077880702642,0.699
-0.0070932841768362115,0.7
-0.004307254600204926,0.701
-0.002315398019016515,0.702
-0.0005386236149512939,0.703
0.001437748767213049,0.704
0.0036038422522689548,0.705
0.005544576678990768,0.706
0.0067166551444849875,0.707
0.006799143242228565,0.708
0.00588872833310768,0.709
0.004481064706313326,0.71
0.003335097783427197,0.711
0.0032873503576405258,0.712
0.005016203540377026,0.713
0.00876404370586526,0.714
0.01407392351352094,0.715
0.019636988583300357,0.716
0.02340487949254361,0.717
0.023182732604009496,0.718
0.01767401318360783,0.719
0.007360774857284808,0.72
-0.005510703966062023,0.721
-0.017842132837307383,0.722
-0.026874567257802632,0.723
-0.031063372059943792,0.724
-0.030336982206770724,0.725
-0.025797028911315634,0.726
-0.01914252065969785,0.727
-0.012084907814901602,0.728
-0.005926233229632744,0.729
-0.0013529394910275128,0.73
0.001586208935436486,0.731
0.0033449973057981595,0.732
0.004607967653363622,0.733
0.005953134210703322,0.734
0.00760278207767861,0.735
0.009404082341636269,0.736
0.010997788259412743,0.737
0.012008426697430987,0.738
0.012182643670936364,0.739
0.011478720547113396,0.74
0.010070111108356273,0.741
0.008242632161893733,0.742
0.006255005803688134,0.743
0.004258387668636718,0.744
0.002309387733078369,0.745
0.00044922718261235277,0.746
-0.0012216910999298409,0.747
-0.0025444515080929302,0.748
-0.003368250273529428,0.749
-0.0036220511239975694,0.75
-0.0033620824064504204,0.751
-0.002781616077694144,0.752
-0.00216132599439615,0.753
-0.0017701153679089549,0.754
-0.0017715433951367673,0.755
-0.0021938174724601403,0.756
-0.002967554522789911,0.757
-0.003971397534768576,0.758
-0.005039108718197626,0.759
-0.005962153497830615,0.76
-0.006536882061810187,0.761
-0.006636269679167338,0.762
-0.006250246974177462,0.763
-0.0054641319767005205,0.764
-0.004393005658255754,0.765
-0.0031305374252488375,0.766
-0.00174523644028572,0.767
-0.0002943093201991137,0.768
0.0011719200992500224,0.769
0.002601180457163838,0.77
0.003910488014023001,0.771
0.004967748863534751,0.772
0.00567107008600316,0.773
0.006126251614317966,0.774
0.0067228927631369515,0.775
0.007941760123655932,0.776
0.009995993585611412,0.777
0.012562891390368687,0.778
0.014794814218634563,0.779
0.01564780964004388,0.78
0.014378544942556517,0.781
0.010886143405509651,0.782
0.005684116167586089,0.783
-0.00038179967684377666,0.784
-0.00643906845585918,0.785
-0.011797709195439609,0.786
-0.01603196575519661,0.787
-0.018955300188032008,0.788
-0.020546745707962444,0.789
-0.020878275048204904,0.79
-0.020067641753338215,0.791
-0.018251057868563843,0.792
-0.015547380256899631,0.793
-0.012022272239514744,0.794
-0.007709312643739937,0.795
-0.0027112439580608406,0.796
0.0026801862590818447,0.797
0.00795293789243251,0.798
0.012481931033362655,0.799
0.015712525189781643,0.8
0.017317998051187743,0.801
0.017265293460965236,0.802
0.015772499130190187,0.803
0.013192767106732627,0.804
0.009892310729087438,0.805
0.006163628103912758,0.806
0.002184153044689839,0.807
-0.0019343779559646212,0.808
-0.005995284175743218,0.809
-0.00958199633410792,0.81
-0.012041140736114106,0.811
-0.012580481441603866,0.812
-0.010481556527825061,0.813
-0.005407660555893696,0.814
0.002318546513763856,0.815
0.011601169415260926,0.816
0.020683390361545328,0.817
0.027504845422817826,0.818
0.030227227627690846,0.819
0.027754445358157374,0.82
0.020104509309355995,0.821
0.008514503263319784,0.822
-0.004853521002044797,0.823
-0.01756190224513028,0.824
-0.027596999232295236,0.825
-0.033791883570260785,0.826
-0.03585749450138573,0.827
-0.034159754446679576,0.828
-0.029471332801342273,0.829
-0.022786829348604987,0.83
-0.01514646120420289,0.831
-0.007443874018497413,0.832
-0.0002846606899275407,0.833
0.006033730281130692,0.834
0.011435635373337676,0.835
0.01593948593353301,0.836
0.019498851816413486,0.837
0.021798764166291437,0.838
0.02215785526411685,0.839
0.019850195671986197,0.84
0.014800625443616319,0.841
0.007971448008810065,0.842
0.000981593865675532,0.843
-0.004639024074315961,0.844
-0.007971860206919179,0.845
-0.008836893447652717,0.846
-0.007632324356510001,0.847
-0.005065791970975775,0.848
-0.0019130363065581815,0.849
0.0011433123827518095,0.85
0.003592354875150385,0.851
0.005114204235635243,0.852
0.005579123163767623,0.853
0.005054019311884823,0.854
0.00379501259599545,0.855
0.0021788992853038593,0.856
0.0005895255329791044,0.857
-0.0006636486582408793,0.858
-0.0013837270340640814,0.859
-0.0015405757390324886,0.86
-0.0013538514372805608,0.861
-0.0013412856874823944,0.862
-0.002194201801424422,0.863
-0.004359878821873479,0.864
-0.007548359539511068,0.865
-0.010684101393383168,0.866
-0.01244160030853553,0.867
-0.01191492264544681,0.868
-0.008981963373201176,0.869
-0.004269525466646261,0.87
0.0011451224559033166,0.871
0.006100879078570088,0.872
0.009678560066159244,0.873
0.011432819095192441,0.874
0.011435552515472965,0.875
0.010097847661948007,0.876
0.007918928732889886,0.877
0.005337373964377472,0.878
0.0026992280154160605,0.879
0.0002618352128927179,0.88
-0.0018039870387194848,0.881
-0.0033885619220666357,0.882
-0.004391414709562576,0.883
-0.004691623168867079,0.884
-0.004184223406546855,0.885
-0.002877035598688049,0.886
-0.0009749946014790707,0.887
0.0011217654705912802,0.888
0.0029064980936401377,0.889
0.003908296867942775,0.89
0.003845631971166645,0.891
0.002725009910881094,0.892
0.0008357529063784768,0.893
-0.0013593115788913977,0.894
-0.0033897352297505567,0.895
-0.004910400680848638,0.896
-0.0057381711499728885,0.897
-0.005825175179496013,0.898
-0.00522946471538331,0.899
-0.004088854589137143,0.9
-0.0025979726325045375,0.901
-0.0010029507581259742,0.902
0.0004253924566051483,0.903
0.0014804008804861276,0.904
0.0021114621038549656,0.905
0.0024258430765583747,0.906
0.0025917370668519764,0.907
0.002727184133891696,0.908
0.0028524900694414227,0.909
0.0029035173529281958,0.91
0.002767301335262704,0.911
0.0023169526240530702,0.912
0.0014466824996959022,0.913
0.00013483302529488156,0.914
-0.0014391685402347465,0.915
-0.0027961230008301803,0.916
-0.0032499700506841062,0.917
-0.00224007346369435,0.918
0.0002960414534974536,0.919
0.0037600487756734554,0.92
0.007053268160166181,0.921
0.008999678405377682,0.922
0.008818192102739705,0.923
0.006405723683823055,0.924
0.002332264999757776,0.925
-0.002408243622083945,0.926
-0.006769593016108459,0.927
-0.009972690065253554,0.928
-0.011640005369000768,0.929
-0.011750575770393441,0.93
-0.010519402044073835,0.931
-0.008287362549358268,0.932
-0.005435812120863567,0.933
-0.002323747862140867,0.934
0.0007462206786153831,0.935
0.0035518374279747316,0.936
0.00597697183595066,0.937
0.008009845333116982,0.938
0.009689404262622584,0.939
0.01102534977227156,0.94
0.011931704891352722,0.941
0.012184387478760992,0.942
0.011424372361895752,0.943
0.009259275186219326,0.944
0.005462356236522174,0.945
0.00017090205211722157,0.946
-0.006018575251273,0.947
-0.01209157704309005,0.948
-0.01681440194156651,0.949
-0.019095022147542634,0.95
-0.01836861716340542,0.951
-0.014786947169272953,0.952
-0.009134279189611249,0.953
-0.0025700867202450776,0.954
0.003677959742911515,0.955
0.00859342459538678,0.956
0.011561577910817706,0.957
0.012433089665426373,0.958
0.011467323324873654,0.959
0.009197128744414819,0.96
0.006267684415101449,0.961
0.003273267505499108,0.962
0.0006235937353079241,0.963
-0.0014895350091896525,0.964
-0.0030303158242320715,0.965
-0.0040451814078205405,0.966
-0.004605458211189531,0.967
-0.004769734712848801,0.968
-0.004590264178116334,0.969
-0.00413959004410983,0.97
-0.0035036429030878002,0.971
-0.002752060109207525,0.972
-0.0019349136985677686,0.973
-0.001096957840988128,0.974
-0.0002796662028981555,0.975
0.0004749356602732456,0.976
0.0011219102184761808,0.977
0.0016458158604011168,0.978
0.002103766845904088,0.979
0.002619197643958294,0.98
0.003327311571964661,0.981
0.004310008712808991,0.982
0.005539670918146101,0.983
0.0068441631136654055,0.984
0.007911637134648573,0.985
0.008355500303247844,0.986
0.00781971997912954,0.987
0.006061372525965482,0.988
0.002986237530419507,0.989
-0.0012979648944916292,0.99
-0.0063382534400106706,0.991
-0.011229759457719087,0.992
-0.014823731873008275,0.993
-0.016231409427346733,0.994
-0.015225588041692863,0.995
-0.012246689785552153,0.996
-0.008088244132669536,0.997
-0.0035372808727537623,0.998
0.0008205299595391186,0.999
0.004609708468744686,1.0
0.00757711513849547,1.001
0.009516147080531912,1.002
0.010267563177283657,1.003
0.009784794022214896,1.004
0.008213368496964434,1.005
0.005920311638753128,1.006
0.0034166521727485677,1.007
0.0011752101564176947,1.008
-0.0005440039739096682,1.009
-0.0017123142383166368,1.01
-0.0024046263482938395,1.011
-0.0026877285068040266,1.012
-0.002612033699468788,1.013
-0.0022441575374828916,1.014
-0.0016761248214706046,1.015
-0.001020707131831648,1.016
-0.0003982362329721231,1.017
9.531445532850472e-05,1.018
0.0004147634792663602,1.019
0.0005619899303558895,1.02
0.0005588592826233855,1.021
0.00041418375547881383,1.022
0.00010474536057507634,1.023
-0.0004117725903556703,1.024
-0.0011526235037302285,1.025
-0.0020651829999132044,1.026
-0.003015471293151134,1.027
-0.0037975454177184595,1.028
-0.0041379155980868125,1.029
-0.0037294296307800964,1.03
-0.0023349440709259997,1.031
7.313166963796883e-05,1.032
0.0032094365319144114,1.033
0.006476828903579083,1.034
0.009112517069534936,1.035
0.010437069145258444,1.036
0.010081379325701165,1.037
0.008088460641930192,1.038
0.00487701136612656,1.039
0.0010967666923834027,1.04
-0.0025646859085824525,1.041
-0.005544401877443592,1.042
-0.0075033886750025605,1.043
-0.00836015957193423,1.044
-0.008257481096306026,1.045
-0.0074815724449191065,1.046
-0.006355150715998814,1.047
-0.005135988679232657,1.048
-0.003966339618517402,1.049
-0.002881760843757026,1.05
-0.001845180580027829,1.051
-0.0007828574319890922,1.052
0.00036790855557125004,1.053
0.0016055514912404767,1.054
0.0028353881268819814,1.055
0.003880785601888647,1.056
0.004534217357226809,1.057
0.00461920537875715,1.058
0.004035932312901253,1.059
0.0028076803569773994,1.06
0.0011243633060633363,1.061
-0.0006760878836700371,1.062
-0.002210731547153141,1.063
-0.003168569126947025,1.064
-0.003372007761966193,1.065
-0.0027896820698499435,1.066
-0.0015214704717250863,1.067
0.00024939797855490583,1.068
0.0023182118167912975,1.069
0.004489214955498514,1.07
0.006562317132095605,1.071
0.0083012502962562,1.072
0.00941387487848719,1.073
0.00957195962856255,1.074
0.008491427784327099,1.075
0.006069080090314631,1.076
0.0025029842716886735,1.077
-0.0017058941328830092,1.078
-0.005876960483773122,1.079
-0.009315940721399338,1.08
-0.011463937391930003,1.081
-0.011997586713854706,1.082
-0.010858134885052793,1.083
-0.00823811558250993,1.084
-0.004554907791602139,1.085
-0.0003900129950736992,1.086
0.0036052031383798514,1.087
0.006804910132238461,1.088
0.00869065424469643,1.089
0.008910790930795338,1.09
0.007321462807996247,1.091
0.004056760700178255,1.092
-0.0003668634467197097,1.093
-0.005058085503681148,1.094
-0.008986048614050425,1.095
-0.01131636477373992,1.096
-0.011646911399161306,1.097
-0.010060966163880157,1.098
-0.007017459201702845,1.099
-0.00316890991902865,1.1
0.0008062549992034123,1.101
0.004332830886743076,1.102
0.007024854824096969,1.103
0.008704368047085928,1.104
0.009343118726957454,1.105
0.008986693979864162,1.106
0.007732616711161614,1.107
0.005755721567827045,1.108
0.00332780398375356,1.109
0.0008003171966131147,1.11
-0.0014516224224449168,1.111
-0.003111950934417948,1.112
-0.003995872100821063,1.113
-0.004067346855223266,1.114
-0.003410777944376235,1.115
-0.002199278889012848,1.116
-0.0006693944611115764,1.117
0.0009123240180719598,1.118
0.0022918041115817865,1.119
0.003262412362440394,1.12
0.003682646690155219,1.121
0.0034887034018600276,1.122
0.002704597987812704,1.123
0.0014363001853406802,1.124
-0.00014996261040746924,1.125
-0.0018582703750040473,1.126
-0.003484675620369299,1.127
-0.004816594607373311,1.128
-0.005641360238347032,1.129
-0.005789013479773558,1.13
-0.005186416127191785,1.131
-0.003894647268460312,1.132
-0.0021127257277794406,1.133
-0.00013372913308530224,1.134
0.0017347352163260602,1.135
0.003242214046542602,1.136
0.004232396358242689,1.137
0.004646231490399879,1.138
0.004495465341075571,1.139
0.003834169276155522,1.14
0.0027581620942438946,1.141
0.0014120524689895902,1.142
-3.1978704766862326e-05,1.143
-0.0014122292175406848,1.144
-0.0025914999740688175,1.145
-0.0034433760723469324,1.146
-0.0038480247196048638,1.147
-0.003723630996400834,1.148
-0.0030737589534197587,1.149
-0.0020007679848854346,1.15
-0.0006715855919701755,1.151
0.0007292304574805442,1.152
0.0020325524473166503,1.153
0.0030981394061131012,1.154
0.003808837543521072,1.155
0.004060562858529638,1.156
0.0037732720265214927,1.157
0.0029302582701209146,1.158
0.0016181566268056525,1.159
2.8815238450806617e-05,1.16
-0.001584065846699698,1.161
-0.002965948769002988,1.162
-0.0039133831694391445,1.163
-0.00431158713913302,1.164
-0.004152514306508527,1.165
-0.0035148145824388695,1.166
-0.0025103606384457825,1.167
-0.0012342279419417226,1.168
0.00025675919112273603,1.169
0.0019333635801690604,1.17
0.0037534079551004226,1.171
0.005607029702134864,1.172
0.007272587022365321,1.173
0.008407850742407179,1.174
0.008603536531941267,1.175
0.007503085448802682,1.176
0.004951486078262182,1.177
0.0011292019304512699,1.178
-0.0033752522709154333,1.179
-0.007636137369208795,1.18
-0.01065648689348373,1.181
-0.01173851839461021,1.182
-0.010747881402929644,1.183
-0.00811102634530347,1.184
-0.0045848875596639195,1.185
-0.0009737858058042188,1.186
0.0020692120764355896,1.187
0.004122075355851276,1.188
0.004999345162960565,1.189
0.004737060053868308,1.19
0.0035665938341439573,1.191
0.001858115059330519,1.192
2.2881890544701218e-05,1.193
-0.001582842191846888,1.194
-0.0026994673942913184,1.195
-0.0031737146778940068,1.196
-0.0029691182101845765,1.197
-0.0021611150094370977,1.198
-0.0009074961991310356,1.199
0.0005905437356905521,1.2
0.0021201664525910087,1.201
0.003479248182196783,1.202
0.00450194947936043,1.203
0.0050863524520997835,1.204
0.005206571991656797,1.205
0.004900359391533913,1.206
0.004235341959506883,1.207
0.0032688543319954874,1.208
0.0020353373107620653,1.209
0.0005804906527063651,1.21
-0.00099209586181749,1.211
-0.0025041553070327114,1.212
-0.003726650430247633,1.213
-0.004440654339851086,1.214
-0.004505131332797844,1.215
-0.003898079790508866,1.216
-0.0027324316376674887,1.217
-0.0012405437099199,1.218
0.0002849000775002281,1.219
0.0015642638307806211,1.22
0.0023783227076074427,1.221
0.002585242505919557,1.222
0.0021375839609991784,1.223
0.0011122071918071668,1.224
-0.00028667176832186984,1.225
-0.0017772359229403518,1.226
-0.0030720633023925423,1.227
-0.003937203059560926,1.228
-0.0042280509071261005,1.229
-0.003905274011109377,1.23
-0.003037621809813955,1.231
-0.0017890548101761434,1.232
-0.0003768653510763207,1.233
0.0009910013801535473,1.234
0.0021602432499466264,1.235
0.0030366505337158702,1.236
0.003571264502663827,1.237
0.0037416007421619433,1.238
0.0035357103556909663,1.239
0.0029457769230393374,1.24
0.0019831908633888,1.241
0.0007124091020984734,1.242
-0.0007196770995568245,1.243
-0.002079812555827955,1.244
-0.0030912027510656115,1.245
-0.0035192842248086996,1.246
-0.003248787215963998,1.247
-0.0023175122882994783,1.248
-0.0009097256568309935,1.249
0.0006971365515014192,1.25
0.002222717910050857,1.251
0.003455737898868575,1.252
0.004271006514817802,1.253
0.00460887882497356,1.254
0.0044446003377384595,1.255
0.003769252196013507,1.256
0.0026033078988525584,1.257
0.0010356407481852843,1.258
-0.0007498333453848457,1.259
-0.0024896483577733636,1.26
-0.0039020469477550816,1.261
-0.0047642896890330595,1.262
-0.004958277960302349,1.263
-0.004478068126621226,1.264
-0.003425234384104772,1.265
-0.001992031186733075,1.266
-0.00041934622287399977,1.267
0.001061852525117995,1.268
0.002279841144863085,1.269
0.0031392218625598315,1.27
0.0035975514476372086,1.271
0.0036270610294419645,1.272
0.0032092240712770803,1.273
0.0023687069675743053,1.274
0.0012034525742473411,1.275
-0.00012568812143556694,1.276
-0.001436755993486668,1.277
-0.0025611395456720957,1.278
-0.0033551151313328752,1.279
-0.0037053971496770434,1.28
-0.0035426995189492983,1.281
-0.002864656016727247,1.282
-0.0017578091184015745,1.283
-0.00039114314007309954,1.284
0.0010233407898883272,1.285
0.002270061739469349,1.286
0.003157739119607997,1.287
0.0035463090256879167,1.288
0.0033725565323347636,1.289
0.00266939464401166,1.29
0.0015656587559421998,1.291
0.00025369467742889174,1.292
-0.0010563117306475476,1.293
-0.002166011685560152,1.294
-0.002916822931768264,1.295
-0.0032285707229140616,1.296
-0.0031116459325862536,1.297
-0.0026426842762223776,1.298
-0.0019357218216450173,1.299
-0.0011178611563971898,1.3
-0.0003011972175560623,1.301
0.000442550836586526,1.302
0.001086705615635228,1.303
0.001629329789275504,1.304
0.002060973269439822,1.305
0.0023407639907044144,1.306
0.0024014743724470318,1.307
0.0021804774299536323,1.308
0.0016561521570170664,1.309
0.0008777746248079774,1.31
-2.6856133621848116e-05,1.311
-0.0008823469245116132,1.312
-0.0015157541562827127,1.313
-0.001791943045839662,1.314
-0.0016362368994303474,1.315
-0.001055576268322443,1.316
-0.00014515937699221228,1.317
0.0009299591428397317,1.318
0.001967393522423072,1.319
0.0027625638055234322,1.32
0.003148236144666755,1.321
0.003032122948419952,1.322
0.00241674009369335,1.323
0.0013936100802708336,1.324
0.00010795754209782694,1.325
-0.0012836403534885327,1.326
-0.002617379547975494,1.327
-0.0037025879807354193,1.328
-0.004339510197455366,1.329
-0.0043748949735278216,1.33
-0.003753493904163395,1.331
-0.002545017296725884,1.332
-0.0009324385074366073,1.333
0.0008356506782610035,1.334
0.002496756322937336,1.335
0.0038144536357238965,1.336
0.004610862050213665,1.337
0.00478301601030829,1.338
0.0042997447399921885,1.339
0.003197937065815048,1.34
0.0015922331904600772,1.341
-0.0003185596063239201,1.342
-0.0022719606484136535,1.343
-0.003979766106765003,1.344
-0.0051729958585581375,1.345
-0.005663399489725207,1.346
-0.005398556941795589,1.347
-0.004462853837072287,1.348
-0.003029067997561064,1.349
-0.00130808666186447,1.35
0.00048744938021715446,1.351
0.0021720605469406295,1.352
0.0035982740613924404,1.353
0.004641068616530386,1.354
0.005182026492481963,1.355
0.0051305793763876395,1.356
0.004467782578065803,1.357
0.003266391290110562,1.358
0.0016830442756853624,1.359
-5.365772249474389e-05,1.36
-0.0016655336110298245,1.361
-0.0028813601221102767,1.362
-0.0035107514005667338,1.363
-0.003493020264795202,1.364
-0.0029063034791074883,1.365
-0.0019402227938423414,1.366
-0.0008353329514469448,1.367
0.00019189887366309225,1.368
0.0009988499894637156,1.369
0.0015180960880452213,1.37
0.001730837254652725,1.371
0.0016409152986576023,1.372
0.0012682471915446299,1.373
0.0006686309168576901,1.374
-4.90787428074061e-05,1.375
-0.0007447596875405416,1.376
-0.0012950318906947743,1.377
-0.00161912733843667,1.378
-0.0016695253463822393,1.379
-0.0014285538907727144,1.38
-0.0009300998259447369,1.381
-0.0002658258831288001,1.382
0.00044155521535144425,1.383
0.0010679596656153984,1.384
0.0015155510948008176,1.385
0.0017376926722765236,1.386
0.0017313083461127409,1.387
0.0015032138005642052,1.388
0.0010585241274276955,1.389
0.00041845564942275275,1.39
-0.0003646434890560656,1.391
-0.0012067884220601935,1.392
-0.0019996847237281484,1.393
-0.002618332160126735,1.394
-0.0029293606025666786,1.395
-0.002815495751603382,1.396
-0.002221429102740916,1.397
-0.001195646758532687,1.398
0.00010380584708384213,1.399
0.001447627290877628,1.4
0.0026058529881696478,1.401
0.0034197856585504744,1.402
0.0038291886574945747,1.403
0.003840980907294434,1.404
0.0034833932079907,1.405
0.0027977286205508683,1.406
0.001861009213535631,1.407
0.0007909730871373526,1.408
-0.00027847033502134694,1.409
-0.0012288581246898292,1.41
-0.0019811888127684,1.411
-0.002492940983900484,1.412
-0.0027277991280329587,1.413
-0.0026454197825072387,1.414
-0.002235360683349969,1.415
-0.0015533496412655189,1.416
-0.0007211131418807878,1.417
0.00010725168784368378,1.418
0.0007917468034567092,1.419
0.0012371177379710552,1.42
0.001391101150146783,1.421
0.0012243341590913726,1.422
0.0007253317719170207,1.423
-7.111300854494704e-05,1.424
-0.001050678275532707,1.425
-0.002021753368853866,1.426
-0.0027592018707804002,1.427
-0.003071463243710114,1.428
-0.002860541527566167,1.429
-0.0021420360143001127,1.43
-0.001023453809426902,1.431
0.00032438570257126994,1.432
0.0016871913393198923,1.433
0.0028461023672204815,1.434
0.003637979257709992,1.435
0.003987329297966783,1.436
0.0038907712832581694,1.437
0.003392813510756218,1.438
0.002577638502449999,1.439
0.0015657117051001716,1.44
0.0005029777862377735,1.441
-0.0004602929905329652,1.442
-0.0011996138849733693,1.443
-0.0016472462747286862,1.444
-0.0018070219336192145,1.445
-0.0017437519619862842,1.446
-0.0015540258812231638,1.447
-0.0013317078838635415,1.448
-0.0011428395685559075,1.449
-0.0010151364296190448,1.45
-0.0009395377448482208,1.451
-0.0008836868856075233,1.452
-0.0008212717678304877,1.453
-0.0007726086644532444,1.454
-0.0008182923041425148,1.455
-0.0010467007317905472,1.456
-0.0014584244757410783,1.457
-0.0019099934934178797,1.458
-0.002164183784484853,1.459
-0.002012973152589271,1.46
-0.0013709422719575485,1.461
-0.00028897246282662145,1.462
0.001087342854716596,1.463
0.0025689828702953645,1.464
0.003959184482012852,1.465
0.005076573189266541,1.466
0.0057727463770873575,1.467
0.005948010604236492,1.468
0.005566013415874607,1.469
0.004665144262093861,1.47
0.0033614587556384397,1.471
0.0018268948544734932,1.472
0.0002419487640122343,1.473
-0.0012515121473491019,1.474
-0.002575005030134693,1.475
-0.003704549752246975,1.476
-0.004634614200451049,1.477
-0.00534197869921292,1.478
-0.0057698223541795554,1.479
-0.005836876484354193,1.48
-0.0054713905932116955,1.481
-0.004655835008066232,1.482
-0.0034554672659700522,1.483
-0.0020127054976709826,1.484
-0.0005051032728849179,1.485
0.0009144452753225987,1.486
0.0021559831449965987,1.487
0.003183985588171459,1.488
0.003976718660425924,1.489
0.004493021527257865,1.49
0.004676358333937631,1.491
0.004482585032389317,1.492
0.0038923278269303342,1.493
0.002910435039571716,1.494
0.0015959562896565224,1.495
0.00011441554854670484,1.496
-0.001264811257227773,1.497
-0.0022581351333110645,1.498
-0.002682050049974677,1.499
-0.0025153614382869816,1.5
-0.001880385753478065,1.501
-0.0009683854577704332,1.502
2.6378204031403643e-05,1.503
0.0009224199963649517,1.504
0.0015490735618165796,1.505
0.001772143467317229,1.506
0.0015293912833600125,1.507
0.0008421549292789137,1.508
-0.00018697903276336343,1.509
-0.0013780378882439499,1.51
-0.002493965997774286,1.511
-0.0032842564276566737,1.512
-0.0035402514657404236,1.513
-0.003154376465783089,1.514
-0.002165845457602388,1.515
-0.0007553969445809527,1.516
0.0008096665010002853,1.517
0.0022369745583853237,1.518
0.003266399374851011,1.519
0.0037299968724098277,1.52
0.0035863696299725384,1.521
0.0029053320959114043,1.522
0.0018266289122530538,1.523
0.0005265571947620466,1.524
-0.0008024857902402593,1.525
-0.001971747875549169,1.526
-0.002822477928460418,1.527
-0.0032526917551561666,1.528
-0.0032313834731889993,1.529
-0.0027912043534938018,1.53
-0.0020067017379278396,1.531
-0.000978912915590007,1.532
0.0001674776682458619,1.533
0.0012889369713380554,1.534
0.002238649188822544,1.535
0.0028913273521506094,1.536
0.0031741772079111534,1.537
0.0030887679881927833,1.538
0.00270104705740189,1.539
0.00209889149227513,1.54
0.001352078799017432,1.541
0.000512363790730838,1.542
-0.00035079156352670873,1.543
-0.0011216665485367287,1.544
-0.0016589391411038804,1.545
-0.0018574049757091838,1.546
-0.0016893828035210732,1.547
-0.0011978013159163533,1.548
-0.000479768175030517,1.549
0.0003151110103581495,1.55
0.0009973976038228315,1.551
0.0013835110233461612,1.552
0.0013577080730319724,1.553
0.0009134248189426667,1.554
0.0001524413716060445,1.555
-0.0007514814102064015,1.556
-0.0016073117519641623,1.557
-0.0022673725610735714,1.558
-0.0026726842113136947,1.559
-0.002844319779653605,1.56
-0.002822716995956042,1.561
-0.002616799692371163,1.562
-0.002196007620355901,1.563
-0.0015135077508333598,1.564
-0.0005500137936204964,1.565
0.0006482328025663296,1.566
0.0019650919213409675,1.567
0.003234118839589669,1.568
0.004270492192268411,1.569
0.004914186934855185,1.57
0.005062001548379748,1.571
0.0046751907776405215,1.572
0.0037797758809932362,1.573
0.0024733995821585837,1.574
0.000931225353626219,1.575
-0.0006159524959483602,1.576
-0.0019407348057292662,1.577
-0.0028867660882060495,1.578
-0.003408895438120958,1.579
-0.003560672713132997,1.58
-0.003445904973729819,1.581
-0.003178989398997819,1.582
-0.002857591963496101,1.583
-0.002536798576585901,1.584
-0.0022228691416262825,1.585
-0.0018945029288877557,1.586
-0.0015315588924582541,1.587
-0.0011307609021007565,1.588
-0.0007000033842025471,1.589
-0.00023944384379164841,1.59
0.00026471441291714176,1.591
0.0008241226860202489,1.592
0.0014244978044785923,1.593
0.0020097270908831766,1.594
0.0024984892209906173,1.595
0.002839470121495747,1.596
0.0030561218988578442,1.597
0.003223373381326179,1.598
0.003388206473764527,1.599
0.0035221860290922434,1.6
0.003557072991881054,1.601
0.0034420572218345894,1.602
0.0031513157337464477,1.603
0.0026561127535620617,1.604
0.0019087896562259784,1.605
0.0008600635972951655,1.606
-0.0004955251596475888,1.607
-0.0020758202994277204,1.608
-0.003703400434845489,1.609
-0.005143081497460806,1.61
-0.006157495501353488,1.611
-0.006550098064845625,1.612
-0.0062072422577490426,1.613
-0.005148847530084236,1.614
-0.0035478665535241603,1.615
-0.001685261061623338,1.616
0.00014188071630721026,1.617
0.0017056779782229697,1.618
0.002877184526373714,1.619
0.003597560932832895,1.62
0.0038311999754483813,1.621
0.0035521333192405947,1.622
0.0027793938049842423,1.623
0.0016163791690136,1.624
0.00025298216180030136,1.625
-0.0010576035426872708,1.626
-0.0020410640845520862,1.627
-0.0024793540911923016,1.628
-0.0022919548802901994,1.629
-0.001562293889217958,1.63
-0.0005030223713543022,1.631
0.0006184774066538753,1.632
0.0015744237943939381,1.633
0.0022428202110135512,1.634
0.0026059924456580193,1.635
0.0027005289275217176,1.636
0.0025647472565158195,1.637
0.002213178723357561,1.638
0.001646291821036271,1.639
0.0008846190553985352,1.64
-2.978687834698081e-06,1.641
-0.0009018069454469025,1.642
-0.0016840611469386502,1.643
-0.0022516161536418446,1.644
-0.002556085814184969,1.645
-0.0025830628367604367,1.646
-0.0023320351918071497,1.647
-0.0018192398813908488,1.648
-0.0010876851207896855,1.649
-0.00020951731260171255,1.65
0.0007109017968667063,1.651
0.0015402926842511878,1.652
0.00214455818481131,1.653
0.002430098442564511,1.654
0.0023642011912126037,1.655
0.001968363362728307,1.656
0.001312686198118774,1.657
0.0005138660077987373,1.658
-0.0002909571870327502,1.659
-0.0009831819248627325,1.66
-0.0014744369521356763,1.661
-0.00169626547080365,1.662
-0.0016022532912190518,1.663
-0.0011881957400631154,1.664
-0.0005119885424589961,1.665
0.00030730162501398545,1.666
0.0011141221251861142,1.667
0.0017480653643471985,1.668
0.0020768470277191943,1.669
0.0020229817958237607,1.67
0.001569454398484421,1.671
0.0007530701585033833,1.672
-0.00034557122484045065,1.673
-0.001610262238244686,1.674
-0.002889996862222428,1.675
-0.0040101709836443,1.676
-0.004801998932051847,1.677
-0.00513581407862717,1.678
-0.004949202046214623,1.679
-0.004256873669185199,1.68
-0.003129079910235361,1.681
-0.0016598227103144768,1.682
3.6886651858948586e-05,1.683
0.0018125624967990682,1.684
0.0034911450626074407,1.685
0.004898570905159502,1.686
0.005888294256774257,1.687
0.006353919885285679,1.688
0.006241345604510229,1.689
0.005561647102040704,1.69
0.0043946630855144116,1.691
0.0028886015853236344,1.692
0.0012570225309518914,1.693
-0.00024733264629428925,1.694
-0.001394803438149849,1.695
-0.0020523212702913594,1.696
-0.00221555814526992,1.697
-0.001984345411622781,1.698
-0.0015162994438930075,1.699
-0.0009758995184710448,1.7
-0.00048239080869879084,1.701
-8.346474440194445e-05,1.702
0.00022221826694711932,1.703
0.00042998575688864125,1.704
0.0004929511053806731,1.705
0.00033785715990738085,1.706
-8.923572339164418e-05,1.707
-0.0007896448624899676,1.708
-0.0017052332068928865,1.709
-0.0027197139786973522,1.71
-0.0036582811037261546,1.711
-0.004307929571613734,1.712
-0.004466482783843047,1.713
-0.004000872285045448,1.714
-0.002906138042078056,1.715
-0.0013369312632112503,1.716
0.00043395818400777724,1.717
0.002109093622549601,1.718
0.00344538334367961,1.719
0.004286862745053273,1.72
0.004561381143636046,1.721
0.004270099906813759,1.722
0.0034829256891320704,1.723
0.002330289863285617,1.724
0.0009896166839401528,1.725
-0.0003362130823335456,1.726
-0.0014530121725598252,1.727
-0.0022084407083950747,1.728
-0.002516268911893418,1.729
-0.002374128556313813,1.73
-0.0018654862805473616,1.731
-0.0011338384872416772,1.732
-0.0003351093174255442,1.733
0.000402683548655523,1.734
0.000988248804795657,1.735
0.0013493602199330097,1.736
0.001419534775933029,1.737
0.0011579060492589487,1.738
0.0005857652811686218,1.739
-0.00019847140525472125,1.74
-0.0010280736626073052,1.741
-0.0016962945512966974,1.742
-0.00202033842593918,1.743
-0.0019143952667253702,1.744
-0.0014062631894002635,1.745
-0.0005925270706658007,1.746
0.00041006459464068134,1.747
0.0014844516285477522,1.748
0.002514219212337487,1.749
0.003377598980403051,1.75
0.0039494185140759985,1.751
0.004130846165912621,1.752
0.0038860600492745733,1.753
0.003245390457129084,1.754
0.002286097088441761,1.755
0.0011168409631406957,1.756
-0.00014019604959481565,1.757
-0.0013724720253076206,1.758
-0.002488865554717785,1.759
-0.0034120969821162033,1.76
-0.004070672831189203,1.761
-0.004402063227004774,1.762
-0.0043565135071392085,1.763
-0.0039045572249681595,1.764
-0.0030648254298254705,1.765
-0.0019346392034224743,1.766
-0.0006786956351958678,1.767
0.0005157749599724364,1.768
0.0014735120216962075,1.769
0.002053748617175044,1.77
0.0021747504494899882,1.771
0.0018352093153462998,1.772
0.0011273788260917842,1.773
0.00023156955998841145,1.774
-0.0006256316981671069,1.775
-0.0012382605278278063,1.776
-0.0014767406133248287,1.777
-0.0013067486019670042,1.778
-0.0007740722384904097,1.779
1.4031158419521748e-05,1.78
0.0009011808463123985,1.781
0.0017152790797870475,1.782
0.0023213480530108214,1.783
0.0026513200921906535,1.784
0.0026962335882295936,1.785
0.00248595980878068,1.786
0.0020676293375632418,1.787
0.001483464467368504,1.788
0.0007656719676779971,1.789
-4.879775523516415e-05,1.79
-0.0008962174824378296,1.791
-0.0016670426882402062,1.792
-0.0022186639161743257,1.793
-0.0024287522512712045,1.794
-0.002244657095387188,1.795
-0.0016970703302525588,1.796
-0.0008914861227887231,1.797
1.0573812158861754e-05,1.798
0.0008319399233971483,1.799
0.001439447592137157,1.8
0.001782493893617597,1.801
0.0018790800665306777,1.802
0.001769308843015619,1.803
0.0014804571461167581,1.804
0.0010285094155099543,1.805
0.0004391526182868211,1.806
-0.00024765792416864236,1.807
-0.0009925143024666838,1.808
-0.0017597133925875683,1.809
-0.00249257152291724,1.81
-0.003092482809325661,1.811
-0.003437568237415709,1.812
-0.003425016637070212,1.813
-0.0030060226475223145,1.814
-0.002205105649273508,1.815
-0.0011189901060878328,1.816
0.00010967868137761857,1.817
0.0013304784220269,1.818
0.0024059684503998442,1.819
0.0032119343231612643,1.82
0.003651490244883954,1.821
0.0036830254489047653,1.822
0.0033222747655251316,1.823
0.0026236120255663147,1.824
0.001675128434022427,1.825
0.000606200409950722,1.826
-0.00041722817572519536,1.827
-0.0012240651704165499,1.828
-0.0016834605498653242,1.829
-0.0017363978499587477,1.83
-0.0013991117667554976,1.831
-0.0007449248598592416,1.832
0.00011410700857881927,1.833
0.0010357670803653393,1.834
0.0018624684142028642,1.835
0.002444262938472656,1.836
0.0026533599592322354,1.837
0.002399027874413054,1.838
0.0016543660689690128,1.839
0.0004809904027611092,1.84
-0.0009633419719205894,1.841
-0.0024467728353063907,1.842
-0.003718046544949925,1.843
-0.004571547383980767,1.844
-0.004890493512748616,1.845
-0.004653271849586891,1.846
-0.0039123552629664335,1.847
-0.002764307609283656,1.848
-0.001330803719656389,1.849
0.00024225328332821834,1.85
0.0017906661981018787,1.851
0.003156681849882041,1.852
0.004207033056096546,1.853
0.004837344383237494,1.854
0.004982537053208531,1.855
0.004620982361248031,1.856
0.0037632858821772743,1.857
0.0024584050034435786,1.858
0.0008281369791022855,1.859
-0.0009165946410860193,1.86
-0.002511783763989916,1.861
-0.003700649851950211,1.862
-0.004288556111840084,1.863
-0.004191363405220685,1.864
-0.0034647337216495446,1.865
-0.002294236801334872,1.866
-0.0009478142498354965,1.867
0.0002862492303272818,1.868
0.001157252708845064,1.869
0.0015012606727308891,1.87
0.0012791023576068173,1.871
0.0005945886874987676,1.872
-0.00033310343472780547,1.873
-0.0012487586123076427,1.874
-0.0019421403276902276,1.875
-0.0022851017096247195,1.876
-0.002227824175402457,1.877
-0.0017764351337708438,1.878
-0.0009664228296170119,1.879
0.0001553729726354297,1.88
0.0015193947789203367,1.881
0.0030000728408695544,1.882
0.004412297155813324,1.883
0.005557183553589647,1.884
0.0062690270942115205,1.885
0.006427920988363829,1.886
0.00595978014546433,1.887
0.004855587394738624,1.888
0.0032010783298305,1.889
0.001174642137547094,1.89
-0.0009910955928729996,1.891
-0.00304368567964319,1.892
-0.004737163314067058,1.893
-0.005870529152240769,1.894
-0.006326494254088535,1.895
-0.006094025837267652,1.896
-0.005271673478472165,1.897
-0.004043643372646177,1.898
-0.002627020217325027,1.899
-0.0012171813277472492,1.9
3.6638541923459995e-05,1.901
0.0010338277066846973,1.902
0.0017191468679353928,1.903
0.0020638995138451614,1.904
0.0020512611670466465,1.905
0.001701215521788921,1.906
0.0011054850142005349,1.907
0.0004154895793772466,1.908
-0.0002130673976749432,1.909
-0.0006701405070063465,1.91
-0.0009077604599865073,1.911
-0.0009271744849253963,1.912
-0.0007527565231806552,1.913
-0.0004106110737396676,1.914
7.596917591226733e-05,1.915
0.0006760218085233033,1.916
0.0013393851358026354,1.917
0.001992781504831395,1.918
0.0025358396928333725,1.919
0.002837399116714984,1.92
0.002760892475230963,1.921
0.002228778918552461,1.922
0.0012791359691741713,1.923
6.722770939535385e-05,1.924
-0.0011805256860836116,1.925
-0.002228213706723401,1.926
-0.0028945845324664012,1.927
-0.003103644504603541,1.928
-0.0028833165882050727,1.929
-0.0023148672108333134,1.93
-0.0014917101330138194,1.931
-0.0005087264603431508,1.932
0.0005428889647739457,1.933
0.0015800626130180867,1.934
0.0025226830697113282,1.935
0.003282957954559092,1.936
0.0037601050591712392,1.937
0.003852194772194819,1.938
0.0034918307230525068,1.939
0.0026813091398151683,1.94
0.0014926185516431127,1.941
4.8379672910523925e-05,1.942
-0.001482751679755921,1.943
-0.0028925523908588254,1.944
-0.003970706191630109,1.945
-0.004556243833477899,1.946
-0.004572952321340949,1.947
-0.004044249035521303,1.948
-0.0030836894186434365,1.949
-0.0018621534842603522,1.95
-0.0005738860071809776,1.951
0.0005908120004901187,1.952
0.0014750276167769018,1.953
0.0019811742255899266,1.954
0.0020864447166647157,1.955
0.001842957506112851,1.956
0.0013574474584557837,1.957
0.0007603114229225266,1.958
0.0001701926608861216,1.959
-0.0003337319438316776,1.96
-0.0007038155570772576,1.961
-0.0008986726845438529,1.962
-0.0008852666564430049,1.963
-0.0006553485065271854,1.964
-0.00022305522910804511,1.965
0.0003858757329755664,1.966
0.0011263466824840147,1.967
0.0019092987824679412,1.968
0.00259115865591719,1.969
0.0030010932452943172,1.97
0.002998852012494774,1.971
0.002530451240023505,1.972
0.0016500288464768387,1.973
0.0004989240070066971,1.974
-0.0007419664223626019,1.975
-0.0018924982531382526,1.976
-0.0027940701214949977,1.977
-0.0033251832205902325,1.978
-0.0034130552642312956,1.979
-0.0030452116077512833,1.98
-0.0022837549961558646,1.981
-0.0012580852565932585,1.982
-0.00012919222446776803,1.983
0.0009487630118434102,1.984
0.0018514112402578627,1.985
0.002485618314514053,1.986
0.002780112888794571,1.987
0.0026952725325257274,1.988
0.002249324937185956,1.989
0.0015274841008315904,1.99
0.0006663222922389737,1.991
-0.0001795519420718311,1.992
-0.0008793004575258441,1.993
-0.0013527471955487394,1.994
-0.0015713472737504317,1.995
-0.0015489604215806914,1.996
-0.001331963494337731,1.997
-0.0009813382980568552,1.998
-0.0005512995759408034,1.999
-8.150342300105947e-05,2.0
0.0003908663709353613,2.001
0.000815487677548231,2.002
0.0011292213640094811,2.003
0.0012644590333031347,2.004
0.001155849988325692,2.005
0.0007568860415899655,2.006
6.964739608893068e-05,2.007
-0.0008312072337916236,2.008
-0.0018006449247504705,2.009
-0.0026511143000325977,2.01
-0.003195338545986655,2.011
-0.0032983602534971007,2.012
-0.00291971803200438,2.013
-0.0021173765205816306,2.014
-0.0010147911968144234,2.015
0.00024038708794871038,2.016
0.0015079481413531445,2.017
0.00266809419672501,2.018
0.0036107414102162735,2.019
0.004225836470826011,2.02
0.004422728387235278,2.021
0.004161126649474804,2.022
0.003463923994894396,2.023
0.002410064579948953,2.024
0.0011195500263379383,2.025
-0.00025411103704839756,2.026
-0.0015311327416617623,2.027
-0.0025348629257603917,2.028
-0.003126231032982405,2.029
-0.003224708341178733,2.03
-0.002833707964117197,2.031
-0.0020599863892809397,2.032
-0.0010880054091679016,2.033
-0.00011444856561651622,2.034
0.000706857725219684,2.035
0.0012776257674987047,2.036
0.0015409882876972888,2.037
0.001475134421835143,2.038
0.0011051270945284211,2.039
0.0005035766226246628,2.04
-0.00023665515333913176,2.041
-0.0010196208456530844,2.042
-0.001731150646515543,2.043
-0.002233699022188377,2.044
-0.002405893292592744,2.045
-0.0021974908355346565,2.046
-0.0016479158461522546,2.047
-0.0008602095243136209,2.048
4.156386064919413e-05,2.049
0.0009483722113967682,2.05
0.0017760806426579978,2.051
0.0024467506582900905,2.052
0.002878105948609412,2.053
0.003002349054378721,2.054
0.002781441184162274,2.055
0.0022034889801289315,2.056
0.001292274318546741,2.057
0.00013709476927393683,2.058
-0.0010953130577953981,2.059
-0.0021919987180197185,2.06
-0.002948226321214801,2.061
-0.0032157289343364517,2.062
-0.0029358192541093717,2.063
-0.002155206434064308,2.064
-0.0010197368390071713,2.065
0.0002591857875535577,2.066
0.0014592588406512378,2.067
0.0023987975110952406,2.068
0.0029641810515684346,2.069
0.0031123532089030346,2.07
0.00285864824887994,2.071
0.0022582189438752325,2.072
0.0013887093836844285,2.073
0.0003466010433060785,2.074
-0.0007441490603339222,2.075
-0.0017359959128821509,2.076
-0.0024842234273122583,2.077
-0.002878183932130117,2.078
-0.0028620858919097174,2.079
-0.0024423686605700196,2.08
-0.0016846210041476196,2.081
-0.0007023332561237085,2.082
0.00036113775349288525,2.083
0.0013568847185480043,2.084
0.0021534684803962006,2.085
0.0026422873195634023,2.086
0.0027423441606853,2.087
0.0024337345628627546,2.088
0.0017870283162198309,2.089
0.0009417062819807375,2.09
5.059632639563899e-05,2.091
-0.0007591249882765959,2.092
-0.0013917105697006326,2.093
-0.0017854177800684001,2.094
-0.0019290738298399107,2.095
-0.0018687616120826006,2.096
-0.0016832626494922406,2.097
-0.0014403817491919044,2.098
-0.001167754274234604,2.099
-0.0008567553212765757,2.1
-0.0004874590432104864,2.101
-5.7221051677183555e-05,2.102
0.00039785658567435334,2.103
0.0008002884101434626,2.104
0.0010540087900814854,2.105
0.0010831174252119399,2.106
0.0008603676341401719,2.107
0.0004143121235683768,2.108
-0.00017340044076052556,2.109
-0.0007813719261263935,2.11
-0.0012741703740715433,2.111
-0.0015327446989050974,2.112
-0.0014828797918697008,2.113
-0.0011076520822108958,2.114
-0.0004428467352921084,2.115
0.00042569014811989737,2.116
0.001364104828376331,2.117
0.00221110188926416,2.118
0.002815135506090168,2.119
0.0030708686095903856,2.12
0.002944149461122494,2.121
0.002480038737438743,2.122
0.0017842899483158081,2.123
0.000977680407414608,2.124
0.000154181831440526,2.125
-0.0006220257022447117,2.126
-0.0012887022874440567,2.127
-0.0017673592358026975,2.128
-0.0019755239482607536,2.129
-0.0018588042745224065,2.13
-0.0014285481011860686,2.131
-0.000782815023062332,2.132
-8.13009569490713e-05,2.133
0.0005173668994662632,2.134
0.0009074733827305737,2.135
0.0010465891623605528,2.136
0.0009393445175792315,2.137
0.0006231554752904003,2.138
0.00016170206254832262,2.139
-0.0003658452526862755,2.14
-0.0008789266713261268,2.141
-0.0013005196102188004,2.142
-0.0015598884659617349,2.143
-0.0016085520911219401,2.144
-0.0014365744250072947,2.145
-0.0010683414786951952,2.146
-0.0005484589163028504,2.147
6.050234233675031e-05,2.148
0.0006736563682912295,2.149
0.001196629919075941,2.15
0.0015553763501832618,2.151
0.0017101039834099194,2.152
0.0016404287151963732,2.153
0.001332820306988595,2.154
0.0007923759194324038,2.155
6.142786053963915e-05,2.156
-0.0007723728257191801,2.157
-0.001581506968797305,2.158
-0.002226101734309211,2.159
-0.0025969889857127082,2.16
-0.002641999919565604,2.161
-0.0023615449515089057,2.162
-0.001794887460500996,2.163
-0.0010120897397785877,2.164
-0.00010435638950990777,2.165
0.0008338342363228847,2.166
0.0017239253038783388,2.167
0.002505380116279009,2.168
0.0031147985977548064,2.169
0.003466138450488035,2.17
0.003465818729434399,2.171
0.0030636782873565967,2.172
0.0022935033774498046,2.173
0.0012683499436962793,2.174
0.00015062225804462394,2.175
-0.0008770506442735141,2.176
-0.001643414327376617,2.177
-0.002024264199022121,2.178
-0.0019691801872304755,2.179
-0.0015080718985593033,2.18
-0.0007404804682637438,2.181
0.00017975989097380026,2.182
0.0010658084992191356,2.183
0.0017321978236359773,2.184
0.0020348672796870622,2.185
0.0018974192416723393,2.186
0.0013072503169052386,2.187
0.00030102798454005293,2.188
-0.0010247328668349996,2.189
-0.002491143381068962,2.19
-0.003851065639647428,2.191
-0.00484999782823321,2.192
-0.005292504086593745,2.193
-0.005078111362369657,2.194
-0.0042088274862541785,2.195
-0.002789295543704144,2.196
-0.0010205028729081587,2.197
0.0008381507537430514,2.198
0.002534885920142961,2.199
0.0038763525835410462,2.2
0.004743085866875565,2.201
0.0050837904667781165,2.202
0.004902364937966894,2.203
0.00424484972227825,2.204
0.003192247850637668,2.205
0.001862021375510417,2.206
0.000408541511062927,2.207
-0.0009905091854725536,2.208
-0.002153339825750611,2.209
-0.0029117081705139357,2.21
-0.0031473803360864624,2.211
-0.0028471507931276487,2.212
-0.0021206817919154387,2.213
-0.0011427828535514697,2.214
-6.963803495337422e-05,2.215
0.0009991534414724949,2.216
0.002001324623488603,2.217
0.0028688742137308564,2.218
0.003501989313616566,2.219
0.0037776055762096675,2.22
0.0035823622921076987,2.221
0.0028631142716223357,2.222
0.0016740657526534148,2.223
0.00017853780909597695,2.224
-0.0013927735991215654,2.225
-0.0027925599313558627,2.226
-0.0038061960722075012,2.227
-0.004292840652257482,2.228
-0.004206051339811806,2.229
-0.003594387880809327,2.23
-0.002590330323894597,2.231
-0.001392938327342533,2.232
-0.0002371117164040333,2.233
0.0006590504163936017,2.234
0.00115223277589871,2.235
0.0012049949141006537,2.236
0.0008785106354196134,2.237
0.00029727381915629393,2.238
-0.00039270823975922524,2.239
-0.001046688872170517,2.24
-0.0015290384377357256,2.241
-0.0017303148780091092,2.242
-0.001591593844821256,2.243
-0.0011148140505585998,2.244
-0.0003574085975814506,2.245
0.0005743489456094373,2.246
0.0015366200299883218,2.247
0.0023768555172820173,2.248
0.0029787532941416193,2.249
0.003299784860781903,2.25
0.0033686462743900835,2.251
0.0032444853615960553,2.252
0.0029709250392275085,2.253
0.002551155162283691,2.254
0.001959476093199603,2.255
0.0011745879533571347,2.256
0.00020273652275019553,2.257
-0.0009065640554052954,2.258
-0.002047456481561074,2.259
-0.003063216764066687,2.26
-0.0037730803647003,2.261
-0.0040204487102747525,2.262
-0.0037318087899707248,2.263
-0.0029496618902518598,2.264
-0.0018131495567223176,2.265
-0.0005014441321326255,2.266
0.0008096909412997361,2.267
0.001953610156502522,2.268
0.002774377963271636,2.269
0.003154255593076963,2.27
0.003047540665486277,2.271
0.00248429652340811,2.272
0.0015510666312345957,2.273
0.0003821552965787362,2.274
-0.0008412140601392371,2.275
-0.0019125297819450186,2.276
-0.002648792849784714,2.277
-0.002932144821491213,2.278
-0.0027204290068721685,2.279
-0.002049983835202885,2.28
-0.0010401388478415991,2.281
0.00012691482713531185,2.282
0.0012577422215601102,2.283
0.002196372860754458,2.284
0.0028356902009687647,2.285
0.003099547165785852,2.286
0.002933574609975497,2.287
0.002326974893603784,2.288
0.0013376936887560603,2.289
8.780857153382258e-05,2.29
-0.0012521230294294102,2.291
-0.0024711629727361723,2.292
-0.0033374604014038264,2.293
-0.0036499897400675742,2.294
-0.0033200051382575356,2.295
-0.002432471218112154,2.296
-0.001220221110214984,2.297
4.282473378898965e-05,2.298
0.0011429698395011194,2.299
0.0019605108008046296,2.3
0.0024498032197830897,2.301
0.002603458654797217,2.302
0.0024315483460812864,2.303
0.0019676179768607326,2.304
0.00127914846053375,2.305
0.00046595479469519895,2.306
-0.00035064053907907195,2.307
-0.0010544121785842498,2.308
-0.0015689944104700891,2.309
-0.0018674185745022728,2.31
-0.0019485299755987169,2.311
-0.0018186411715973893,2.312
-0.0015078987438013718,2.313
-0.0010839177516823516,2.314
-0.0006139419193908823,2.315
-0.00012056259187802352,2.316
0.00040217126639375064,2.317
0.0009471383923340378,2.318
0.0014798933835710728,2.319
0.0019403690403888272,2.32
0.0022503577852704356,2.321
0.002332070316031963,2.322
0.0021278279368826467,2.323
0.0016162178006998572,2.324
0.0008311861600482455,2.325
-0.00012002903372284949,2.326
-0.00105859084121091,2.327
-0.0017726527452981038,2.328
-0.002088707477694991,2.329
-0.0019397140019712165,2.33
-0.0013871226775106263,2.331
-0.0005886992451785495,2.332
0.00026214803774736824,2.333
0.0009933828883264817,2.334
0.001485580425179995,2.335
0.0016800277378119773,2.336
0.0015795742113414093,2.337
0.0012324708684738474,2.338
0.0006909478670784041,2.339
-1.0488768294509794e-05,2.34
-0.000824037177514314,2.341
-0.001647758172284202,2.342
-0.002328766561411682,2.343
-0.0027061688162148215,2.344
-0.002653205180786028,2.345
-0.002103683805774242,2.346
-0.0010802138718846342,2.347
0.000280205590398344,2.348
0.0017408779688581843,2.349
0.003027969124639224,2.35
0.003900342525836581,2.351
0.00419428675919901,2.352
0.003843488115920935,2.353
0.0028882018742090146,2.354
0.0014745412733665226,2.355
-0.0001678261930761521,2.356
-0.0017736423064322858,2.357
-0.003111962999498776,2.358
-0.004048613415147515,2.359
-0.0045547744631088015,2.36
-0.00466140204059195,2.361
-0.004402456938142274,2.362
-0.0037784481062929642,2.363
-0.002760345710166012,2.364
-0.0013500589613490055,2.365
0.000333520542092436,2.366
0.002029019274615134,2.367
0.003413813695299225,2.368
0.004228275701903877,2.369
0.004358236263692246,2.37
0.003852916334388203,2.371
0.0028805084300566135,2.372
0.0016479819655800735,2.373
0.0003486774094610055,2.374
-0.0008370548940132171,2.375
-0.0017396538129963713,2.376
-0.002234124795615988,2.377
-0.002271727486681032,2.378
-0.0018758651012493216,2.379
-0.0011184285768834903,2.38
-9.534809798094349e-05,2.381
0.001083497129865589,2.382
0.0022782340530120015,2.383
0.0033008142318849414,2.384
0.003933942106205812,2.385
0.0039926939433594525,2.386
0.003398189558120102,2.387
0.002219465730661198,2.388
0.00065713412666874,2.389
-0.0010152379908717698,2.39
-0.0025164704660698193,2.391
-0.0036108171677417355,2.392
-0.004145562024304751,2.393
-0.004074744883512217,2.394
-0.003467021340683721,2.395
-0.0024879775764001634,2.396
-0.0013514646445770388,2.397
-0.0002575135967911405,2.398
0.000650755554285455,2.399
0.0012974398515215443,2.4
0.0016574006186524204,2.401
0.001730028286520036,2.402
0.0015306871052644137,2.403
0.0011036067944300788,2.404
0.0005267701896444528,2.405
-0.0001044467780090204,2.406
-0.0006898393083859737,2.407
-0.0011242441158028575,2.408
-0.00132131922655941,2.409
-0.001260046922027298,2.41
-0.0009963747705231422,2.411
-0.0006288857949459845,2.412
-0.0002534834151027149,2.413
7.274561773570029e-05,2.414
0.0003448077469276943,2.415
0.0005942882324422939,2.416
0.0008570342641904367,2.417
0.0011446413921608447,2.418
0.0014316855418271312,2.419
0.00165230777107558,2.42
0.001713894540513915,2.421
0.0015384170751842345,2.422
0.001095129347780794,2.423
0.0004040775596572661,2.424
-0.0004541670696134542,2.425
-0.001328639801245213,2.426
-0.002030172482413228,2.427
-0.00239063254502384,2.428
-0.0023071618705610866,2.429
-0.0017608344221180783,2.43
-0.0008224970863833154,2.431
0.0003540625631215112,2.432
0.0015655214866885836,2.433
0.0026039419630209245,2.434
0.0032913200454856707,2.435
0.003511464830668461,2.436
0.0032351199940967214,2.437
0.0025154562123569767,2.438
0.0014567616711021205,2.439
0.00018310110997591783,2.44
-0.001170815069067977,2.441
-0.002447269335172786,2.442
-0.0034641125944995747,2.443
-0.004051630104532631,2.444
-0.00410578356498548,2.445
-0.0036198775389033795,2.446
-0.002687098099396153,2.447
-0.0014773121743088837,2.448
-0.00019527088242326737,2.449
0.0009548661646904982,2.45
0.0017912813360929916,2.451
0.0021876048527357025,2.452
0.002120664877364026,2.453
0.0016851215883317637,2.454
0.0010418850424770347,2.455
0.0003452942694812094,2.456
-0.000286967959667825,2.457
-0.0007641530457335157,2.458
-0.0010147839925756432,2.459
-0.0009940915571187918,2.46
-0.0006941478515156383,2.461
-0.0001491168345095778,2.462
0.000562484119152542,2.463
0.0013255133304780479,2.464
0.002017389102686066,2.465
0.002539571223048875,2.466
0.002828676188800739,2.467
0.00285756206232483,2.468
0.0026297847816955113,2.469
0.0021611112544878933,2.47
0.0014647976660874416,2.471
0.0005536360861946067,2.472
-0.0005426132262648567,2.473
-0.0017516826658506423,2.474
-0.002948783805658569,2.475
-0.003972784077472804,2.476
-0.0046560683160063844,2.477
-0.0048636386660893816,2.478
-0.004533067791466398,2.479
-0.003692797354169274,2.48
-0.002450808011298055,2.481
-0.0009644459574235973,2.482
0.0005940380271114657,2.483
0.0020636114771511653,2.484
0.0033036797388539384,2.485
0.004191107208345198,2.486
0.00462734445306773,2.487
0.0045612192308836135,2.488
0.0040074218504779,2.489
0.003052189891505916,2.49
0.001843559418999099,2.491
0.0005600850813887014,2.492
-0.000626427589446401,2.493
-0.0015731849962525124,2.494
-0.0021813820093514423,2.495
-0.002417179289544668,2.496
-0.002320960814310347,2.497
-0.0019793854002225974,2.498
-0.0014772493622280196,2.499
-0.000874170704822265,2.5
-0.0002230140640911548,2.501
0.0003964714955323891,2.502
0.000876088517550626,2.503
0.001120127026012306,2.504
0.0010797094740326808,2.505
0.0007556970296545344,2.506
0.0002042508978557869,2.507
-0.0004492005857651548,2.508
-0.0010327563718902462,2.509
-0.0013981923257672937,2.51
-0.0014891306538096134,2.511
-0.0013584115045828292,2.512
-0.0011250973520439366,2.513
-0.0009048077762406039,2.514
-0.0007620655866340792,2.515
-0.0006968178093404722,2.516
-0.0006499668307407317,2.517
-0.0005305229627640043,2.518
-0.0002696332819951776,2.519
0.00012817124711997713,2.52
0.0005814836838034693,2.521
0.0009807400734297188,2.522
0.001246989075386023,2.523
0.001362109365274692,2.524
0.0013636722354183502,2.525
0.0013202874988944508,2.526
0.0013045081080653319,2.527
0.0013663546633112507,2.528
0.0015090869116992658,2.529
0.0016831255908342062,2.53
0.001813117793427436,2.531
0.0018414129637114745,2.532
0.0017470070061025636,2.533
0.001526713880867638,2.534
0.0011707665734077266,2.535
0.0006651313671684155,2.536
1.4361060913733466e-05,2.537
-0.0007399675816011359,2.538
-0.0015197475372506002,2.539
-0.002227703358996847,2.54
-0.0027681034351556538,2.541
-0.0030672876006037323,2.542
-0.003089740707490626,2.543
-0.002835723286213802,2.544
-0.002331371823958769,2.545
-0.0016317489479832459,2.546
-0.0008286935525826505,2.547
-3.91501810659528e-05,2.548
0.000630051267294248,2.549
0.0011118033153019846,2.55
0.0013818226003514708,2.551
0.0014494779208372264,2.552
0.0013493297188503196,2.553
0.0011231350361780193,2.554
0.0007916928273193149,2.555
0.0003493480297075151,2.556
-0.00019731398448136824,2.557
-0.0007856517731392081,2.558
-0.0013008463678838148,2.559
-0.0016206853236878829,2.56
-0.0016571630979876851,2.561
-0.0013753033007344272,2.562
-0.0007950916200245004,2.563
1.4794636981644769e-05,2.564
0.0009437208219889081,2.565
0.0018536520213255875,2.566
0.0026146220058719293,2.567
0.003134445203164467,2.568
0.0033502273748187306,2.569
0.003209236247801498,2.57
0.0026748935770111726,2.571
0.0017549712570238264,2.572
0.0005326023770887619,2.573
-0.0008297560786469128,2.574
-0.0021171523739523237,2.575
-0.0030988573659509965,2.576
-0.003582942942162025,2.577
-0.003484954693902367,2.578
-0.0028571646976378122,2.579
-0.001848699515741462,2.58
-0.0006388816443287912,2.581
0.000602364776874448,2.582
0.001720487668101714,2.583
0.002574402959651033,2.584
0.0030445399577621406,2.585
0.0030508837954760443,2.586
0.00258205295980917,2.587
0.0017205613448607244,2.588
0.000626165314864206,2.589
-0.000519363678102649,2.59
-0.0015549905150962064,2.591
-0.002350370803276333,2.592
-0.0028063228442334782,2.593
-0.0028685214644068834,2.594
-0.0025564844965934377,2.595
-0.0019753609906295834,2.596
-0.0012750997860132367,2.597
-0.000582175411529358,2.598
4.147523283776701e-05,2.599
0.0005893578908892979,2.6
0.0010649696267495954,2.601
0.0014437923962809024,2.602
0.0016766839262374496,2.603
0.0017236412754615747,2.604
0.0015837738065589788,2.605
0.001295984000071472,2.606
0.0009159483713714369,2.607
0.0004943622115420228,2.608
7.10509994000723e-05,2.609
-0.0003155636902792804,2.61
-0.0006219997803759011,2.611
-0.0008143459698759102,2.612
-0.0008908813416119176,2.613
-0.0008831141164462728,2.614
-0.0008293331949089895,2.615
-0.0007506215421913932,2.616
-0.0006524197158884962,2.617
-0.0005367830465370145,2.618
-0.00040259212721510397,2.619
-0.00023159953778152073,2.62
1.2579000130421474e-05,2.621
0.00035389099004607576,2.622
0.0007727419919294991,2.623
0.0012058524826859976,2.624
0.001578112381383802,2.625
0.0018484275362975317,2.626
0.0020249017173332613,2.627
0.0021314196417954556,2.628
0.002173754058761269,2.629
0.002137997017428625,2.63
0.0019897612318265016,2.631
0.0016604759551725882,2.632
0.0010646072606231754,2.633
0.00016027979607355117,2.634
-0.000998650289920189,2.635
-0.0022634188971907884,2.636
-0.003440951885425882,2.637
-0.00435406220721189,2.638
-0.00486510272281766,2.639
-0.0048577032816117935,2.64
-0.0042253949291223775,2.641
-0.002910048267999781,2.642
-0.0009681707905394486,2.643
0.0013827442758706614,2.644
0.003755842570651451,2.645
0.005631469072116197,2.646
0.006453463406004869,2.647
0.005780546598851724,2.648
0.003457309453316577,2.649
-0.0002511276122433403,2.65
-0.004635210084922584,2.651
-0.00868079535068002,2.652
-0.011345021755707717,2.653
-0.011865286031594847,2.654
-0.009982956980599492,2.655
-0.006016149280469871,2.656
-0.0007876366748959602,2.657
0.004583155176269331,2.658
0.009017808394966614,2.659
0.011815658622618004,2.66
0.012786775968925279,2.661
0.012151036695771798,2.662
0.010343860633471052,2.663
0.007852026057199682,2.664
0.005124275454882421,2.665
0.002527478609543117,2.666
0.00029962199720264064,2.667
-0.0014839344836976092,2.668
-0.0028821334689686185,2.669
-0.00400397652140954,2.67
-0.004925643100928291,2.671
-0.005651870135315934,2.672
-0.006123697700378742,2.673
-0.006259244622665777,2.674
-0.00600672578708975,2.675
-0.005371329629939607,2.676
-0.004401221276165262,2.677
-0.003163445768237477,2.678
-0.0017322522553041113,2.679
-0.0001913845210185281,2.68
0.001351382269134004,2.681
0.002759089255421554,2.682
0.003887176341025197,2.683
0.004610900423306614,2.684
0.004837848886653104,2.685
0.004517947419075952,2.686
0.0036630849816216772,2.687
0.002362980096075097,2.688
0.000790328207237411,2.689
-0.0008077989098333924,2.69
-0.002159333350323398,2.691
-0.0030509271186499073,2.692
-0.003386712959788577,2.693
-0.0031957916529615116,2.694
-0.0026099971874350716,2.695
-0.0018237950796874407,2.696
-0.0010383525884740724,2.697
-0.00040643560327423614,2.698
4.9667500181485325e-06,2.699
0.0002224369971954869,2.7
0.00033151184992732724,2.701
0.00041545143362683784,2.702
0.0005208362739882979,2.703
0.0006746107927168957,2.704
0.0008990562409524509,2.705
0.001177638830315751,2.706
0.001423895616511604,2.707
0.0015179201082807267,2.708
0.0013824388826064566,2.709
0.0010310874755381744,2.71
0.0005593092476355005,2.711
9.486569550159111e-05,2.712
-0.0002517435657210928,2.713
-0.00041145906341721406,2.714
-0.00036442422303339776,2.715
-0.0001445872284908808,2.716
0.00017224846068406732,2.717
0.0004992910786712251,2.718
0.0007594404458941788,2.719
0.0008913531919107094,2.72
0.0008611571006672362,2.721
0.0006746587176465278,2.722
0.00037524519877891847,2.723
3.09111546193298e-05,2.724
-0.0002830337469460627,2.725
-0.0005040189012782806,2.726
-0.000599598880601198,2.727
-0.0005776999807944274,2.728
-0.0004856918083534317,2.729
-0.00039225058465746954,2.73
-0.0003595790533485277,2.731
-0.0004193174523137516,2.732
-0.0005625542752258492,2.733
-0.0007518362815474583,2.734
-0.0009373921598530727,2.735
-0.0010514113748512363,2.736
-0.0009948509024054052,2.737
-0.0006569552511098353,2.738
2.7950301759868316e-05,2.739
0.0010260692561742952,2.74
0.002186413873744755,2.741
0.0032684072485725294,2.742
0.0040061884352105255,2.743
0.004179138583935089,2.744
0.0036560934779414013,2.745
0.0024178687978937134,2.746
0.0005792130607502252,2.747
-0.0016076441136808766,2.748
-0.0038007523093478587,2.749
-0.005659721455927923,2.75
-0.006945322968900558,2.751
-0.007585513747708958,2.752
-0.007670261654378296,2.753
-0.0073654259921314465,2.754
-0.006770732254453578,2.755
-0.0058095658302998775,2.756
-0.004264983237026929,2.757
-0.00195458914913768,2.758
0.001094200893777619,2.759
0.004582698683199013,2.76
0.008011709152141912,2.761
0.010830272883643573,2.762
0.01257906260213108,2.763
0.012992957834502581,2.764
0.012065916099953266,2.765
0.010041527970571949,2.766
0.007316915199820934,2.767
0.004319679393697993,2.768
0.0014021191206061837,2.769
-0.0012192070278885783,2.77
-0.003449890751088549,2.771
-0.005255533909875197,2.772
-0.006607901819611986,2.773
-0.007465570265795969,2.774
-0.007787366005133107,2.775
-0.007561341819706717,2.776
-0.006816598601081445,2.777
-0.005611461363701866,2.778
-0.004028834152277365,2.779
-0.002190418993879791,2.78
-0.0002695630372898356,2.781
0.001519416313663339,2.782
0.0029583126016468476,2.783
0.0038687129625811344,2.784
0.004146908395766029,2.785
0.003782978324157987,2.786
0.002855274303110711,2.787
0.001509950968559615,2.788
-5.64140442593331e-05,2.789
-0.0016147609832686837,2.79
-0.0029300449506721614,2.791
-0.003789228960098551,2.792
-0.004035142553808853,2.793
-0.003612518343342045,2.794
-0.0025957998809134136,2.795
-0.0011749707570276376,2.796
0.0003826689592750058,2.797
0.0017838426725734764,2.798
0.002777183983953709,2.799
0.0032172769332184034,2.8
0.0030909406294476146,2.801
0.0024971514918799595,2.802
0.0016042425079280142,2.803
0.0006043176485467187,2.804
-0.00032808430400665256,2.805
-0.0010576919789264728,2.806
-0.0014930413944640336,2.807
-0.0015961055515661367,2.808
-0.0013865110032942926,2.809
-0.0009141804550666898,2.81
-0.00022361912075733793,2.811
0.0006426920804005976,2.812
0.0016086627025890697,2.813
0.002547636406978549,2.814
0.003309018386745408,2.815
0.00376709272107525,2.816
0.003854320807215552,2.817
0.0035563074380889305,2.818
0.0028817534211560817,2.819
0.001849224093948135,2.82
0.0005127979030638273,2.821
-0.0009971067526859012,2.822
-0.0024608369129775457,2.823
-0.003607406952681278,2.824
-0.0041889211346920665,2.825
-0.004048803430641585,2.826
-0.003152247845273458,2.827
-0.0015964901840963418,2.828
0.0003842146334512107,2.829
0.002453809434029258,2.83
0.004251344762653375,2.831
0.005437682891968403,2.832
0.00569006713365934,2.833
0.0047402425595094565,2.834
0.0025276431680917306,2.835
-0.0006428967659628307,2.836
-0.0041376034596986005,2.837
-0.007252970208445999,2.838
-0.009509609675078615,2.839
-0.010773022593311258,2.84
-0.011137524780535596,2.841
-0.01069779054409495,2.842
-0.009418929831271912,2.843
-0.007194952716080722,2.844
-0.0040063207009503506,2.845
-4.9457882055561875e-05,2.846
0.004232487338280138,2.847
0.008237751415660598,2.848
0.011368972435333994,2.849
0.013183557776024214,2.85
0.013486056492784166,2.851
0.012366428917060955,2.852
0.010169182284771374,2.853
0.007375254266429705,2.854
0.004447777142659056,2.855
0.001729408178447859,2.856
-0.0005803392560415743,2.857
-0.0023949168602567794,2.858
-0.003687382948651614,2.859
-0.00444877578695376,2.86
-0.004686534808084288,2.861
-0.004444086018270654,2.862
-0.0038095240737279434,2.863
-0.0029173888642282444,2.864
-0.0019433415803058905,2.865
-0.0010739648251510995,2.866
-0.0004655504029103807,2.867
-0.0002151072597457766,2.868
-0.0003426008343271721,2.869
-0.0007939802594417038,2.87
-0.0014723384923940942,2.871
-0.0022664830128130507,2.872
-0.003052269301674845,2.873
-0.003684914921703554,2.874
-0.00401668080588972,2.875
-0.0039452836464658235,2.876
-0.003455474100312901,2.877
-0.0026189284237039677,2.878
-0.0015548410321121627,2.879
-0.0003779439367524305,2.88
0.0008344235770119033,2.881
0.0020405350621584663,2.882
0.003207176254686621,2.883
0.004282021790407146,2.884
0.005185849066129896,2.885
0.005820055936601557,2.886
0.00607150447106659,2.887
0.005816224307623565,2.888
0.004952290562825439,2.889
0.0034799468401424415,2.89
0.0015802988261000483,2.891
-0.0003935124029584505,2.892
-0.002034644109017368,2.893
-0.003035493710844797,2.894
-0.0032807739617322527,2.895
-0.0028451195260446515,2.896
-0.0019282155199912463,2.897
-0.0007801393452601707,2.898
0.000360467682573735,2.899
0.001303376674409552,2.9
0.0019041761187342068,2.901
0.0020517304790760678,2.902
0.001690100989408025,2.903
0.0008541041466188195,2.904
-0.00032696057880181637,2.905
-0.0016532765698908801,2.906
-0.0028858740161039945,2.907
-0.003792229611277146,2.908
-0.0042019082978243605,2.909
-0.004043448063174848,2.91
-0.00335811220032312,2.911
-0.0023045371891225355,2.912
-0.0011486615822578618,2.913
-0.00021800177824293044,2.914
0.00019288235186394796,2.915
-5.49618037372498e-05,2.916
-0.0008535270507430079,2.917
-0.001857057422374298,2.918
-0.002610657985902387,2.919
-0.0027347898510410064,2.92
-0.002070489382666439,2.921
-0.0007193397423549845,2.922
0.001025687933358215,2.923
0.0028124297948461255,2.924
0.004360219852543454,2.925
0.005518906677922745,2.926
0.006239202433220254,2.927
0.0065086319723885715,2.928
0.0063139581613687,2.929
0.005650365650241174,2.93
0.004541828606555047,2.931
0.0030412986158382493,2.932
0.0012358185983231246,2.933
-0.0007198874882885588,2.934
-0.00257877777238745,2.935
-0.004039600622010817,2.936
-0.004834365178298208,2.937
-0.00481422635940409,2.938
-0.00400987804953582,2.939
-0.0026450530720654717,2.94
-0.0010804946321920355,2.941
0.0002959159016103416,2.942
0.0011894865634367517,2.943
0.0014803666633751834,2.944
0.001227692624041997,2.945
0.0006150614475262326,2.946
-0.0001105085648291592,2.947
-0.0006958685571482864,2.948
-0.0009480822433872161,2.949
-0.0008017035800779962,2.95
-0.00035062567311429073,2.951
0.0001935311969180394,2.952
0.0005906722243329818,2.953
0.0006340160992743674,2.954
0.000157962957844525,2.955
-0.0009498107357457106,2.956
-0.0026648826590270538,2.957
-0.004706921531093057,2.958
-0.006522114198855545,2.959
-0.007457139470113764,2.96
-0.007045741883700825,2.961
-0.005211556569483804,2.962
-0.0022571913621854283,2.963
0.00128934422232256,2.964
0.004821177065979697,2.965
0.007764050391546088,2.966
0.009683802218733708,2.967
0.010356058215550381,2.968
0.009764529626390172,2.969
0.008066655217084086,2.97
0.00557117194712463,2.971
0.0027048130770326185,2.972
-6.738054233325801e-05,2.973
-0.002351741810421872,2.974
-0.0039184689625203885,2.975
-0.004723701929423125,2.976
-0.004852782865272963,2.977
-0.004455287778165806,2.978
-0.00371490984607929,2.979
-0.0028199258570624436,2.98
-0.0019276684028219629,2.981
-0.001152442581358438,2.982
-0.000568837853707455,2.983
-0.0002022037281810687,2.984
-6.737208687721722e-06,2.985
0.00014123645921553212,2.986
0.0004101574854578946,2.987
0.0009318373619436256,2.988
0.0017034046084140634,2.989
0.002558297382777766,2.99
0.0032523502066707025,2.991
0.0035903158006144946,2.992
0.0034896763086351163,2.993
0.0029702270754817794,2.994
0.0021169580453479484,2.995
0.001026910486496133,2.996
-0.0002601896523532375,2.997
-0.0017801847607096348,2.998
-0.0035628251276058377,2.999
-0.00552327146752892,3.0
-0.007416107959395242,3.001
-0.008862987957165214,3.002
-0.009443257837098493,3.003
-0.008839160148836865,3.004
-0.0069868030273946575,3.005
-0.004143464329556408,3.006
-0.0007999501329240855,3.007
0.002534926517538167,3.008
0.0055149194308365766,3.009
0.007950003375029463,3.01
0.009682261302139854,3.011
0.010537765153920532,3.012
0.01040727149541283,3.013
0.009349770221704896,3.014
0.007612099522704801,3.015
0.005549041992986309,3.016
0.0035061392147326563,3.017
0.0017267818915438914,3.018
0.00030725045771139007,3.019
-0.00079746398002428,3.02
-0.0017313242993596348,3.021
-0.002663233896615497,3.022
-0.0036821430798249255,3.023
-0.004720553712708706,3.024
-0.005581035456479865,3.025
-0.006040725008295935,3.026
-0.005941400900835758,3.027
-0.005230379457286359,3.028
-0.003968013945336308,3.029
-0.0023013432388862666,3.03
-0.00041577608949303676,3.031
0.001491147734970422,3.032
0.0031900698872955623,3.033
0.004387102374321202,3.034
0.0047453551326745325,3.035
0.003981561693695422,3.036
0.0019753508884695513,3.037
-0.0011618931871051153,3.038
-0.005057944686565076,3.039
-0.009104454476225978,3.04
-0.012560050888903792,3.041
-0.014705840177483847,3.042
-0.014988192424563309,3.043
-0.013111787241196462,3.044
-0.009091890876011177,3.045
-0.0032766574827924194,3.046
0.0036649646307114953,3.047
0.010804567870487334,3.048
0.017086881112237554,3.049
0.02153165262063797,3.05
0.02344910782720561,3.051
0.02259706703904804,3.052
0.01923928383656048,3.053
0.014077804994977365,3.054
0.00805488977277519,3.055
0.002090381012400999,3.056
-0.0031238295223299903,3.057
-0.0071852816089056195,3.058
-0.009925896897268518,3.059
-0.011329651548089173,3.06
-0.011475250275784308,3.061
-0.010510792785010721,3.062
-0.0086441678005499,3.063
-0.006138936163808576,3.064
-0.003324298186086369,3.065
-0.0006135697250391639,3.066
0.0014973780641895768,3.067
0.0025024348625610694,3.068
0.0020611998293364564,3.069
0.00020884709436027755,3.07
-0.0025513310635801464,3.071
-0.005385332873930324,3.072
-0.00745125638195805,3.073
-0.008213396373381792,3.074
-0.00758370993450959,3.075
-0.005862065358556475,3.076
-0.0035279775304458048,3.077
-0.0009977890252780201,3.078
0.0015035867432558606,3.079
0.0039008811790408634,3.08
0.006142632968434977,3.081
0.00810597705965107,3.082
0.009577516233855464,3.083
0.010297501611947951,3.084
0.010045783511280739,3.085
0.00873798804392468,3.086
0.006479859349662579,3.087
0.003557738370196274,3.088
0.0003943978318934443,3.089
-0.0025127330162460267,3.09
-0.004688238928553745,3.091
-0.005795247774520651,3.092
-0.005709436578519786,3.093
-0.0045230104444349065,3.094
-0.0025080906690713874,3.095
-6.519504501761995e-05,3.096
0.0023356397059838027,3.097
0.004216772883028974,3.098
0.0051510342580414255,3.099
0.004817333348740814,3.1
0.0030757329091451236,3.101
5.7794406192803754e-05,3.102
-0.0037828585897872725,3.103
-0.007713889402157111,3.104
-0.010874958842849655,3.105
-0.012506452151702693,3.106
-0.01218339907346324,3.107
-0.009958046537329214,3.108
-0.0063484858726736496,3.109
-0.0021892271522213113,3.11
0.0015735008991047445,3.111
0.004069075192445701,3.112
0.0046711244840249464,3.113
0.003185566363167924,3.114
5.554990622822109e-05,3.115
-0.0035520908645722787,3.116
-0.00600571518503904,3.117
-0.005847964549112859,3.118
-0.002487691924836993,3.119
0.003489726166496685,3.12
0.010556100458815347,3.121
0.016849683836139318,3.122
0.020857349729683564,3.123
0.021870345810441224,3.124
0.020041796234802532,3.125
0.016125245519442732,3.126
0.011116553618443041,3.127
0.005950477937924621,3.128
0.001288770577688271,3.129
-0.00258168297188058,3.13
-0.0057002792598789,3.131
-0.00825011682118657,3.132
-0.010354757455005128,3.133
-0.01197508751247678,3.134
-0.012930293186807579,3.135
-0.012995053573928128,3.136
-0.012038804667138536,3.137
-0.010157870970205181,3.138
-0.007710366645460774,3.139
-0.0052100593541622425,3.14
-0.0031238961536131696,3.141
-0.0016882703641621826,3.142
-0.0008667589058704964,3.143
-0.00046681597772819884,3.144
-0.00031802898820175327,3.145
-0.00038385095852858434,3.146
-0.0007357432945690387,3.147
-0.0014274228457343372,3.148
-0.0023696465216099046,3.149
-0.0032936743518768344,3.15
-0.0038151964572192463,3.151
-0.003531745246314847,3.152
-0.0021260743311103383,3.153
0.0004897973695748388,3.154
0.004040060105272579,3.155
0.007892989387623445,3.156
0.011230581902667005,3.157
0.013269673442498083,3.158
0.013457459204950614,3.159
0.011623559640762693,3.16
0.008055479385327557,3.161
0.003444947707478786,3.162
-0.001303683191389105,3.163
-0.005330620048707952,3.164
-0.00802280439981826,3.165
-0.009085961801769881,3.166
-0.008523763043017562,3.167
-0.006587517330657392,3.168
-0.003708140073172554,3.169
-0.0004082363868659346,3.17
0.002806435232852458,3.171
0.005550400995518489,3.172
0.007596328700858041,3.173
0.008820462223518085,3.174
0.009109056426144147,3.175
0.008336044857304508,3.176
0.006477243347941526,3.177
0.003782485909546168,3.178
0.0008150603806602401,3.179
-0.0017519939520165685,3.18
-0.003446771617877279,3.181
-0.004174047973811359,3.182
-0.004172310787118185,3.183
-0.0038423966238446293,3.184
-0.0035636537967134413,3.185
-0.003573245776804407,3.186
-0.003941105834097633,3.187
-0.004620748843783367,3.188
-0.005519800922897145,3.189
-0.006544387716844252,3.19
-0.007603875642259947,3.191
-0.008582983395437617,3.192
-0.009306433471852954,3.193
-0.009523373150441316,3.194
-0.008918965702468938,3.195
-0.007167182680834611,3.196
-0.004045173220547041,3.197
0.00041044000519664133,3.198
0.0057665819111037755,3.199
0.01116035006024902,3.2
0.015460900761187816,3.201
0.017637168952804812,3.202
0.01717813065597429,3.203
0.014327231275192868,3.204
0.009979006565060622,3.205
0.005286935738809607,3.206
0.001204094384313441,3.207
-0.0018122306119143837,3.208
-0.003826276670027239,3.209
-0.005219435258702791,3.21
-0.00640153254122344,3.211
-0.007589119732397902,3.212
-0.008705698459430701,3.213
-0.0094051499614366,3.214
-0.00921363167369977,3.215
-0.007714828851820837,3.216
-0.004688373233925663,3.217
-0.0002094976058834739,3.218
0.0052449412755555865,3.219
0.01071975123043986,3.22
0.014889921964725935,3.221
0.01647869349175066,3.222
0.014816009593656058,3.223
0.010155069596214582,3.224
0.0035402833608347193,3.225
-0.0036472765477029226,3.226
-0.010165918563916632,3.227
-0.015152850906953072,3.228
-0.018074457049501377,3.229
-0.01857289861934304,3.23
-0.01645889117063886,3.231
-0.011890542140710739,3.232
-0.005544970529232479,3.233
0.0014014156904084275,3.234
0.007544372561910248,3.235
0.011700854471463198,3.236
0.013305147503799538,3.237
0.012532056220830557,3.238
0.010125957246366524,3.239
0.007068570699601816,3.24
0.00425152794567362,3.241
0.0022690310972968324,3.242
0.0013549065915774358,3.243
0.0014250030515056949,3.244
0.002173255832809501,3.245
0.003179368932438805,3.246
0.003997203124686455,3.247
0.00423280218503488,3.248
0.0036215688496653103,3.249
0.002060067753008643,3.25
-0.00039749883624639964,3.251
-0.003526687736915548,3.252
-0.006959793894465607,3.253
-0.010285841961237257,3.254
-0.013114035115358948,3.255
-0.01504615642317693,3.256
-0.01566109573228276,3.257
-0.01461144837127937,3.258
-0.011797540714084192,3.259
-0.007488617091222822,3.26
-0.0023047218628718686,3.261
0.002904776988089383,3.262
0.0072343398695327195,3.263
0.00996466034581613,3.264
0.01081042801546238,3.265
0.009990385568177116,3.266
0.008067641135839628,3.267
0.005700118322517489,3.268
0.003438918630826655,3.269
0.0016323374080271296,3.27
0.00044598692661469344,3.271
-3.796389172601054e-05,3.272
0.0002494698714804128,3.273
0.0013113404792251004,3.274
0.0029715888619588665,3.275
0.004843577314508322,3.276
0.0064212958357694186,3.277
0.007232393265233081,3.278
0.006988759559957179,3.279
0.005685498259741949,3.28
0.0036011358155179874,3.281
0.0011993791276439369,3.282
-0.0010169109633124196,3.283
-0.00265029380967487,3.284
-0.0035144383444165946,3.285
-0.0036789700943805383,3.286
-0.0034475242146425793,3.287
-0.0032485596009352363,3.288
-0.003444058746118614,3.289
-0.0041654664934872585,3.29
-0.005288908967322806,3.291
-0.006520635551577217,3.292
-0.007503207926959987,3.293
-0.007909953417109889,3.294
-0.00752964290276475,3.295
-0.006322952746730352,3.296
-0.004418215063709285,3.297
-0.002057968040812456,3.298
0.0004575587998995053,3.299
0.002816557714619626,3.3
0.00473480805061838,3.301
0.005974697220574861,3.302
0.006353022797982352,3.303
0.0057756086521119675,3.304
0.004307901702741878,3.305
0.0022319292611431615,3.306
1.64543540945055e-05,3.307
-0.0018128233900492818,3.308
-0.0028377011560141046,3.309
-0.0028769763605221116,3.31
-0.0020245919405043867,3.311
-0.0005660685477379048,3.312
0.0011612115012960898,3.313
0.002849824904175383,3.314
0.004233436576167754,3.315
0.005111296456880914,3.316
0.0054069105714268035,3.317
0.0051822936868544086,3.318
0.004554842270594772,3.319
0.0035874822438538233,3.32
0.002280686143658655,3.321
0.0006617181750879414,3.322
-0.0011541523814052332,3.323
-0.0029632135160867464,3.324
-0.004490589175748722,3.325
-0.005441742991568211,3.326
-0.005592515462933821,3.327
-0.004856391566199019,3.328
-0.003299065817167959,3.329
-0.0011298716296428656,3.33
0.001294900355722823,3.331
0.003480802217140565,3.332
0.004900799200002531,3.333
0.005187575025273516,3.334
0.004264780842025253,3.335
0.002334170888113862,3.336
-0.00023496173216465866,3.337
-0.0030504820375570705,3.338
-0.005811191856386598,3.339
-0.008315920587323397,3.34
-0.010356042081309453,3.341
-0.01159458873381335,3.342
-0.011579585340572462,3.343
-0.00991350833208101,3.344
-0.006452159640041931,3.345
-0.0014327763472985816,3.346
0.004472255374120996,3.347
0.010190959248399373,3.348
0.01445526243482131,3.349
0.016185520869642374,3.35
0.014899728408753608,3.351
0.010972055148462972,3.352
0.005635637245908233,3.353
0.0006314591698280903,3.354
-0.0024407646766590324,3.355
-0.0027793033938309846,3.356
-0.0007369099100106913,3.357
0.002314314852519004,3.358
0.004652918319846906,3.359
0.005117373337507131,3.36
0.0036352942951461847,3.361
0.0010295796999932488,3.362
-0.0016040100336279913,3.363
-0.0034575615672327613,3.364
-0.004267033634277771,3.365
-0.004261709193518068,3.366
-0.003919304808251671,3.367
-0.003689243608268719,3.368
-0.0038202066208773322,3.369
-0.004331772707923608,3.37
-0.0050939092844631455,3.371
-0.005926230315861876,3.372
-0.006639269084004913,3.373
-0.0070323235901256715,3.374
-0.00690552616934502,3.375
-0.0061083688506833895,3.376
-0.00459514349181743,3.377
-0.0024472497505925975,3.378
0.00013727177242871502,3.379
0.0028722214993272964,3.38
0.005425356123863686,3.381
0.007462515442539074,3.382
0.008694762379696035,3.383
0.008952599775061066,3.384
0.008253387740785746,3.385
0.0067699239548318964,3.386
0.0047213090165199745,3.387
0.0023273014171175705,3.388
-0.00013958542811669405,3.389
-0.0023273276456824135,3.39
-0.0038735790216210997,3.391
-0.004502783648592529,3.392
-0.004096195058763727,3.393
-0.0027416034514040756,3.394
-0.0007360730393726953,3.395
0.0014885334726094717,3.396
0.0034683332969589484,3.397
0.004773129089393378,3.398
0.005053458047524706,3.399
0.004123182152620496,3.4
0.002062834460212869,3.401
-0.0007388813031036728,3.402
-0.0036760789900348216,3.403
-0.006112779758059443,3.404
-0.007544609602747938,3.405
-0.00769227717732509,3.406
-0.006565721062543486,3.407
-0.00447344289295215,3.408
-0.001925680581072321,3.409
0.0005403377769546146,3.41
0.0025448187908914542,3.411
0.003982434199842492,3.412
0.0049816660693033565,3.413
0.005693318759308414,3.414
0.006068097683575133,3.415
0.005863412224219287,3.416
0.004906880998853077,3.417
0.003333591955762898,3.418
0.0015572884128906268,3.419
4.491938299594954e-05,3.42
-0.0009037832375637238,3.421
-0.001249086690055604,3.422
-0.0011549645476169321,3.423
-0.0008529287566793648,3.424
-0.0005447238538107405,3.425
-0.00038454761766893277,3.426
-0.00048402225575279857,3.427
-0.0008922166967244864,3.428
-0.0015420788744484925,3.429
-0.0022145280335789516,3.43
-0.002606656712326113,3.431
-0.002501474579433692,3.432
-0.0019446272578794751,3.433
-0.0013229274552937448,3.434
-0.0012459910208494616,3.435
-0.002209920842555615,3.436
-0.00422794639459864,3.437
-0.006731587822454488,3.438
-0.008842940455256423,3.439
-0.00979669600131895,3.44
-0.009233060226820251,3.441
-0.007247204017593208,3.442
-0.004216942052993571,3.443
-0.0005408160599447735,3.444
0.003503185203967549,3.445
0.007664383569362785,3.446
0.01151232909790682,3.447
0.014372574721855718,3.448
0.015533309422916938,3.449
0.014569716850362489,3.45
0.011527437852797863,3.451
0.006913062102649836,3.452
0.0016352600140381638,3.453
-0.0030901585010861174,3.454
-0.006038677240657204,3.455
-0.0064408789741483745,3.456
-0.004287985886172333,3.457
-0.000305343801646795,3.458
0.004295787246182038,3.459
0.008162127361898388,3.46
0.010180632637400232,3.461
0.009796588077582739,3.462
0.0071196041211107584,3.463
0.002784519980332112,3.464
-0.0022904382733759904,3.465
-0.007107424129636882,3.466
-0.010760819048653173,3.467
-0.01262286094771577,3.468
-0.012505863276216993,3.469
-0.0107150427809155,3.47
-0.007929167514795261,3.471
-0.0049566307243445575,3.472
-0.0025083929778453315,3.473
-0.0010707655508597393,3.474
-0.000852204331138712,3.475
-0.0017695858882064896,3.476
-0.003484270938308093,3.477
-0.0054559702940375565,3.478
-0.0069577275038688454,3.479
-0.007144538684721993,3.48
-0.00532393528537388,3.481
-0.0013306275459861565,3.482
0.004267080147228632,3.483
0.01023642212723177,3.484
0.014961071719091504,3.485
0.0169259826933768,3.486
0.015360070317116111,3.487
0.010681677878630103,3.488
0.004332813708867832,3.489
-0.0018920148941765848,3.49
-0.006498170834521381,3.491
-0.00863195548719691,3.492
-0.008162790355744068,3.493
-0.005596772935142552,3.494
-0.0018987094025347674,3.495
0.0017352911220548197,3.496
0.004197200915882403,3.497
0.00482768793094582,3.498
0.00361626697024932,3.499
0.0011353728802743382,3.5
-0.0017036201452398994,3.501
-0.00394506220002644,3.502
-0.004840550493852873,3.503
-0.004019429512748701,3.504
-0.0016126565048747057,3.505
0.0016881979233840422,3.506
0.004771319730596723,3.507
0.006510882351115798,3.508
0.006244419416581765,3.509
0.003990046424124949,3.51
0.00030881175758000457,3.511
-0.003957163285213038,3.512
-0.007879733990288209,3.513
-0.010596845290069061,3.514
-0.011448027179714585,3.515
-0.010070359576858626,3.516
-0.006471766720557616,3.517
-0.001075430947812992,3.518
0.005322120034266647,3.519
0.011696500111760164,3.52
0.01698746104777973,3.521
0.02028970638174763,3.522
0.021040702890293705,3.523
0.019126195894337426,3.524
0.014794735126482904,3.525
0.008507769160284253,3.526
0.000956666039593564,3.527
-0.006828161648235297,3.528
-0.013567391907901915,3.529
-0.018084076892603128,3.53
-0.019692100172381086,3.531
-0.01840845783716038,3.532
-0.014927956368898659,3.533
-0.010396795932028564,3.534
-0.006043690985399073,3.535
-0.002762344169339654,3.536
-0.0008549014255284855,3.537
-0.00012929834076878707,3.538
-0.00025690906206386847,3.539
-0.0010726847557746251,3.54
-0.002602423409836617,3.541
-0.004843670328021913,3.542
-0.007482101011290696,3.543
-0.00976559356165044,3.544
-0.01067751815909917,3.545
-0.009331445556078403,3.546
-0.00533689436920335,3.547
0.0010147140032176318,3.548
0.00873518237568366,3.549
0.016326723199095155,3.55
0.022195401396061177,3.551
0.025131767411874586,3.552
0.02467507443184669,3.553
0.021268009720370438,3.554
0.01605215205547226,3.555
0.01031598955945455,3.556
0.004984090456488498,3.557
0.00046557660626462367,3.558
-0.00318187832043304,3.559
-0.0059660641049018,3.56
-0.00776240414330077,3.561
-0.008338510003690116,3.562
-0.007551753315950352,3.563
-0.005557915676117815,3.564
-0.002913624988542033,3.565
-0.0005327728862942279,3.566
0.0005343701644289511,3.567
-0.0005386018313425273,3.568
-0.004026017792411845,3.569
-0.009510219681236795,3.57
-0.01594861915812803,3.571
-0.021878085908831085,3.572
-0.025684085917237625,3.573
-0.02591006070881033,3.574
-0.021609628900358318,3.575
-0.012706769083803787,3.576
-0.00024468397086113,3.577
0.013673658567033509,3.578
0.02635677495930767,3.579
0.03524408104581199,3.58
0.038597070664810676,3.581
0.03598233893161635,3.582
0.028383575328524487,3.583
0.01781677752827881,3.584
0.006605134705099372,3.585
-0.0032990257236073417,3.586
-0.01067276645911238,3.587
-0.015062492096600554,3.588
-0.016642579817199403,3.589
-0.016000894726790962,3.59
-0.013910896668565601,3.591
-0.011130911973863256,3.592
-0.008266234546692237,3.593
-0.005725953391092264,3.594
-0.003773159203630337,3.595
-0.00260396141372771,3.596
-0.0023497070636630656,3.597
-0.0029778283967959516,3.598
-0.0042029769694554115,3.599
-0.0055106825891378655,3.6
-0.006286660638884234,3.601
-0.0059996176671560245,3.602
-0.00438280808656173,3.603
-0.0015452861718049469,3.604
0.0020400076332860876,3.605
0.005669625539025023,3.606
0.008618201040909535,3.607
0.010348507932427956,3.608
0.010635538145172523,3.609
0.00955819036665028,3.61
0.007404689530196568,3.611
0.004576786628417263,3.612
0.0015185300060596124,3.613
-0.0013596584632801004,3.614
-0.003743061618815727,3.615
-0.005371540068787615,3.616
-0.005914922745498579,3.617
-0.004971406071308841,3.618
-0.0023007261621842312,3.619
0.0018749540910064481,3.62
0.0067452021706760745,3.621
0.011096991684292467,3.622
0.013778046884195944,3.623
0.01415631126668161,3.624
0.012242667814076402,3.625
0.00847956580605948,3.626
0.003491989722812755,3.627
-0.0020176169734202765,3.628
-0.00729247292943048,3.629
-0.011593222706205226,3.63
-0.014350291395082213,3.631
-0.015285109802622522,3.632
-0.014399970022283888,3.633
-0.0118759579478227,3.634
-0.007984062798477541,3.635
-0.003091701326882557,3.636
0.0022367123536347847,3.637
0.007161131583563563,3.638
0.010644544825261438,3.639
0.011711867819412337,3.64
0.009786804515997274,3.641
0.004955928628180436,3.642
-0.0019669728508771504,3.643
-0.009588434654917051,3.644
-0.01620391178217171,3.645
-0.020147607700988734,3.646
-0.020205117157514878,3.647
-0.01598969941815155,3.648
-0.008153045189686549,3.649
0.0017101607823368798,3.65
0.0115014488006387,3.651
0.019195807598546288,3.652
0.023299685450958525,3.653
0.023115281337511357,3.654
0.018868559957508853,3.655
0.011712858326935287,3.656
0.003504101020216018,3.657
-0.003716422175755196,3.658
-0.008352566983554362,3.659
-0.009679088445465105,3.66
-0.007921595412451153,3.661
-0.004062368587717567,3.662
0.0005301228579663526,3.663
0.004513224554695351,3.664
0.0068492276596657286,3.665
0.006903799238264995,3.666
0.004476086127917326,3.667
-7.73691434610493e-05,3.668
-0.0056623998993707856,3.669
-0.010575024242260036,3.67
-0.013126643598563846,3.671
-0.012382486333650546,3.672
-0.00851999951158764,3.673
-0.002675094736581755,3.674
0.0035683378343325726,3.675
0.00874505302047114,3.676
0.01183317233869452,3.677
0.012293186430803463,3.678
0.010024359008192976,3.679
0.005377691347743146,3.68
-0.0008412921496230794,3.681
-0.007499929271436304,3.682
-0.013400381577093463,3.683
-0.017551468514219508,3.684
-0.01931861237593296,3.685
-0.018436176867196535,3.686
-0.014951653014259008,3.687
-0.00917547497434363,3.688
-0.001710454894663245,3.689
0.006474780382085831,3.69
0.014113915730032437,3.691
0.0199671396703194,3.692
0.023299343824580376,3.693
0.024218906796491614,3.694
0.023552598996083116,3.695
0.02220361235811177,3.696
0.020413820374062135,3.697
0.017567018312528316,3.698
0.012712105389016787,3.699
0.005339961447434795,3.7
-0.004118714042868287,3.701
-0.014302556053904266,3.702
-0.023399776391767952,3.703
-0.029787614890647435,3.704
-0.032435258953808,3.705
-0.030988578872918997,3.706
-0.02574041113058339,3.707
-0.01761335537300087,3.708
-0.008079785364734852,3.709
0.0011329965047008595,3.71
0.008565921891921282,3.711
0.01351867113400235,3.712
0.01615015023641496,3.713
0.017083785586478016,3.714
0.016825158397210112,3.715
0.015459460974774426,3.716
0.012788343761039865,3.717
0.008657317563207922,3.718
0.003183489345762055,3.719
-0.003184394285900743,3.72
-0.009728932643357837,3.721
-0.015618303263344617,3.722
-0.020093321251080997,3.723
-0.022603681222656595,3.724
-0.02285225874214162,3.725
-0.020768242306649375,3.726
-0.016471752833879326,3.727
-0.010276478344862453,3.728
-0.0027059846678907143,3.729
0.0055292427856148164,3.73
0.013580174246309739,3.731
0.02046656617562634,3.732
0.025123255148170025,3.733
0.026697108320663146,3.734
0.02501500771463598,3.735
0.0207949666559507,3.736
0.015356158093681299,3.737
0.010046573086397817,3.738
0.005765943337534725,3.739
0.0027664837152827386,3.74
0.0007369617778938186,3.741
-0.00089859677497753,3.742
-0.0026217578450715147,3.743
-0.004574011955171636,3.744
-0.0065157392549639375,3.745
-0.007958472338843154,3.746
-0.008376699126242766,3.747
-0.007426453218677176,3.748
-0.005106263725189361,3.749
-0.0018133707914789149,3.75
0.0016914105336238707,3.751
0.0043914312992339635,3.752
0.005245448454041996,3.753
0.0035881798273790723,3.754
-0.00046785718435077766,3.755
-0.005969036833504498,3.756
-0.011475418032120455,3.757
-0.015548270107226142,3.758
-0.017136290567608837,3.759
-0.015830830544096248,3.76
-0.011971765773751203,3.761
-0.006560351272347289,3.762
-0.0009770648333584427,3.763
0.0034665169123323535,3.764
0.006008555393795453,3.765
0.0066560968457757145,3.766
0.005960132952348514,3.767
0.004548678760749305,3.768
0.0027927710469963663,3.769
0.0007660937045841099,3.77
-0.001594995871337265,3.771
-0.0042642594739995595,3.772
-0.0069226656923353155,3.773
-0.008878898113062032,3.774
-0.009217206210675158,3.775
-0.007212912625159074,3.776
-0.0028319725371444672,3.777
0.003085671452881022,3.778
0.0091570128347297,3.779
0.014036330185838868,3.78
0.01684998574359724,3.781
0.017351986653527954,3.782
0.015882437692992916,3.783
0.0132040672187881,3.784
0.010230138842557832,3.785
0.007705746790137877,3.786
0.006009355602526434,3.787
0.0051568122636887525,3.788
0.004897118410111426,3.789
0.004787086889062884,3.79
0.004254051030752586,3.791
0.0027190960507193786,3.792
-0.00018036489650356986,3.793
-0.004338037848212675,3.794
-0.009059419474438245,3.795
-0.01320362900551402,3.796
-0.015562226585272922,3.797
-0.015330895808663019,3.798
-0.012486631142713839,3.799
-0.007898690112407902,3.8
-0.003086604511120395,3.801
0.0003322571945873649,3.802
0.0012749771111887319,3.803
-0.00043368845764499373,3.804
-0.004111840967790749,3.805
-0.008593621805449831,3.806
-0.012693638837621306,3.807
-0.015498708837763392,3.808
-0.016369615454545468,3.809
-0.014838111699470507,3.81
-0.010645018297952448,3.811
-0.003909194142545901,3.812
0.0047165399161174576,3.813
0.013983707219781075,3.814
0.022178255917486216,3.815
0.027499205850796068,3.816
0.02853622198799557,3.817
0.02467327315050483,3.818
0.016382178466019314,3.819
0.005287534067654716,3.82
-0.0061920641171672106,3.821
-0.015561681121067135,3.822
-0.02099903670823963,3.823
-0.02182680392199717,3.824
-0.01853772925826064,3.825
-0.01239479320363729,3.826
-0.004881835279064259,3.827
0.0026877052986251956,3.828
0.009345129560242384,3.829
0.014516930336294203,3.83
0.01798705039400024,3.831
0.019788575061754767,3.832
0.02010802029014325,3.833
0.019239636594567244,3.834
0.017515060825927235,3.835
0.015147949563896087,3.836
0.012066678572938248,3.837
0.00792827280181482,3.838
0.0023964015540753805,3.839
-0.004517922614119414,3.84
-0.012296649506864474,3.841
-0.01997114844874728,3.842
-0.026333851860247712,3.843
-0.030259898246913816,3.844
-0.031032277048462106,3.845
-0.02853157101872024,3.846
-0.023246632583990984,3.847
-0.01612681633191135,3.848
-0.008312420512526682,3.849
-0.0008595755899960213,3.85
0.005410728006806664,3.851
0.009925687606596949,3.852
0.012312416554748221,3.853
0.012412544845881794,3.854
0.010435503675294918,3.855
0.007122612239277804,3.856
0.0036776784709831173,3.857
0.001380764404244551,3.858
0.001093459832075336,3.859
0.002945156752908117,3.86
0.006308006223926829,3.861
0.010045372329171534,3.862
0.012941316082271037,3.863
0.01408203554107863,3.864
0.013058735406031117,3.865
0.010066558917330206,3.866
0.005867771951727567,3.867
0.0015153998893058479,3.868
-0.002022932594322383,3.869
-0.004110482108301881,3.87
-0.004515031105543707,3.871
-0.003392178840156821,3.872
-0.0012365318574187917,3.873
0.0012096978699882859,3.874
0.0031585186285280086,3.875
0.004061279204532389,3.876
0.003762919900977835,3.877
0.002403552710064432,3.878
0.00022647044900731556,3.879
-0.0025400905994751853,3.88
-0.005740188617964078,3.881
-0.009299215479841607,3.882
-0.01310348537999972,3.883
-0.016775041413829524,3.884
-0.019575346562265013,3.885
-0.020652349436971106,3.886
-0.019516273532070656,3.887
-0.016330199682142887,3.888
-0.011757689907835087,3.889
-0.006543398391684099,3.89
-0.001204704545140402,3.891
0.003962445706642272,3.892
0.008720771343311486,3.893
0.012859774389874614,3.894
0.01631522155093397,3.895
0.01918757888328057,3.896
0.02152242358376747,3.897
0.023061198993804696,3.898
0.023226409084191744,3.899
0.021370528946512615,3.9
0.01717708403308294,3.901
0.010991122913555747,3.902
0.0038018746699546024,3.903
-0.0030921397156148263,3.904
-0.008450816079147485,3.905
-0.011406151682069652,3.906
-0.01173169196388152,3.907
-0.00993547660571106,3.908
-0.007103835157342267,3.909
-0.004577133300849742,3.91
-0.003571673556291185,3.911
-0.004812452696897197,3.912
-0.008198222663288814,3.913
-0.012641132194413858,3.914
-0.016316124517947405,3.915
-0.01727454063947221,3.916
-0.014150768496608991,3.917
-0.006859067576496363,3.918
0.0029689910874232113,3.919
0.012372988748754195,3.92
0.018270081879224125,3.921
0.018691880347405893,3.922
0.013424766004862558,3.923
0.0039553377972640896,3.924
-0.007105311724554946,3.925
-0.016862275609275904,3.926
-0.023017813991713192,3.927
-0.024520413690608093,3.928
-0.021679024236300002,3.929
-0.015744825260077606,3.93
-0.0082804012812255,3.931
-0.0005767427964192528,3.932
0.006721171261052519,3.933
0.013617001265804628,3.934
0.020405620855372255,3.935
0.027178878168796574,3.936
0.03344849888362974,3.937
0.038102904238074234,3.938
0.03977644900488983,3.939
0.0374407893086258,3.94
0.03092345921744193,3.941
0.021114373494795193,3.942
0.009674152907618274,3.943
-0.0016476916690428534,3.944
-0.011629925239956746,3.945
-0.01981560853894813,3.946
-0.02641298240052863,3.947
-0.031991433974967336,3.948
-0.0370267393675364,3.949
-0.04141333639106395,3.95
-0.04420017822473842,3.951
-0.04382408791542172,3.952
-0.038881148439462526,3.953
-0.028999748300905858,3.954
-0.015224698085543168,3.955
0.0002600749529286373,3.956
0.01484833125419942,3.957
0.026298133382270678,3.958
0.03324733858182941,3.959
0.035359699671651396,3.96
0.033226620302651326,3.961
0.02811955305030424,3.962
0.021564406303434064,3.963
0.014849115302442458,3.964
0.008758587112154296,3.965
0.0036313619762656226,3.966
-0.00043620727722365986,3.967
-0.0034326451603009524,3.968
-0.005406780957568864,3.969
-0.006502469879684,3.97
-0.006909992661197659,3.971
-0.006739496135379031,3.972
-0.005978315698868464,3.973
-0.004612821287664356,3.974
-0.0027954949254035155,3.975
-0.0008889911779727059,3.976
0.0006375945752665778,3.977
0.0013748661466945389,3.978
0.0011479657900030885,3.979
0.00011818894908826818,3.98
-0.001309364149433963,3.981
-0.0027215622633408806,3.982
-0.0038521127611801046,3.983
-0.004537897831164294,3.984
-0.0046309652590830926,3.985
-0.004062359482119655,3.986
-0.0029982569614863193,3.987
-0.0018617841175635422,3.988
-0.0011231240222765177,3.989
-0.0010380920311097105,3.99
-0.0015594757638646328,3.991
-0.002400827977430641,3.992
-0.0031306627132001033,3.993
-0.0032780495822672673,3.994
-0.002478932418513219,3.995
-0.0006368407853086347,3.996
0.0019684126314879293,3.997
0.00468764301247688,3.998
0.00671695879881492,3.999
0.007526857884666502,4.0
0.0072422917903764514,4.001
0.00660440825431092,4.002
0.006466029087773939,4.003
0.007200355492124495,4.004
0.008434614256065759,4.005
0.00922419301177804,4.006
0.00852804507739823,4.007
0.005716384473689409,4.008
0.0008552353024929314,4.009
-0.0053078964786215065,4.01
-0.011574371435633482,4.011
-0.016631064102172823,4.012
-0.0193939598656662,4.013
-0.019258298915980174,4.014
-0.016177995279395934,4.015
-0.010594634748170226,4.016
-0.0033348680728917755,4.017
0.004446857387056505,4.018
0.011357175570840226,4.019
0.016040763088365922,4.02
0.017637420718580227,4.021
0.016116538449188537,4.022
0.012165366112885807,4.023
0.0067492983323266574,4.024
0.000805378182493397,4.025
-0.004769393313265733,4.026
-0.009063395145319614,4.027
-0.011189061442670206,4.028
-0.010445734704308922,4.029
-0.00667400938318731,4.03
-0.0006669746055254051,4.031
0.005800251760727878,4.032
0.010494827709672132,4.033
0.011474631024326042,4.034
0.007708855442980534,4.035
-0.0005820938026443622,4.036
-0.0118799151696584,4.037
-0.023545149473114705,4.038
-0.03228116515804212,4.039
-0.03508890284757589,4.04
-0.030573058254216374,4.041
-0.019791503376956725,4.042
-0.005858281970850473,4.043
0.007549457932368881,4.044
0.017847609517770632,4.045
0.02438020290270251,4.046
0.028062582623733026,4.047
0.03032436401165643,4.048
0.03210083594353354,4.049
0.033314111366161525,4.05
0.033034355982642635,4.051
0.030197532584206228,4.052
0.024340490865594065,4.053
0.01589592800885344,4.054
0.006066523036941289,4.055
-0.0035378062554554737,4.056
-0.011372942954995675,4.057
-0.016397499064525735,4.058
-0.018328153010397603,4.059
-0.01764706303391506,4.06
-0.015418611110168338,4.061
-0.013015785061679361,4.062
-0.011794607073028126,4.063
-0.012729519391207058,4.064
-0.016088440980766883,4.065
-0.02127529643041908,4.066
-0.02693307321873795,4.067
-0.031345178099287094,4.068
-0.03300886692679439,4.069
-0.03102524918315342,4.07
-0.025124807760927036,4.071
-0.015608561234430218,4.072
-0.0034210556271813495,4.073
0.009846298948971316,4.074
0.022215118775135052,4.075
0.03180031128198575,4.076
0.037352232103632727,4.077
0.038605045310526886,4.078
0.0362291865680846,4.079
0.0314533672144994,4.08
0.025590474404681447,4.081
0.01962531543940776,4.082
0.013936587275085005,4.083
0.00829818704298875,4.084
0.002276153524663846,4.085
-0.004235459660623188,4.086
-0.010803343558295563,4.087
-0.016628300058721422,4.088
-0.020821830020606166,4.089
-0.022650005964960092,4.09
-0.02172843614609669,4.091
-0.018133500280420493,4.092
-0.012445737529866009,4.093
-0.005693845046010682,4.094
0.0009204817074993713,4.095
0.006425987013607951,4.096
0.010269510581527858,4.097
0.012174520111329605,4.098
0.011979954233404075,4.099
0.009720964210603927,4.1
0.005798519003785316,4.101
0.0009242478528117688,4.102
-0.004183825625868932,4.103
-0.009022618495229093,4.104
-0.01315588143673589,4.105
-0.015869647312864436,4.106
-0.016121706456425054,4.107
-0.013021150964971554,4.108
-0.00651049266597537,4.109
0.0022995914578386564,4.11
0.011364629057906517,4.111
0.01837835455335161,4.112
0.021602613209931894,4.113
0.02041663122095864,4.114
0.0152798380762227,4.115
0.0073255910261129,4.116
-0.0019860920200629934,4.117
-0.011061544116390475,4.118
-0.01840767914327827,4.119
-0.02297366087239882,4.12
-0.02438918102831766,4.121
-0.022905135361813676,4.122
-0.019108317711648375,4.123
-0.013616705003834289,4.124
-0.006886731527521599,4.125
0.0007837054644013643,4.126
0.009010608451945215,4.127
0.017039339516908864,4.128
0.023763025761355604,4.129
0.02805807301561284,4.13
0.02912424407033391,4.131
0.02667066633343185,4.132
0.021044541127654033,4.133
0.01328678430288539,4.134
0.004942576186365312,4.135
-0.0023388623451135026,4.136
-0.007189058810870192,4.137
-0.008797024284905869,4.138
-0.007125782334984552,4.139
-0.00302688666199841,4.14
0.001961638157454528,4.141
0.006213831483407035,4.142
0.008631116639016828,4.143
0.008792956462778171,4.144
0.006672429282227915,4.145
0.002423948172142899,4.146
-0.003439421411804889,4.147
-0.009824796079469093,4.148
-0.015294569880445023,4.149
-0.018679874872798725,4.15
-0.019621688774538057,4.151
-0.018753003725967554,4.152
-0.017501292239830473,4.153
-0.01760806215657779,4.154
-0.02040780748026169,4.155
-0.025911942207634608,4.156
-0.03215831858088358,4.157
-0.0356382949522512,4.158
-0.03285684771313273,4.159
-0.02201808853857873,4.16
-0.004012276760492561,4.161
0.017569640611883774,4.162
0.03756700865281357,4.163
0.05117135305545002,4.164
0.05569306592623674,4.165
0.05137357803061865,4.166
0.040939469105181314,4.167
0.0281901959651749,4.168
0.016361360882908963,4.169
0.007009524686185789,4.17
-3.197899568997536e-05,4.171
-0.005622274116531837,4.172
-0.010120126216701315,4.173
-0.013056599333410187,4.174
-0.013643547765477534,4.175
-0.011380442012290319,4.176
-0.0064179217144345125,4.177
0.00024387736153495072,4.178
0.006809802173952367,4.179
0.011201663576119054,4.18
0.011878155068653386,4.181
0.008438119371848365,4.182
0.0016569689599228578,4.183
-0.0069178988838413105,4.184
-0.015512349066478399,4.185
-0.022591550320278195,4.186
-0.027081072943418095,4.187
-0.028320142005791058,4.188
-0.025969478518167336,4.189
-0.02009999371620945,4.19
-0.011400133611737098,4.191
-0.0012491268900722378,4.192
0.008503282551998911,4.193
0.016028579452116772,4.194
0.02013245027079971,4.195
0.02070708259877053,4.196
0.0187162239572722,4.197
0.01566268602892921,4.198
0.012805580317102367,4.199
0.010531511306517721,4.2
0.008224950636581005,4.201
0.004700541454331194,4.202
-0.0010324521339534932,4.203
-0.008994935566110654,4.204
-0.017864327465122412,4.205
-0.025375833420769937,4.206
-0.02933179483913259,4.207
-0.028527560107911923,4.208
-0.023083065179203867,4.209
-0.014196663904809007,4.21
-0.0036111599872212445,4.211
0.006918645261909222,4.212
0.015997683732810065,4.213
0.022776298342154278,4.214
0.026939855619299798,4.215
0.02851949269832095,4.216
0.0276779434732796,4.217
0.024620051938851497,4.218
0.019577288010131165,4.219
0.01276336492257681,4.22
0.004406536324240743,4.221
-0.004985586151468029,4.222
-0.014345091972937561,4.223
-0.022149957998958983,4.224
-0.026919206031035425,4.225
-0.02775696437453052,4.226
-0.024646918432701604,4.227
-0.018382577822904762,4.228
-0.010277233357258365,4.229
-0.001862627605797726,4.23
0.00542520794179514,4.231
0.010637813958021566,4.232
0.01363494016155396,4.233
0.01503788929394185,4.234
0.015772059720026252,4.235
0.016552931353102297,4.236
0.017628467592862174,4.237
0.01875359742453211,4.238
0.01928110387265947,4.239
0.018340957983860085,4.24
0.015091137612617421,4.241
0.008997034418505084,4.242
4.912069848523649e-05,4.243
-0.011137974010056433,4.244
-0.02326160070858105,4.245
-0.03432537420816115,4.246
-0.0419758813351511,4.247
-0.04427705561280628,4.248
-0.040471020523736655,4.249
-0.03120117858372814,4.25
-0.01819239196706957,4.251
-0.003699032766082636,4.252
0.010035880272596607,4.253
0.02113525414403981,4.254
0.028179395188967084,4.255
0.030149505289320432,4.256
0.026473486742073518,4.257
0.017353644983863378,4.258
0.004242713526052347,4.259
-0.009995595422955226,4.26
-0.021656342185704974,4.261
-0.027396790926300176,4.262
-0.02547185542611422,4.263
-0.016341622283040605,4.264
-0.0024008659865743915,4.265
0.012951661238637772,4.266
0.026521497005273547,4.267
0.036316221161064116,4.268
0.04184982927954802,4.269
0.0437014453716427,4.27
0.042704006795116566,4.271
0.0392586611259458,4.272
0.03322321150419365,4.273
0.024431858537712996,4.274
0.013297981804551197,4.275
0.0009048155550406529,4.276
-0.011397416472255294,4.277
-0.022472802415680556,4.278
-0.031672428791557045,4.279
-0.0387825977810368,4.28
-0.043667950561380835,4.281
-0.04587778647538936,4.282
-0.044637777812485825,4.283
-0.03940483624711396,4.284
-0.03060288134145562,4.285
-0.01992351445818772,4.286
-0.00992192723917396,4.287
-0.003068743975044628,4.288
-0.0007076466939619265,4.289
-0.0024627107726471445,4.29
-0.006409250108340348,4.291
-0.009925472651972427,4.292
-0.010735473264742184,4.293
-0.007547315506518174,4.294
-0.0001981774092487742,4.295
0.010297823423058135,4.296
0.02175568451729307,4.297
0.031320098542944944,4.298
0.036481925952573276,4.299
0.03606334526592584,4.3
0.030737814034769308,4.301
0.02282533943573585,4.302
0.015225162084899926,4.303
0.009955610249640123,4.304
0.007336651015360519,4.305
0.00633619032204846,4.306
0.005503689771606296,4.307
0.0037417005899149955,4.308
0.0007219402819489129,4.309
-0.0030498740371220825,4.31
