VaMe,time
-0.0004008716695354669,0.001
-7.435289211471711e-05,0.002
0.0023533336025867465,0.003
0.008392825077244148,0.004
0.018278267110747193,0.005
0.030641552229076136,0.006
0.04270380530738937,0.007
0.05087689693596653,0.008
0.051782405176529794,0.009
0.04373619154117656,0.01
0.02794866569570389,0.011
0.00825714862430063,0.012
-0.010564591647975472,0.013
-0.024655057396978864,0.014
-0.032109964389483055,0.015
-0.033044562851879074,0.016
-0.02897493423855208,0.017
-0.021961888956537955,0.018
-0.013834502517300767,0.019
-0.005754923842367076,0.02
0.0017027521903272206,0.021
0.008124159479881297,0.022
0.0129357852233512,0.023
0.01549041346917703,0.024
0.01540692119688451,0.025
0.012867698171773039,0.026
0.008724782471583505,0.027
0.004338862596347153,0.028
0.00113668318337863,0.029
7.714328583884758e-05,0.03
0.001303312452940876,0.031
0.004112805132285947,0.032
0.007274880043761616,0.033
0.009584882623071733,0.034
0.010328367144127326,0.035
0.009419672625021943,0.036
0.007233896989635054,0.037
0.004255060835442873,0.038
0.0007708446744436326,0.039
-0.0031593658117615073,0.04
-0.007481082542066795,0.041
-0.01189430319696772,0.042
-0.015802002217369066,0.043
-0.018527878682068444,0.044
-0.01966819205017324,0.045
-0.019332261642529457,0.046
-0.01813775057052792,0.047
-0.01703217022381054,0.048
-0.017036237348051406,0.049
-0.018895530950448314,0.05
-0.02265518175515929,0.051
-0.02729569617770524,0.052
-0.03068127483322672,0.053
-0.03014008038154244,0.054
-0.023642474134036296,0.055
-0.010871619300180964,0.056
0.006567925804193758,0.057
0.025853646203003504,0.058
0.044032733677634314,0.059
0.05889631387464396,0.06
0.06928212599595139,0.061
0.07478593135433816,0.062
0.0751630865850418,0.063
0.06992691242065188,0.064
0.0585920000073717,0.065
0.04143501053017359,0.066
0.020030240605423973,0.067
-0.00298218424378583,0.068
-0.02466190089015419,0.069
-0.04253253578534454,0.07
-0.055015734347330925,0.071
-0.061409396210349396,0.072
-0.061635101572050856,0.073
-0.05624981244277383,0.074
-0.04672138542966383,0.075
-0.035328707476454245,0.076
-0.02444295607637302,0.077
-0.015758744458562016,0.078
-0.009963115718390713,0.079
-0.006739812555321585,0.08
-0.0049270225860540695,0.081
-0.0029100580653290023,0.082
0.0007371407470435549,0.083
0.006610426022848806,0.084
0.014070572440445473,0.085
0.021225015774603333,0.086
0.025545124072101244,0.087
0.025189806256583774,0.088
0.020252320033966657,0.089
0.012759880700429703,0.09
0.00544759902119077,0.091
0.00044751565185064887,0.092
-0.0013600763529275132,0.093
-0.00032046943900431845,0.094
0.00244896599323279,0.095
0.005647102569006161,0.096
0.008259894238108287,0.097
0.00977461710677429,0.098
0.010131233047354941,0.099
0.009468098490763398,0.1
0.007837567219967532,0.101
0.005176741928952405,0.102
0.001627740568474308,0.103
-0.0021129262770843028,0.104
-0.004940652003194381,0.105
-0.006061444587534777,0.106
-0.005662675042051159,0.107
-0.004872161978081746,0.108
-0.004951653907856188,0.109
-0.006392033971671654,0.11
-0.008695263246729666,0.111
-0.01083524075654798,0.112
-0.01183115101705024,0.113
-0.011152919793258364,0.114
-0.008920885519695887,0.115
-0.005793032106856808,0.116
-0.0025340948990309024,0.117
0.00042717008725127775,0.118
0.00308883571255208,0.119
0.005608007589193436,0.12
0.007945564076799146,0.121
0.009712595249164803,0.122
0.01039665270865373,0.123
0.009792425774932499,0.124
0.00820673158719523,0.125
0.006278862710102438,0.126
0.004625992396153764,0.127
0.0035548766146103862,0.128
0.002976968041844517,0.129
0.0025650826305975683,0.13
0.002011478464952893,0.131
0.001176153170077491,0.132
7.933229471470099e-05,0.133
-0.0011767283296906395,0.134
-0.002486955209514384,0.135
-0.0037905223621334367,0.136
-0.0050649120557019365,0.137
-0.006255628369094922,0.138
-0.007187762033979184,0.139
-0.007547483849813743,0.14
-0.006960059441149288,0.141
-0.005140311796282637,0.142
-0.0020933932883120897,0.143
0.0017258772883001741,0.144
0.0054406151754841535,0.145
0.008005557975265686,0.146
0.008593085599921273,0.147
0.00693624049489138,0.148
0.003417648828547944,0.149
-0.0011555107869981682,0.15
-0.005907976619636286,0.151
-0.01016257481137309,0.152
-0.01355510838323714,0.153
-0.01606440829860746,0.154
-0.01795298354818407,0.155
-0.019509528289202226,0.156
-0.020625006271308918,0.157
-0.020477900087626257,0.158
-0.01769153085837578,0.159
-0.011107202983104513,0.16
-0.0007305247653356491,0.161
0.01193003863458814,0.162
0.02440783321711822,0.163
0.03426731764882102,0.164
0.03994314245144442,0.165
0.04107117511955109,0.166
0.0382422596761035,0.167
0.03240419968407047,0.168
0.024371644356743917,0.169
0.014801705048163388,0.17
0.00451563897173269,0.171
-0.005285137471905328,0.172
-0.013175185271975247,0.173
-0.017934829607632694,0.174
-0.019020934855636214,0.175
-0.01686864474832687,0.176
-0.012851685747385053,0.177
-0.008832986783109073,0.178
-0.0064567073537118505,0.179
-0.006538097383981889,0.18
-0.00885267070725755,0.181
-0.012347098869923375,0.182
-0.015554178653993547,0.183
-0.016986323265015976,0.184
-0.015481487416762316,0.185
-0.010548324685018453,0.186
-0.002621756443465705,0.187
0.006936211240466311,0.188
0.016181086947604527,0.189
0.023140851432321273,0.19
0.0262744268687082,0.191
0.024713492393490858,0.192
0.018447645710481252,0.193
0.008498596918001816,0.194
-0.003174230558105184,0.195
-0.014193526390049544,0.196
-0.022504072994265996,0.197
-0.02700095928029382,0.198
-0.02775784054079425,0.199
-0.025713948628629708,0.2
-0.02201861904428386,0.201
-0.017501036147282496,0.202
-0.012574751578824908,0.203
-0.007434055330143868,0.204
-0.002195434873671581,0.205
0.0031247356994759785,0.206
0.00860916734478086,0.207
0.014293549598039045,0.208
0.02001264161996097,0.209
0.02535358611116921,0.21
0.029667869067026207,0.211
0.03214624389359066,0.212
0.03202756253154074,0.213
0.028884773888510927,0.214
0.02283725233066893,0.215
0.014600321470668498,0.216
0.005344028387570292,0.217
-0.0036190457527098814,0.218
-0.011182647283776059,0.219
-0.016654226698244713,0.22
-0.019772118085922774,0.221
-0.02060893846862594,0.222
-0.019445813054724953,0.223
-0.016671197483118377,0.224
-0.01274037692093746,0.225
-0.008198734269965797,0.226
-0.0036946945367047905,0.227
0.00010315226389181448,0.228
0.0026462573950757655,0.229
0.0036002332279003782,0.23
0.0028786732187716904,0.231
0.0006626792729467735,0.232
-0.002589150969694008,0.233
-0.0061837468789225445,0.234
-0.009324101326735846,0.235
-0.011295039544705796,0.236
-0.011623438226607134,0.237
-0.01015757159330233,0.238
-0.007065725241597202,0.239
-0.002767572554862576,0.24
0.0021975846250417317,0.241
0.007309346821895546,0.242
0.012103168134004066,0.243
0.016127107741977644,0.244
0.019037913176025083,0.245
0.020855777652360626,0.246
0.021949671125892394,0.247
0.022491545966377365,0.248
0.021826171849121667,0.249
0.01853326252637525,0.25
0.011459756557251776,0.251
0.0009042370410159008,0.252
-0.011206877525597151,0.253
-0.02218121161383258,0.254
-0.029628714190285562,0.255
-0.03220109829208702,0.256
-0.029852511815624493,0.257
-0.02364704593372729,0.258
-0.015283016081981978,0.259
-0.006550052775134027,0.26
0.0010860506872758134,0.261
0.006678842204464001,0.262
0.00978298363896655,0.263
0.010303351768220795,0.264
0.008377937248980593,0.265
0.004376852365184119,0.266
-0.0010139845790709968,0.267
-0.006617989511038641,0.268
-0.010748488139591351,0.269
-0.011767210748260065,0.27
-0.008932570739283014,0.271
-0.0027592018965023057,0.272
0.005291846813605177,0.273
0.013437579766076924,0.274
0.020171368770249803,0.275
0.024577404494999473,0.276
0.026271839814172894,0.277
0.025160468656929582,0.278
0.021317179224477074,0.279
0.015091599173245438,0.28
0.007256053081691673,0.281
-0.0010304517954609384,0.282
-0.008431160554679266,0.283
-0.013711502608587934,0.284
-0.016075800678159214,0.285
-0.015476877679871956,0.286
-0.012701233358451655,0.287
-0.009125466454901919,0.288
-0.006215847822863472,0.289
-0.004988319812797319,0.29
-0.005690429130199052,0.291
-0.00782198069158506,0.292
-0.010411915729653293,0.293
-0.01239098238366341,0.294
-0.01293804703388523,0.295
-0.011735108265766254,0.296
-0.009047748988284308,0.297
-0.005554515516392942,0.298
-0.001992957193882926,0.299
0.0011931745709709968,0.3
0.004017175913193728,0.301
0.006822355839531289,0.302
0.009968895108562453,0.303
0.01358005290235562,0.304
0.017491045968924368,0.305
0.021303156835825083,0.306
0.0243720384712707,0.307
0.025793302246423004,0.308
0.02461676534844719,0.309
0.020295524164188776,0.31
0.013042393247747835,0.311
0.0038106139116712975,0.312
-0.006021524199974525,0.313
-0.015022299311123007,0.314
-0.02201387330643797,0.315
-0.02627623055115221,0.316
-0.027615488256162803,0.317
-0.026301485625694447,0.318
-0.0229271999895764,0.319
-0.018254259547591828,0.32
-0.013070512775089927,0.321
-0.008048186465436313,0.322
-0.0036210686913655675,0.323
6.81015683506669e-05,0.324
0.003134477729861714,0.325
0.005842592839569606,0.326
0.008420020733474703,0.327
0.01085101479240771,0.328
0.012801540820462368,0.329
0.013758282116742902,0.33
0.013291887019023447,0.331
0.011287673819870387,0.332
0.008033509986623154,0.333
0.004147812107349333,0.334
0.0004011229922990682,0.335
-0.0025104662154402995,0.336
-0.004155644302090081,0.337
-0.004412335301537719,0.338
-0.0033633151176958617,0.339
-0.0011786245322483282,0.34
0.001909499600970017,0.341
0.005577223593633053,0.342
0.009393503315148294,0.343
0.012810018771085903,0.344
0.015142435168959108,0.345
0.01560758289663545,0.346
0.01354818108090294,0.347
0.008828902532556207,0.348
0.0020864876594425623,0.349
-0.00543464738870946,0.35
-0.012340601023022537,0.351
-0.01752402376806883,0.352
-0.02039385706674687,0.353
-0.0209042694182112,0.354
-0.019428975883415793,0.355
-0.016534923487669367,0.356
-0.012778436093543524,0.357
-0.008609821209807154,0.358
-0.004365088518127578,0.359
-0.0003205065152764704,0.36
0.0031858361662786337,0.361
0.005649440179969621,0.362
0.006474273303300154,0.363
0.005239616543818354,0.364
0.0019795402704863335,0.365
-0.00267449299078249,0.366
-0.007506211308844005,0.367
-0.0108573325249061,0.368
-0.010961458304495764,0.369
-0.006556091030676902,0.37
0.0023970742728985314,0.371
0.014313455067531929,0.372
0.02621540655879943,0.373
0.034574288874042215,0.374
0.036513007705753844,0.375
0.030944053592264,0.376
0.019146002903884376,0.377
0.004390584394473153,0.378
-0.009376587574311392,0.379
-0.019090993155226738,0.38
-0.023433324910240118,0.381
-0.022766514425286537,0.382
-0.01849097700302123,0.383
-0.012254049317687447,0.384
-0.005412508943656482,0.385
0.0010881434817464238,0.386
0.0065636547554958164,0.387
0.010426101360875658,0.388
0.012178451558850252,0.389
0.011585940102571073,0.39
0.008870139937817014,0.391
0.004692930768115789,0.392
-0.0001262335635175869,0.393
-0.004935331991853181,0.394
-0.009342575409319032,0.395
-0.013052500806721726,0.396
-0.01568308735075545,0.397
-0.016783407454347154,0.398
-0.016040972612296103,0.399
-0.01347572979702073,0.4
-0.00945091423568289,0.401
-0.004533195469512719,0.402
0.0006680607225138281,0.403
0.005612068198895353,0.404
0.00987279702022165,0.405
0.013128926632267914,0.406
0.015141578405006174,0.407
0.015757547333642694,0.408
0.014932455776310444,0.409
0.012759074595226133,0.41
0.009492387496439594,0.411
0.0055542447926451325,0.412
0.0014716843734017735,0.413
-0.0022814692919593278,0.414
-0.00545105448093495,0.415
-0.008047238067675,0.416
-0.010263468458728074,0.417
-0.012348673431405513,0.418
-0.01446815986999398,0.419
-0.01654124489824377,0.42
-0.01808524697826286,0.421
-0.018169546260848095,0.422
-0.015584026980127263,0.423
-0.009255681055514959,0.424
0.001205814725355195,0.425
0.01508091289877349,0.426
0.03041392297965433,0.427
0.044281850370547514,0.428
0.05344407335792526,0.429
0.05513515665537461,0.43
0.047840422418186784,0.431
0.03204916518523733,0.432
0.01055508111133464,0.433
-0.012278014701122726,0.434
-0.03201589825881581,0.435
-0.04551840493914742,0.436
-0.05157815975819052,0.437
-0.0507818647371437,0.438
-0.04487623807740879,0.439
-0.036012949643350216,0.44
-0.026132030107591363,0.441
-0.016609641211990014,0.442
-0.00819513144793848,0.443
-0.001159039651023443,0.444
0.0044660149724581,0.445
0.008691456983930299,0.446
0.01155998053811336,0.447
0.01325725357600678,0.448
0.014156953310199038,0.449
0.014732388559203126,0.45
0.015385627299920136,0.451
0.016284528623436944,0.452
0.01730179378534026,0.453
0.018071445248938497,0.454
0.018112704213084,0.455
0.01694992104252752,0.456
0.01419159790509279,0.457
0.00964367152937353,0.458
0.0035203134909367996,0.459
-0.003383556177883017,0.46
-0.009772208191622942,0.461
-0.01421385833420622,0.462
-0.015617772692369863,0.463
-0.013594501425524298,0.464
-0.008556548652121947,0.465
-0.0015880578093979336,0.466
0.005769574563894092,0.467
0.011750874121467109,0.468
0.014764926845104531,0.469
0.013999545123489523,0.47
0.009828045983177,0.471
0.0036199954903399223,0.472
-0.002909656479886042,0.473
-0.008371618164767704,0.474
-0.012058171829144714,0.475
-0.01392949745798742,0.476
-0.014411581639374112,0.477
-0.014163444300518685,0.478
-0.013814779083237114,0.479
-0.013668627927889294,0.48
-0.013525608438302526,0.481
-0.012841309446467233,0.482
-0.011164761575998045,0.483
-0.008489541148852633,0.484
-0.005206773240704601,0.485
-0.001753745673698781,0.486
0.0016686538077836104,0.487
0.005088639697869031,0.488
0.008561611905664592,0.489
0.011972653474971796,0.49
0.014987615261610793,0.491
0.017211962485351007,0.492
0.01843702940408022,0.493
0.018742432603138622,0.494
0.018386083072356875,0.495
0.01761110981358692,0.496
0.016497293314999516,0.497
0.01488558791095113,0.498
0.012344042492501558,0.499
0.008225606595840254,0.5
0.0019989492255506735,0.501
-0.006168270690664036,0.502
-0.015041592828565088,0.503
-0.022634989707412023,0.504
-0.02708782835157303,0.505
-0.027482294098482386,0.506
-0.024101444151935675,0.507
-0.018132777863891655,0.508
-0.011091530347166211,0.509
-0.004229816680339895,0.51
0.0018061950781815101,0.511
0.006908776590448443,0.512
0.011117043861871345,0.513
0.01421020961629119,0.514
0.015617853505934486,0.515
0.01473590925135374,0.516
0.011406986590930604,0.517
0.006186145429206745,0.518
0.00019828636213274417,0.519
-0.005270954465283121,0.52
-0.009169929395139607,0.521
-0.010914774945259822,0.522
-0.010461328250411543,0.523
-0.00824238432747039,0.524
-0.005007540841319251,0.525
-0.0016071907419700142,0.526
0.0012342570891856728,0.527
0.003083262396142055,0.528
0.0038546067357712313,0.529
0.0037624707938742888,0.53
0.0031820690282513193,0.531
0.0024973250700734352,0.532
0.002017336101199452,0.533
0.0019503409267711811,0.534
0.0023964575807475987,0.535
0.0033513505479406663,0.536
0.004708900849591408,0.537
0.006250363549538935,0.538
0.0076277315595702985,0.539
0.008374764302889531,0.54
0.007986627908025967,0.541
0.006072601202039682,0.542
0.0025285250313439177,0.543
-0.0023521791350342284,0.544
-0.007881847518764931,0.545
-0.013099176680852498,0.546
-0.0169793622472869,0.547
-0.0186966854419664,0.548
-0.017885401692483042,0.549
-0.014796998423273717,0.55
-0.010229960547032034,0.551
-0.00520372787609561,0.552
-0.0005477602293294386,0.553
0.0033280203669853914,0.554
0.0063935914682753964,0.555
0.008834482953717549,0.556
0.010900306107800425,0.557
0.012770124384433028,0.558
0.014426457334452157,0.559
0.015593631219022928,0.56
0.015790121345418243,0.561
0.014511399392860226,0.562
0.011503328939797738,0.563
0.00696941608259441,0.564
0.0015610427669172817,0.565
-0.003823928138661487,0.566
-0.008306821611220656,0.567
-0.011242054448709404,0.568
-0.012307697643084078,0.569
-0.011505591458883264,0.57
-0.009138943307670674,0.571
-0.005761298389506949,0.572
-0.0020801716269352637,0.573
0.0011745350442494624,0.574
0.003409039753499007,0.575
0.004303487868696368,0.576
0.0038643972215733472,0.577
0.002389632031582982,0.578
0.0003660986433499272,0.579
-0.0016832485043253677,0.58
-0.003345554037002052,0.581
-0.00440795676010915,0.582
-0.004886860114681721,0.583
-0.004981479730700006,0.584
-0.004923192993384843,0.585
-0.004759026809015562,0.586
-0.004216855634233005,0.587
-0.0027976825293461326,0.588
-7.08659723440703e-05,0.589
0.003999159162745294,0.59
0.008855014646287612,0.591
0.013356573911874435,0.592
0.016011035550240475,0.593
0.015407501567462938,0.594
0.01078332593330353,0.595
0.0025026138002503043,0.596
-0.007830850383778834,0.597
-0.017766722437767026,0.598
-0.02479691335439309,0.599
-0.027191819097727735,0.6
-0.024494738879464545,0.601
-0.017493911037446245,0.602
-0.007806415128589709,0.603
0.002642538741727693,0.604
0.012067912435755926,0.605
0.019132412444837904,0.606
0.02307581163499174,0.607
0.02370619527377903,0.608
0.021359243686550723,0.609
0.016846614138637774,0.61
0.011287938574156,0.611
0.0058019383534387145,0.612
0.0012108264826291271,0.613
-0.0020909887041492946,0.614
-0.004083274759160415,0.615
-0.004953683920483625,0.616
-0.004926962680310776,0.617
-0.004181154868337405,0.618
-0.002886919078680463,0.619
-0.0013223010452297589,0.62
7.385054288956556e-05,0.621
0.0008197889557851235,0.622
0.0006136430958262364,0.623
-0.0005201187659001389,0.624
-0.0022546361580129642,0.625
-0.004121468149524951,0.626
-0.005725169043829308,0.627
-0.006904476476633949,0.628
-0.007753613617093606,0.629
-0.008508536545465963,0.63
-0.009378298562067058,0.631
-0.010406312858657885,0.632
-0.01140584858906365,0.633
-0.011960330262677147,0.634
-0.011495360784455334,0.635
-0.0094876731829131,0.636
-0.005765586853872306,0.637
-0.0006918533680720077,0.638
0.004885391673863887,0.639
0.009886968376553925,0.64
0.013432643673480918,0.641
0.015235736334057582,0.642
0.015593907684173729,0.643
0.01497848853753296,0.644
0.013659978778106995,0.645
0.011677651130535654,0.646
0.009066426823500793,0.647
0.00606759114220711,0.648
0.0031342367354736103,0.649
0.0007565999263961531,0.65
-0.0007186756628722715,0.651
-0.0011518903544443983,0.652
-0.0006146547563526687,0.653
0.0005860947535690124,0.654
0.0019327364761316853,0.655
0.0028316701683233653,0.656
0.002792380307228094,0.657
0.0015649925249604532,0.658
-0.0007922006831390865,0.659
-0.003927802005934429,0.66
-0.007308291794457544,0.661
-0.010378411385264838,0.662
-0.012680155430685208,0.663
-0.013899651544687757,0.664
-0.013880477662748537,0.665
-0.012625737558718703,0.666
-0.010278891135524722,0.667
-0.007087707779741287,0.668
-0.003368850348391071,0.669
0.0005166894095143855,0.67
0.004179534924921204,0.671
0.007230609546901638,0.672
0.009332656620317594,0.673
0.010252836832985349,0.674
0.009906386202007839,0.675
0.00839382346562938,0.676
0.006003047952671672,0.677
0.0031491690635913725,0.678
0.0002877328862340466,0.679
-0.0021458216055289143,0.68
-0.0037927591656825867,0.681
-0.004468001865402722,0.682
-0.004246152449325617,0.683
-0.0034187072254414433,0.684
-0.002281805838496108,0.685
-0.0009095401968553357,0.686
0.0008493348885137752,0.687
0.0031296906340106114,0.688
0.00579853838006054,0.689
0.008394252510166848,0.69
0.010253837657745719,0.691
0.01075592170342876,0.692
0.009591864896072918,0.693
0.006901440458517886,0.694
0.0031847006655248587,0.695
-0.0009186076774315079,0.696
-0.0048382392376720125,0.697
-0.008168087447714705,0.698
-0.010641522925964833,0.699
-0.012093053344402254,0.7
-0.012458936371519062,0.701
-0.011764679825468406,0.702
-0.010104680101374953,0.703
-0.007649501212596353,0.704
-0.004652146306897862,0.705
-0.0014336595688008303,0.706
0.0016532598331384966,0.707
0.00428491264309456,0.708
0.006223999903759125,0.709
0.0073469200929941235,0.71
0.007642761592462504,0.711
0.0071880812510487805,0.712
0.006109026394060737,0.713
0.004559258251594525,0.714
0.0027200020097118997,0.715
0.0007964015897549883,0.716
-0.0010126874757916988,0.717
-0.0025502250620124097,0.718
-0.0036895767911876718,0.719
-0.004282092413252321,0.72
-0.0041428907069236,0.721
-0.0031207814235213243,0.722
-0.0012080111206320726,0.723
0.0013974829415422526,0.724
0.004323412624999193,0.725
0.007094887054951285,0.726
0.009167934666157776,0.727
0.009944557600749766,0.728
0.008901085086377054,0.729
0.005919338646977487,0.73
0.0015988632174647663,0.731
-0.002854073682529438,0.732
-0.006183624281194231,0.733
-0.007667293079067311,0.734
-0.007351303652615878,0.735
-0.005861775537354102,0.736
-0.003974812469715453,0.737
-0.002260799807443727,0.738
-0.0009965079601014458,0.739
-0.00026657136623129286,0.74
-6.830746098126332e-05,0.741
-0.0003437886609783915,0.742
-0.0009726545811149401,0.743
-0.0017770327462339856,0.744
-0.0025570665131744545,0.745
-0.003128118059587551,0.746
-0.0033272357393136073,0.747
-0.0030118691945246975,0.748
-0.0021087641048103127,0.749
-0.0007145235961085437,0.75
0.0008402129731193678,0.751
0.0020630496741190292,0.752
0.002522699629596479,0.753
0.0021032792980437034,0.754
0.00111406347700819,0.755
0.00016529661964341375,0.756
-0.00014609235603059542,0.757
0.0004393436627438906,0.758
0.0017362013589739733,0.759
0.0032671205636414925,0.76
0.004508921618935096,0.761
0.005076396493077652,0.762
0.004807482607836777,0.763
0.003764235308634062,0.764
0.0021734225890628254,0.765
0.00034926438641161794,0.766
-0.0013688000095708034,0.767
-0.002668649441443942,0.768
-0.00332534326439031,0.769
-0.0032529293896596373,0.77
-0.002512022986515818,0.771
-0.0012699730874527948,0.772
0.00025477934543819975,0.773
0.0018495406326015295,0.774
0.0033565997516988334,0.775
0.004677219302113126,0.776
0.005715059698906505,0.777
0.00629254959237633,0.778
0.006108419195453787,0.779
0.004829414691983622,0.78
0.002317109546924622,0.781
-0.0011746950560699496,0.782
-0.0049895844614822205,0.783
-0.008255452094864816,0.784
-0.010185129805284045,0.785
-0.010358887224700002,0.786
-0.00885768632503621,0.787
-0.006197099376110711,0.788
-0.0031157523591595453,0.789
-0.0003377574761119751,0.79
0.0016008836050942965,0.791
0.0024468198353567,0.792
0.002244442071262285,0.793
0.0012657874535243212,0.794
-0.00011372493748121405,0.795
-0.0015373128409641363,0.796
-0.0027443200299517813,0.797
-0.003586604156588405,0.798
-0.00399429843784423,0.799
-0.003919467959297354,0.8
-0.0032956050664580128,0.801
-0.0020482873265044803,0.802
-0.0001613810675160547,0.803
0.002242214232070958,0.804
0.004870713887963785,0.805
0.007340030537807945,0.806
0.009336616825088394,0.807
0.010711300060464012,0.808
0.011380544811632731,0.809
0.011178855417453226,0.81
0.009902198058840279,0.811
0.0075206708069741595,0.812
0.004319175705298022,0.813
0.0008369914351417209,0.814
-0.00231602551830517,0.815
-0.004657344223484757,0.816
-0.0059891531295314555,0.817
-0.006454338513388534,0.818
-0.006436247038644153,0.819
-0.006342552143304734,0.82
-0.006381983436416363,0.821
-0.0064489161410821415,0.822
-0.006208535712390884,0.823
-0.005343804565169237,0.824
-0.0037897743028873394,0.825
-0.0017993774481715867,0.826
0.00018422627077785883,0.827
0.001731908615367696,0.828
0.0025802862592934303,0.829
0.002687627574541388,0.83
0.0021958639658645656,0.831
0.0013393581550622594,0.832
0.00036884647524194555,0.833
-0.00047978540643308764,0.834
-0.0009917589999143659,0.835
-0.000986502228969312,0.836
-0.00035454664939473825,0.837
0.0008947177003151108,0.838
0.002605944401068212,0.839
0.004479426718543595,0.84
0.006092867915115561,0.841
0.006960786480091266,0.842
0.006652319097076723,0.843
0.004947382891008185,0.844
0.0019693410353132826,0.845
-0.0017857852197332694,0.846
-0.005572793796470601,0.847
-0.008627302633874848,0.848
-0.010376986527394109,0.849
-0.010547397683424045,0.85
-0.009170079030171106,0.851
-0.006539145842120058,0.852
-0.003137557597360468,0.853
0.0004674122505871741,0.854
0.0037349144506487967,0.855
0.006238500389039914,0.856
0.007721700507500812,0.857
0.008101443859513823,0.858
0.007423976719443164,0.859
0.005829637574713367,0.86
0.003565941354442627,0.861
0.0010142817648258248,0.862
-0.0013364464482486242,0.863
-0.002981553289537126,0.864
-0.003508029471975643,0.865
-0.00266907498861271,0.866
-0.0004209271058717894,0.867
0.003037315929344278,0.868
0.007191536885562773,0.869
0.011161360266062919,0.87
0.013787971459933459,0.871
0.013932923437930842,0.872
0.010906406864114863,0.873
0.004822610353817307,0.874
-0.0033153221826623786,0.875
-0.011893693439735772,0.876
-0.019216857221868573,0.877
-0.02401294843925548,0.878
-0.025694820573905295,0.879
-0.024320883752514302,0.88
-0.020370568067724318,0.881
-0.014513814393554305,0.882
-0.007458919886488228,0.883
0.00012454312180932957,0.884
0.007613290058218478,0.885
0.014387866562337159,0.886
0.01978483684830186,0.887
0.02309327818976707,0.888
0.02366949607865648,0.889
0.021207432766205545,0.89
0.016018869761686712,0.891
0.009080866138803184,0.892
0.0017765865028692008,0.893
-0.0045405510229494725,0.894
-0.008940631643958004,0.895
-0.011083534170304752,0.896
-0.011157826629527554,0.897
-0.009709935442476154,0.898
-0.007425562507369726,0.899
-0.004905214522757025,0.9
-0.002519172437337952,0.901
-0.000407646404071711,0.902
0.001406172195286692,0.903
0.0028956421946948574,0.904
0.003976095921162142,0.905
0.004522405591654627,0.906
0.00444016246636331,0.907
0.003750433201948308,0.908
0.0026082949038486467,0.909
0.0012159281865090279,0.91
-0.00028000227918004736,0.911
-0.001796468513104626,0.912
-0.0032435698550820355,0.913
-0.0044702498846167695,0.914
-0.005280961286588274,0.915
-0.0055006246543397065,0.916
-0.0050333936348604365,0.917
-0.0038920645921132094,0.918
-0.00220847818275548,0.919
-0.00022804565002785044,0.92
0.001719873955789828,0.921
0.003279470294386698,0.922
0.004154592139256234,0.923
0.00419744799321597,0.924
0.003438263486992757,0.925
0.002035909596553268,0.926
0.0002164736431052038,0.927
-0.0017373320021711182,0.928
-0.0034657488486355354,0.929
-0.004541196956380615,0.93
-0.00454031595067611,0.931
-0.0031547455161669465,0.932
-0.00029082818783087154,0.933
0.003860734988773537,0.934
0.008772933438247747,0.935
0.013550430539708341,0.936
0.01697607716845603,0.937
0.017749590109236175,0.938
0.014989642455740814,0.939
0.008790481717877193,0.94
0.0003704127247289859,0.941
-0.00834215741852154,0.942
-0.015381532598204425,0.943
-0.01937527093979759,0.944
-0.019916967153679393,0.945
-0.017527980368181203,0.946
-0.013289127875212284,0.947
-0.00838276370058013,0.948
-0.0037619272154999477,0.949
-1.3316879064208462e-05,0.95
0.002645620917490075,0.951
0.004275925960168906,0.952
0.005064157624745838,0.953
0.0051917303797435,0.954
0.004798290947218638,0.955
0.004026033102359893,0.956
0.003077472941067689,0.957
0.002217030130700279,0.958
0.0016773302613357476,0.959
0.001527335832335125,0.96
0.0016339075243194192,0.961
0.0017575970745176937,0.962
0.0016849498358283668,0.963
0.0013069606737129724,0.964
0.0006398875578441208,0.965
-0.00018766805364084369,0.966
-0.00096632494718341,0.967
-0.001445616360604502,0.968
-0.0013894896774262783,0.969
-0.0006506751638632511,0.97
0.0007660431795966494,0.971
0.0026815054424882347,0.972
0.0047609915820225794,0.973
0.006569120326461891,0.974
0.007670401442933217,0.975
0.007736988188806061,0.976
0.006591379541361692,0.977
0.004216902854326071,0.978
0.0008067297660117889,0.979
-0.0031917988886098103,0.98
-0.007114932007237969,0.981
-0.010221587873726186,0.982
-0.01189730067212439,0.983
-0.011837583073164371,0.984
-0.010128855175852818,0.985
-0.0072064560239719685,0.986
-0.003721121234069688,0.987
-0.0003485685388131439,0.988
0.002415953716891536,0.989
0.004379778467975595,0.99
0.00559455533645043,0.991
0.006173393652435537,0.992
0.006166555795800151,0.993
0.005579357314176463,0.994
0.004435152792258734,0.995
0.002792787185607092,0.996
0.0007685130707105136,0.997
-0.001394313566713207,0.998
-0.00330429597251002,0.999
-0.004536672081195088,1.0
-0.00480820051766588,1.001
-0.004081256746922059,1.002
-0.002556928544496785,1.003
-0.0005908740722949868,1.004
0.0014147034430207121,1.005
0.003099124427326017,1.006
0.00420023309780921,1.007
0.004581487084861636,1.008
0.00422820069353268,1.009
0.0032285476999881187,1.01
0.0017621471827559388,1.011
9.149951067402035e-05,1.012
-0.001474627518806146,1.013
-0.002654247726171195,1.014
-0.003265021992642504,1.015
-0.003259386802350164,1.016
-0.0027190745563321246,1.017
-0.001820545134432148,1.018
-0.0007782135130501292,1.019
0.00021737048993644522,1.02
0.0010446857256055035,1.021
0.0016725013914078006,1.022
0.0021505340740454785,1.023
0.0025640433748468855,1.024
0.00295798267955186,1.025
0.003262490015228251,1.026
0.003280627468715591,1.027
0.002766867731923079,1.028
0.0015754299818165481,1.029
-0.0001889486884771415,1.03
-0.002134900768032845,1.031
-0.0037049425426915234,1.032
-0.004370674928659351,1.033
-0.00383596087004786,1.034
-0.0022219407669592816,1.035
-0.00015454966693422941,1.036
0.001370333160528006,1.037
0.0014283092547214854,1.038
-0.00021838982699678476,1.039
-0.002816200431425311,1.04
-0.005029556527348283,1.041
-0.0057668184908551984,1.042
-0.004725929382893849,1.043
-0.002359263917239032,1.044
0.0005135211052927235,1.045
0.0030893584834263584,1.046
0.00480031512597905,1.047
0.0053999849257715645,1.048
0.0049659870852547285,1.049
0.003812727889311339,1.05
0.0023403363530999314,1.051
0.0009168716509277135,1.052
-0.00016102905583351216,1.053
-0.0006926958194533458,1.054
-0.0006207692651236633,1.055
-4.926143755744266e-05,1.056
0.0008054124548634433,1.057
0.001687205809371831,1.058
0.0023477467296540645,1.059
0.0025794003136615498,1.06
0.0022513118256235185,1.061
0.0013327609985254174,1.062
-9.612581025271959e-05,1.063
-0.001838246199268611,1.064
-0.003599938406236452,1.065
-0.0050458768089436095,1.066
-0.005871256856010775,1.067
-0.005880613790999026,1.068
-0.005051577223142524,1.069
-0.003551064167462594,1.07
-0.0016899876019068128,1.071
0.00017123152195079616,1.072
0.001728139624353817,1.073
0.0028022316896196145,1.074
0.003358084308591182,1.075
0.0034786901853521867,1.076
0.0033101668387207055,1.077
0.0029981795412208443,1.078
0.0026529868155154702,1.079
0.0023487047420305764,1.08
0.002133114183728858,1.081
0.0020355834727391483,1.082
0.0020619927740474675,1.083
0.002175868257010696,1.084
0.0022939983514542275,1.085
0.0023079352577372535,1.086
0.0021128240354290036,1.087
0.0016341894957169617,1.088
0.0008554810492897154,1.089
-0.00016067521547073882,1.09
-0.0012815611961696546,1.091
-0.00235775677162297,1.092
-0.0032882523252200906,1.093
-0.004043951329186521,1.094
-0.004642692429675293,1.095
-0.0051119623438569736,1.096
-0.005454927446420686,1.097
-0.005619144198381892,1.098
-0.005490685833632015,1.099
-0.004932865270187942,1.1
-0.0038533873568946577,1.101
-0.0022634966718206987,1.102
-0.00030045729853581625,1.103
0.0017920686698815911,1.104
0.003716574970943612,1.105
0.00519820711088101,1.106
0.00606527709318835,1.107
0.00628584265832665,1.108
0.005929829971353239,1.109
0.005101143031907833,1.11
0.0039026810228628885,1.111
0.002436577620060721,1.112
0.0008200931317569834,1.113
-0.000785822009615083,1.114
-0.0021633525085061928,1.115
-0.0030832404715552,1.116
-0.003389555792097405,1.117
-0.0030562804191413833,1.118
-0.002189594918855061,1.119
-0.000987914171857769,1.12
0.0003220843392248815,1.121
0.0015404572651875178,1.122
0.0025183199368294805,1.123
0.003156351649821982,1.124
0.0033932386457510093,1.125
0.0032007025159779693,1.126
0.0025890265724939163,1.127
0.0016117406926172667,1.128
0.0003626767306641783,1.129
-0.0010276326483528184,1.13
-0.002395647736831828,1.131
-0.00355871727481484,1.132
-0.004340572607636931,1.133
-0.004600646592439783,1.134
-0.004264283614470681,1.135
-0.0033520637448471047,1.136
-0.001992022202676851,1.137
-0.0003983091129340473,1.138
0.0011745803146718623,1.139
0.0024824397590911384,1.14
0.003340557233261714,1.141
0.0036584776443890172,1.142
0.0034401693146725696,1.143
0.002760622810886561,1.144
0.0017366451563076955,1.145
0.0004956112425396934,1.146
-0.0008366304432520444,1.147
-0.0021243879923024487,1.148
-0.0032244020561754015,1.149
-0.004009869482091391,1.15
-0.004377639893263245,1.151
-0.004229871834321828,1.152
-0.0034685568017606447,1.153
-0.0020282969803704655,1.154
7.121342759917606e-05,1.155
0.0026865740569574897,1.156
0.005531473150010085,1.157
0.008174850259759555,1.158
0.010087042446817452,1.159
0.010761892504510387,1.16
0.009877588569230343,1.161
0.007412472702420535,1.162
0.003673976464524005,1.163
-0.0007491669118144381,1.164
-0.005106686842996236,1.165
-0.008663940627833992,1.166
-0.010878962396641297,1.167
-0.01151914206526884,1.168
-0.01068959808138953,1.169
-0.008761709024801551,1.17
-0.0062256660891535035,1.171
-0.0035452899943951457,1.172
-0.0010768840946989817,1.173
0.0009527517228228733,1.174
0.002436453968869507,1.175
0.0033610937140211923,1.176
0.0037796483977902097,1.177
0.0037849693580284645,1.178
0.0034813499991030315,1.179
0.0029654472830955964,1.18
0.002330424086020243,1.181
0.0016748148342063396,1.182
0.001089168458287067,1.183
0.000629933062277558,1.184
0.0003111746694181819,1.185
0.0001360437669027881,1.186
0.0001528650279248912,1.187
0.00046666484942662885,1.188
0.0011544143249091557,1.189
0.002141890855609211,1.19
0.0031634169611309995,1.191
0.0038487092447026705,1.192
0.0038757488166428185,1.193
0.0031024463568839395,1.194
0.0016110546425714082,1.195
-0.00034051133366494446,1.196
-0.0023992519633098445,1.197
-0.004187709720333185,1.198
-0.005374013865904735,1.199
-0.005736762790822717,1.2
-0.005202919661764593,1.201
-0.003860544933464248,1.202
-0.0019474791460094504,1.203
0.00020020299468001903,1.204
0.002229946107291356,1.205
0.003847448908671587,1.206
0.0048608839009781,1.207
0.005191697554175505,1.208
0.004856617186481841,1.209
0.003932574845763416,1.21
0.002532072520352353,1.211
0.0008079121942397044,1.212
-0.0010341891754964397,1.213
-0.0027444814510627366,1.214
-0.004066758152285978,1.215
-0.004801261870171164,1.216
-0.004863985905732999,1.217
-0.00429909934761174,1.218
-0.0032460129409847918,1.219
-0.0018961936986852707,1.22
-0.00045386225116440446,1.221
0.0008940395568516437,1.222
0.00198740076343411,1.223
0.0026956932155504073,1.224
0.0029369076062588447,1.225
0.002704058965809208,1.226
0.002073212673277486,1.227
0.0011811578843884687,1.228
0.00018208995537581963,1.229
-0.0007877471017085515,1.23
-0.0016133388124500814,1.231
-0.002192270942831219,1.232
-0.002446768853409638,1.233
-0.0023443467587343975,1.234
-0.0019044738214673653,1.235
-0.0011960646209530706,1.236
-0.0003287068832357959,1.237
0.0005678238992422552,1.238
0.001372435308959984,1.239
0.001999326189695714,1.24
0.0024027656171741077,1.241
0.002551266181778017,1.242
0.0024045081818485376,1.243
0.001933266307487473,1.244
0.0011635367823730994,1.245
0.00020005452351668708,1.246
-0.0007749314241615855,1.247
-0.0015295997055169042,1.248
-0.0018481813309987976,1.249
-0.0016030625172273442,1.25
-0.0007988467544066429,1.251
0.0004180299898963024,1.252
0.0017940257455805926,1.253
0.003044647348887463,1.254
0.003937264237211536,1.255
0.00433973834000195,1.256
0.004219650160083044,1.257
0.0036112894488066105,1.258
0.0025822328244359573,1.259
0.0012244107271633334,1.26
-0.0003370922798685076,1.261
-0.001944335557225568,1.262
-0.0034252039730458543,1.263
-0.004623478610112832,1.264
-0.005428495672463535,1.265
-0.005781768135042397,1.266
-0.005655555287070519,1.267
-0.005042825064219404,1.268
-0.003979713531986629,1.269
-0.00257087492184922,1.27
-0.0009939591455315044,1.271
0.0005272586759938227,1.272
0.0017807470687110668,1.273
0.002616694240381587,1.274
0.0029577292006172265,1.275
0.002790163801359931,1.276
0.0021685079187278157,1.277
0.0012254799783908356,1.278
0.00015995858356977787,1.279
-0.0007981983082619602,1.28
-0.001430766148213634,1.281
-0.0015787083655680947,1.282
-0.0011830349916821515,1.283
-0.0002961905794745278,1.284
0.0009320148167091424,1.285
0.00228375753170561,1.286
0.003527845312796696,1.287
0.004479583907367988,1.288
0.005018785840575354,1.289
0.005077785859089247,1.29
0.004644435925038185,1.291
0.0037681844304910225,1.292
0.002545083047305796,1.293
0.0011033407732715058,1.294
-0.0004003521508903911,1.295
-0.0018002931336292306,1.296
-0.0029628290749003803,1.297
-0.0038136569593544417,1.298
-0.00433229527338342,1.299
-0.004535935016982657,1.3
-0.0044635029489458,1.301
-0.004159464908047961,1.302
-0.003671228392995092,1.303
-0.003050058775437944,1.304
-0.0023331555973017245,1.305
-0.0015290430141086347,1.306
-0.0006464345855576848,1.307
0.00025579975994749146,1.308
0.0010701777530493914,1.309
0.0016981808793700166,1.31
0.002092137087485145,1.311
0.0022468542953037536,1.312
0.0021717892687788316,1.313
0.0018875109701577922,1.314
0.001450660371447996,1.315
0.0009672607654995954,1.316
0.0005726868683475458,1.317
0.0003906454822913462,1.318
0.0004814334690900402,1.319
0.0008133661340164838,1.32
0.0012930559234908977,1.321
0.0018157759358612018,1.322
0.00228651645402046,1.323
0.002617207297486878,1.324
0.002720564884221772,1.325
0.0025213473199588526,1.326
0.0019808861111558318,1.327
0.0011096759655039106,1.328
-2.860332668936509e-05,1.329
-0.0013171769172307952,1.33
-0.0026001857476681657,1.331
-0.0037043589666527596,1.332
-0.004463276405653538,1.333
-0.004753006107332344,1.334
-0.0045334182880913875,1.335
-0.003864226832637122,1.336
-0.002874423496951202,1.337
-0.001707226987834369,1.338
-0.0004829987511685748,1.339
0.0007039834276980589,1.34
0.001764759084579914,1.341
0.0025904941968513456,1.342
0.0030564317904927013,1.343
0.0030747202558986907,1.344
0.0026592258652318105,1.345
0.0019362108509575347,1.346
0.0010918004887138673,1.347
0.0003146766378822281,1.348
-0.00023086709527647033,1.349
-0.0004240378806176653,1.35
-0.00021642855383199804,1.351
0.00034682535728753293,1.352
0.0011333532367401905,1.353
0.001958739509965112,1.354
0.002630136873151835,1.355
0.002977607928571525,1.356
0.0028811744562672057,1.357
0.0022949512904129996,1.358
0.001246595313982449,1.359
-0.00018164561253663337,1.36
-0.001856516028157889,1.361
-0.0035812971675651005,1.362
-0.005104265576434935,1.363
-0.006165047170383114,1.364
-0.00655662444832755,1.365
-0.0061740325652196466,1.366
-0.005038316824194794,1.367
-0.00329522485022847,1.368
-0.0011896510771834032,1.369
0.0009758682777485673,1.37
0.0028931658227318393,1.371
0.004313644207225503,1.372
0.005105482973669401,1.373
0.0052600755000993355,1.374
0.004851975324753691,1.375
0.004007057097261595,1.376
0.002894133609216765,1.377
0.001708292789482795,1.378
0.0006334122064844125,1.379
-0.0002017152236355205,1.38
-0.0007479616416839926,1.381
-0.0010191876272832607,1.382
-0.0010486107740575155,1.383
-0.0008614007708361001,1.384
-0.0004810544418037511,1.385
5.247981205830066e-05,1.386
0.0006711771070203098,1.387
0.0012755307989730164,1.388
0.00174581943639059,1.389
0.001967371186618127,1.39
0.0018550898768842786,1.391
0.001365280649725559,1.392
0.0004961419824289777,1.393
-0.0007085193855177682,1.394
-0.0021506965220245253,1.395
-0.003669992026779821,1.396
-0.005036613663821992,1.397
-0.005973922762010374,1.398
-0.006232588780564293,1.399
-0.005680957196918645,1.4
-0.004357387667132638,1.401
-0.002460891422473191,1.402
-0.0002899622506991104,1.403
0.0018398098649025937,1.404
0.0036665637925647667,1.405
0.005022776392144368,1.406
0.00583452292735215,1.407
0.006085612908328563,1.408
0.005783218776535627,1.409
0.00495625377743976,1.41
0.003685078833506485,1.411
0.002127978212484617,1.412
0.0005035859127415458,1.413
-0.000962202125867498,1.414
-0.002086693006840095,1.415
-0.0027652808284099684,1.416
-0.00298573404875091,1.417
-0.002814652200975459,1.418
-0.0023641568301888366,1.419
-0.0017549394146266612,1.42
-0.0010904338981177007,1.421
-0.00045021550276305754,1.422
0.00010174164640863804,1.423
0.0005108595079631805,1.424
0.0007385668631144815,1.425
0.0007696138363351823,1.426
0.0006128168611802224,1.427
0.00030700798486049934,1.428
-7.00184827414951e-05,1.429
-0.0004154688364418652,1.43
-0.000643423744461199,1.431
-0.0007109060109236516,1.432
-0.0006010681513114271,1.433
-0.00030695262432161197,1.434
0.00014825393056133317,1.435
0.0006902042939005091,1.436
0.001207212425613162,1.437
0.0015856410630399435,1.438
0.0017479896636882518,1.439
0.0016786298234448829,1.44
0.0014120844236165575,1.441
0.0009880415208113524,1.442
0.0004238323812589313,1.443
-0.0002650575227070924,1.444
-0.001025881251349461,1.445
-0.0017591961918245298,1.446
-0.0023526011013670746,1.447
-0.0027215072048256727,1.448
-0.002823314514334376,1.449
-0.002649580451808392,1.45
-0.002210289140928672,1.451
-0.001526648595239728,1.452
-0.0006457561962615573,1.453
0.00034135348954060106,1.454
0.0013058046418365286,1.455
0.002107708624627207,1.456
0.002631766417022953,1.457
0.0028267669793582075,1.458
0.0027179701310370277,1.459
0.002368234984489547,1.46
0.0018357297336478206,1.461
0.0011758189286844361,1.462
0.00045805558389626095,1.463
-0.0002345182083240009,1.464
-0.0008161412212515422,1.465
-0.0012096141293452068,1.466
-0.0013580786848543273,1.467
-0.0012361825466216728,1.468
-0.0008530440563438998,1.469
-0.0002502548148354145,1.47
0.0004896965490517355,1.471
0.0012320135094381502,1.472
0.0018082965319857146,1.473
0.0020773029196021935,1.474
0.0019821104593281376,1.475
0.001557678467867231,1.476
0.0009037423755085971,1.477
0.00014781773530316296,1.478
-0.0005957048937753884,1.479
-0.0012514130328905842,1.48
-0.001781505747893851,1.481
-0.0021695711075862406,1.482
-0.0023966553567003617,1.483
-0.002421009659007522,1.484
-0.0021905418891643956,1.485
-0.0016871056973288942,1.486
-0.0009591030814623774,1.487
-0.00011481175536006444,1.488
0.0007068721776175534,1.489
0.0013666207579973127,1.49
0.001750312378450943,1.491
0.0017898412514939636,1.492
0.0014814760983062345,1.493
0.0008982811242913606,1.494
0.00018387112013072365,1.495
-0.00048646194424494004,1.496
-0.0009691514119477336,1.497
-0.0012038306724020103,1.498
-0.0012198960819232983,1.499
-0.0010872615032487716,1.5
-0.0008466132300537425,1.501
-0.0004870668569547914,1.502
1.3983575889434554e-05,1.503
0.0006368774593528917,1.504
0.0012952458918810527,1.505
0.001857126027854983,1.506
0.0021997919019208743,1.507
0.0022596138493818814,1.508
0.00204322258607705,1.509
0.001605086812604956,1.51
0.0010169899480977432,1.511
0.0003421390266039292,1.512
-0.00037224386771581486,1.513
-0.0010758701080180303,1.514
-0.0017001470648520143,1.515
-0.0021690538448736092,1.516
-0.002416366151935127,1.517
-0.002401082396549528,1.518
-0.0021224076674773436,1.519
-0.0016155965740596498,1.52
-0.0009297363279766821,1.521
-0.00011053710824924479,1.522
0.0007962654070232635,1.523
0.0017168745353304195,1.524
0.002526517890475969,1.525
0.003070661512236034,1.526
0.0032198088140084334,1.527
0.0029191026860445743,1.528
0.0022130231840016327,1.529
0.001237544228595227,1.53
0.00017215465981255,1.531
-0.0008216087801819168,1.532
-0.0016249093576449127,1.533
-0.002151895050779334,1.534
-0.002343814385066258,1.535
-0.002179847466434295,1.536
-0.001696917328901613,1.537
-0.0009967852699690354,1.538
-0.00022174933826822117,1.539
0.000490878565221538,1.54
0.00104698719940977,1.541
0.0014045775604027025,1.542
0.0015558281869366617,1.543
0.0014992437128552973,1.544
0.001218211021779004,1.545
0.0006861219404159205,1.546
-9.256746127405462e-05,1.547
-0.0010403473477396878,1.548
-0.0020123371664395825,1.549
-0.0028356621103290377,1.55
-0.0033380764957616034,1.551
-0.0033716695366000494,1.552
-0.002854306525970801,1.553
-0.0018143209006669233,1.554
-0.00040548197183818324,1.555
0.0011267628816520718,1.556
0.0025098844827118657,1.557
0.0035056563026383248,1.558
0.0039591679903055255,1.559
0.0038301070844203055,1.56
0.0031937761075327567,1.561
0.002213394865352921,1.562
0.0010906034875019083,1.563
1.613962453398839e-05,1.564
-0.0008507170290153883,1.565
-0.0013836110596958835,1.566
-0.0014958477205253527,1.567
-0.0011579317589665377,1.568
-0.00042430250980111017,1.569
0.00055306239270948,1.57
0.001553765243714727,1.571
0.002347065934564198,1.572
0.002743839404713764,1.573
0.0026337976501472527,1.574
0.0020086709580156193,1.575
0.0009578492135007995,1.576
-0.0003676422880766908,1.577
-0.0017983167249300735,1.578
-0.003169888337218993,1.579
-0.00432559431571025,1.58
-0.0051128064945642135,1.581
-0.005391317609586317,1.582
-0.005068047014654123,1.583
-0.004150669700052622,1.584
-0.002771535409885449,1.585
-0.0011484204678502215,1.586
0.0004880172842230133,1.587
0.0019522782464945414,1.588
0.003120013132295686,1.589
0.003912267381067338,1.59
0.004289823120130804,1.591
0.004261444447854638,1.592
0.0038775864181827034,1.593
0.003220301837040393,1.594
0.0024017727813080477,1.595
0.0015460617874757038,1.596
0.0007529091113472746,1.597
7.85942317063324e-05,1.598
-0.0004567996327074737,1.599
-0.0008611622738478074,1.6
-0.0011698556729751453,1.601
-0.001428094657229919,1.602
-0.0016520336973496938,1.603
-0.0018049435603849065,1.604
-0.001810381728489585,1.605
-0.0015970030596759613,1.606
-0.0011576004150386865,1.607
-0.0005832307996105373,1.608
-4.064047247796122e-05,1.609
0.0003004393862959809,1.61
0.0003474803029381939,1.611
0.00011994531154281443,1.612
-0.0002753193548167847,1.613
-0.0007009977818285474,1.614
-0.0010383481594446384,1.615
-0.0012002412743430575,1.616
-0.0011230925801214867,1.617
-0.0007696296513572927,1.618
-0.00014403359138197104,1.619
0.000695295599841775,1.62
0.0016334585623766183,1.621
0.0025133688880401585,1.622
0.003166634265312284,1.623
0.0034502583399831366,1.624
0.0032784709646838774,1.625
0.0026474277442224644,1.626
0.0016426475971286813,1.627
0.00041390723970367437,1.628
-0.0008613187064347785,1.629
-0.0019993569883900273,1.63
-0.0028336477735382546,1.631
-0.0032481001076686816,1.632
-0.003194979383418907,1.633
-0.002689318565998738,1.634
-0.0018031375786571695,1.635
-0.0006682718993123117,1.636
0.0005383591984955374,1.637
0.0016368808540788164,1.638
0.002483684169824385,1.639
0.0029799446247685698,1.64
0.0030557744200859676,1.641
0.0026656281729296235,1.642
0.0018170738792960444,1.643
0.0006117652887548606,1.644
-0.0007416353795026877,1.645
-0.001967335853376698,1.646
-0.002805102380599865,1.647
-0.003094531495861926,1.648
-0.0028142763819874266,1.649
-0.00206101826679223,1.65
-0.0010001902358906865,1.651
0.00017597983919811222,1.652
0.001282907321670773,1.653
0.0021729245921754603,1.654
0.002748699700735147,1.655
0.0029611716887818517,1.656
0.002796088723647448,1.657
0.0022601969489731573,1.658
0.0013896859880746504,1.659
0.0002760006300800272,1.66
-0.0009296939174615869,1.661
-0.0020493634674113737,1.662
-0.0029191056934404222,1.663
-0.0034151293542879707,1.664
-0.003468902616811808,1.665
-0.003076955744446311,1.666
-0.002309775055246326,1.667
-0.0013122475107479766,1.668
-0.0002725937921713329,1.669
0.0006362426652998776,1.67
0.00131046850196342,1.671
0.001736622771523067,1.672
0.001966659713146923,1.673
0.0020657476596867706,1.674
0.0020713561797678186,1.675
0.001983114153877167,1.676
0.001775921131864446,1.677
0.0014187015937120236,1.678
0.000898976291034663,1.679
0.0002564225003639757,1.68
-0.00040194337917870686,1.681
-0.0009346624647644391,1.682
-0.0012325141943499997,1.683
-0.001266371294184578,1.684
-0.0010864563582690405,1.685
-0.0007883867746822671,1.686
-0.0004655702086761262,1.687
-0.00016876680594252367,1.688
0.00010228449088121767,1.689
0.00037002236413097354,1.69
0.0006321330364186707,1.691
0.0008331291735389306,1.692
0.0008749133089351664,1.693
0.0006596895584996144,1.694
0.0001564940690022376,1.695
-0.0005453470799753478,1.696
-0.0012493208308616223,1.697
-0.0017270090231208757,1.698
-0.0018055358207100932,1.699
-0.001427380406355068,1.7
-0.0006647777133230788,1.701
0.00030981916850190755,1.702
0.0012890830551674196,1.703
0.0021027320508958643,1.704
0.002648273163932948,1.705
0.0028779145609061597,1.706
0.002777722663444265,1.707
0.002355523276037576,1.708
0.001638164632352865,1.709
0.0006862202434812118,1.71
-0.00038128973590728817,1.711
-0.0013947906678832838,1.712
-0.0021892121552334284,1.713
-0.0026614246816826187,1.714
-0.0027890182833973263,1.715
-0.0026047800096344717,1.716
-0.0021621327455695286,1.717
-0.0015300867003858714,1.718
-0.0007933462481074431,1.719
-3.2338667773242655e-05,1.72
0.0006879970663552181,1.721
0.0013067922119574373,1.722
0.0017555372904748112,1.723
0.0019702708844663817,1.724
0.0019220520314419468,1.725
0.0016245115999693508,1.726
0.0011125060441365404,1.727
0.0004406378346127397,1.728
-0.000292472405838915,1.729
-0.0009458475398397062,1.73
-0.0013787671461448054,1.731
-0.001504106941808281,1.732
-0.001324212435901294,1.733
-0.0009252178931868148,1.734
-0.00042972798710209795,1.735
5.73351949604841e-05,1.736
0.0004808414751798594,1.737
0.0008329842753612701,1.738
0.0011182710905066815,1.739
0.0013213730706162414,1.74
0.0014078459524948612,1.741
0.001341042738175167,1.742
0.0010970137122023155,1.743
0.0006810178768905476,1.744
0.00013835695669133565,1.745
-0.0004513411269899181,1.746
-0.0009913489501217163,1.747
-0.0013887717122718715,1.748
-0.001573378728979999,1.749
-0.0015049768333235693,1.75
-0.0011715226401101347,1.751
-0.0005983433692380717,1.752
0.00013166643977664385,1.753
0.0008847832983287703,1.754
0.0015221184468950015,1.755
0.0019408332413339547,1.756
0.0020851616540568723,1.757
0.0019437075433230543,1.758
0.0015421790289800452,1.759
0.0009303738599247736,1.76
0.00017020267379062135,1.761
-0.000666664008827735,1.762
-0.001494940164810443,1.763
-0.0022191914647678424,1.764
-0.0027445636136714116,1.765
-0.002983484794481656,1.766
-0.0028642977889979148,1.767
-0.00235636765097048,1.768
-0.001498970822912029,1.769
-0.0004084475947192457,1.77
0.000746238410646776,1.771
0.001792005437949881,1.772
0.0025900777668508446,1.773
0.0030424451744814904,1.774
0.003091579344248424,1.775
0.0027309109273601097,1.776
0.0020134510023491693,1.777
0.0010541304686962657,1.778
2.1411197808799385e-05,1.779
-0.0008953785095078089,1.78
-0.0015333982944954582,1.781
-0.0017954367176714436,1.782
-0.0016707031536435893,1.783
-0.001234978706660657,1.784
-0.0006263213332327134,1.785
6.583303893880385e-06,1.786
0.0005597784057097246,1.787
0.0009886765134453598,1.788
0.0012744971174856355,1.789
0.001387043164863373,1.79
0.0012806039041775162,1.791
0.0009184911769140957,1.792
0.0003082863242040608,1.793
-0.0004717648379274751,1.794
-0.001278330377207009,1.795
-0.0019473150816572216,1.796
-0.0023515318676646203,1.797
-0.0024361801834649048,1.798
-0.002218629147742715,1.799
-0.001760102352890537,1.8
-0.001132979009693391,1.801
-0.00040779254874800626,1.802
0.00034443422477027316,1.803
0.0010539538102759193,1.804
0.001663310673240353,1.805
0.00213760709316637,1.806
0.002465423739625249,1.807
0.0026516570651649667,1.808
0.0027060031952696557,1.809
0.0026279220808849814,1.81
0.0023920409643566638,1.811
0.0019533631198412177,1.812
0.0012854678069554365,1.813
0.00042495404602230875,1.814
-0.000517071073498381,1.815
-0.001389557791849548,1.816
-0.0020594905827267277,1.817
-0.002450984194763412,1.818
-0.0025492202351213664,1.819
-0.0023791155353494386,1.82
-0.00197513332009274,1.821
-0.0013731139733934316,1.822
-0.0006357058264082993,1.823
0.00012399010631276923,1.824
0.000755562488211081,1.825
0.001112992013942003,1.826
0.0011015937764658032,1.827
0.0007183487382698183,1.828
6.433821617527753e-05,1.829
-0.000686183711528581,1.83
-0.0013369733845714357,1.831
-0.0017102399313515915,1.832
-0.0016776952766633586,1.833
-0.0011954712717597348,1.834
-0.00032844415221062,1.835
0.000760631916868132,1.836
0.0018566514844185994,1.837
0.0027506447191585986,1.838
0.003287940515136667,1.839
0.0033966279358200006,1.84
0.003090382547257658,1.841
0.0024459184513137893,1.842
0.001571543116750393,1.843
0.0005746149900984273,1.844
-0.0004535727772551274,1.845
-0.0014182203910019686,1.846
-0.0022064143831920222,1.847
-0.002708362499491001,1.848
-0.002852397013050182,1.849
-0.002634925903961231,1.85
-0.0021309565088315115,1.851
-0.001468676533570725,1.852
-0.0007789064588105013,1.853
-0.0001514626834816257,1.854
0.0003763881552012004,1.855
0.0007965761509226591,1.856
0.0010921981608483415,1.857
0.0012143415237324217,1.858
0.0010962782358575848,1.859
0.0007040796013185594,1.86
8.663367117776877e-05,1.861
-0.0006194917432814938,1.862
-0.0012324242215871,1.863
-0.0015819460664758898,1.864
-0.0015552058043813816,1.865
-0.0011250256621588752,1.866
-0.00036151048572886197,1.867
0.00058446814046562,1.868
0.0015315590966201006,1.869
0.0023256435710175146,1.87
0.0028705264217907863,1.871
0.003122674582328906,1.872
0.0030703406102250627,1.873
0.002720521658469671,1.874
0.002100213563047741,1.875
0.001265611888320688,1.876
0.0003036945914230147,1.877
-0.0006813098924000038,1.878
-0.00158640714730334,1.879
-0.002326393517713202,1.88
-0.0028383456545897734,1.881
-0.0030704262352774683,1.882
-0.0029886869737177422,1.883
-0.002606117801553693,1.884
-0.0019808919538392695,1.885
-0.0011798401540087605,1.886
-0.0002593205234371678,1.887
0.0007246170651466521,1.888
0.0016985522417568885,1.889
0.0025532354496236695,1.89
0.0031431730573640965,1.891
0.0033335280786334015,1.892
0.0030667324785454194,1.893
0.002386350113925951,1.894
0.0014089459812377536,1.895
0.000283432096519577,1.896
-0.0008381248314349119,1.897
-0.0018200906399477765,1.898
-0.002550864542087089,1.899
-0.0029408765675562427,1.9
-0.0029302300446981534,1.901
-0.0025095913142525058,1.902
-0.001730292667571128,1.903
-0.0006962928260232538,1.904
0.00043593854868514753,1.905
0.0014526402733809581,1.906
0.0021141140741048163,1.907
0.0022326901269454076,1.908
0.0017556485413375309,1.909
0.0007912928789284631,1.91
-0.00043740119173390764,1.911
-0.0016649586928364915,1.912
-0.002647763984517963,1.913
-0.0032161528736545453,1.914
-0.0032985408103469887,1.915
-0.002906044178847252,1.916
-0.0020981596899819887,1.917
-0.0009648494983895033,1.918
0.00036662940102456007,1.919
0.0017286546089974432,1.92
0.0029352731907974156,1.921
0.0038209309471382174,1.922
0.004278382608346045,1.923
0.004274274958341029,1.924
0.003835466125164977,1.925
0.003031060478274453,1.926
0.0019687796792612127,1.927
0.0007947800912553926,1.928
-0.0003232964078812889,1.929
-0.0012286037799706022,1.93
-0.00179855444541128,1.931
-0.0019595163598571893,1.932
-0.0017088052584672197,1.933
-0.0011251646047558876,1.934
-0.0003477435309383977,1.935
0.0004598428262163639,1.936
0.0011445347584104837,1.937
0.001592068883451957,1.938
0.0017386440441378636,1.939
0.0015676888858338284,1.94
0.0011039400469355085,1.941
0.0004126872043634166,1.942
-0.00040150102450282725,1.943
-0.001213038860918768,1.944
-0.0019126012492759106,1.945
-0.002439517908742132,1.946
-0.0027884617447899926,1.947
-0.0029881235912240247,1.948
-0.0030554354308411605,1.949
-0.0029538609534261913,1.95
-0.0026014340752503577,1.951
-0.0019285132266778555,1.952
-0.0009390001282869231,1.953
0.00026539954057516735,1.954
0.0015081111777826253,1.955
0.0025871878573413415,1.956
0.0033213719473862975,1.957
0.0035824424036745694,1.958
0.0033209539408062443,1.959
0.002585713058546955,1.96
0.0015245858340987534,1.961
0.00035592549236478565,1.962
-0.0006855273682380614,1.963
-0.001406972413895761,1.964
-0.0016953118373957891,1.965
-0.0015257864508099281,1.966
-0.0009533521073622909,1.967
-0.00010179354564655014,1.968
0.0008536807662209118,1.969
0.001720420657269938,1.97
0.002328445034868309,1.971
0.0025614546001058794,1.972
0.0023742771191826873,1.973
0.0017914814546530313,1.974
0.0008920961368135351,1.975
-0.00020553700014079988,1.976
-0.00136454790146845,1.977
-0.002454895623666776,1.978
-0.00336145042811299,1.979
-0.003984062413355718,1.98
-0.004249806445148381,1.981
-0.004118394615980641,1.982
-0.0035749453001402316,1.983
-0.002639653394913846,1.984
-0.0013915061402640498,1.985
2.3267061893376457e-05,1.986
0.0014073930387672145,1.987
0.002554862834464641,1.988
0.0033089895617084025,1.989
0.0036052586320968355,1.99
0.003477218690669272,1.991
0.0030279097694320164,1.992
0.002386241731835674,1.993
0.0016714531227343702,1.994
0.0009776376116953246,1.995
0.0003716180224264305,1.996
-0.00010332414965071916,1.997
-0.0004076157200038989,1.998
-0.00048280219623278746,1.999
-0.00026921943007177324,2.0
0.00023717769863565764,2.001
0.0009431062952396128,2.002
0.001671829742658391,2.003
0.002221167116675521,2.004
0.00242734087317146,2.005
0.00220802236224707,2.006
0.0015745154935974228,2.007
0.0006156327900886746,2.008
-0.0005296096328062823,2.009
-0.0016975901687031056,2.01
-0.002728164264595648,2.011
-0.003491923312149114,2.012
-0.0039063069743407374,2.013
-0.003941605990750719,2.014
-0.003614761364341301,2.015
-0.0029700379573886796,2.016
-0.0020692411179352266,2.017
-0.0010059829926563786,2.018
8.534130459711371e-05,2.019
0.0010498095210608866,2.02
0.0017475188835622815,2.021
0.002087981750329836,2.022
0.0020491448693780866,2.023
0.0016731234708572146,2.024
0.0010541891659938325,2.025
0.0003259210466165502,2.026
-0.00036374688878049513,2.027
-0.0008791839294807536,2.028
-0.0011176271011610818,2.029
-0.0010393260607662613,2.03
-0.0006853083246032005,2.031
-0.00015131396686186158,2.032
0.00045210465769807346,2.033
0.0010248142269650832,2.034
0.0014990680438051066,2.035
0.0018508557865774592,2.036
0.0020840698143586777,2.037
0.002202177098606046,2.038
0.002188317257133968,2.039
0.0020033579553680562,2.04
0.0016092328121198453,2.041
0.001005654405626156,2.042
0.00024564077824863837,2.043
-0.0005819518252907813,2.044
-0.0013744707034344093,2.045
-0.0020240528242001015,2.046
-0.0024333466808000937,2.047
-0.0025474665366170225,2.048
-0.0023741067971476794,2.049
-0.0019743816363458817,2.05
-0.0014337847388417922,2.051
-0.0008270777304226227,2.052
-0.00019406199335296958,2.053
0.00045748983529221793,2.054
0.001117732851369501,2.055
0.0017271832232104234,2.056
0.002161547108772613,2.057
0.0022853774158376706,2.058
0.0020382512409484735,2.059
0.0014723398656304265,2.06
0.0007210354438165754,2.061
-5.4260046274067896e-05,2.062
-0.0007096363541226831,2.063
-0.0011544341411350773,2.064
-0.0013689913149969343,2.065
-0.0013952958704674578,2.066
-0.0013032555793732936,2.067
-0.0011546530583340059,2.068
-0.000979854162446537,2.069
-0.0007646978025191934,2.07
-0.0004625719193161338,2.071
-3.813358557212034e-05,2.072
0.0004858793933045255,2.073
0.001008436976364834,2.074
0.0013803424151300004,2.075
0.001484204107859754,2.076
0.0013015834830247285,2.077
0.0009117558278049342,2.078
0.0004458342504679777,2.079
3.438251232451325e-05,2.08
-0.00023318200856768795,2.081
-0.0003223293105934041,2.082
-0.00024533901783389573,2.083
-3.920943938409628e-05,2.084
0.00026115143095718297,2.085
0.0006317770761572759,2.086
0.001045731539362143,2.087
0.0014491511538213,2.088
0.0017458719132206443,2.089
0.0018154414904810474,2.09
0.0015623925666532023,2.091
0.0009635050218367898,2.092
8.539928731637425e-05,2.093
-0.0009385822319594866,2.094
-0.0019564846200860225,2.095
-0.0028271384417507227,2.096
-0.0034186317094957877,2.097
-0.0036169121907058998,2.098
-0.0033625587797390774,2.099
-0.002679628377528026,2.1
-0.0016712433686223557,2.101
-0.0004973042836097091,2.102
0.0006518500477039915,2.103
0.0015920568780389865,2.104
0.0021880314728575777,2.105
0.0023743029992892247,2.106
0.0021464723457054594,2.107
0.0015553639971968894,2.108
0.000715552675976344,2.109
-0.00019938992622710314,2.11
-0.0009878479448603285,2.111
-0.0014643844829502451,2.112
-0.0015036233279081203,2.113
-0.001076291130812372,2.114
-0.00026502488819486845,2.115
0.0007521897606664187,2.116
0.0017452393018601712,2.117
0.002492592998850391,2.118
0.0028506057403350914,2.119
0.002796632052310631,2.12
0.0024100219027782116,2.121
0.0018049053247463135,2.122
0.0010746194595265795,2.123
0.00029156489578059295,2.124
-0.0004640091879589914,2.125
-0.0010972196058882775,2.126
-0.0015258337378181136,2.127
-0.0017204307926627427,2.128
-0.0017133953344898153,2.129
-0.0015621947752748437,2.13
-0.0013106446273844644,2.131
-0.0009750223119709973,2.132
-0.0005515020552503338,2.133
-4.387542429203546e-05,2.134
0.0005076312494780102,2.135
0.0010256168909746812,2.136
0.0014232209619199471,2.137
0.0016301146682548503,2.138
0.0015995269714367147,2.139
0.0013122466765881984,2.14
0.000786573576411474,2.141
8.628202568050714e-05,2.142
-0.0006783133454711754,2.143
-0.0013691045240673807,2.144
-0.0018621711244807895,2.145
-0.0020855199029588055,2.146
-0.0020357033738044065,2.147
-0.0017736872657373403,2.148
-0.0013937299923170144,2.149
-0.0009822742626789604,2.15
-0.0005975158321353713,2.151
-0.00027025331658836384,2.152
-1.2395871797486956e-05,2.153
0.00017723536485765912,2.154
0.00031163895513023504,2.155
0.0004035802612295271,2.156
0.00044395252959065026,2.157
0.00040092937501492423,2.158
0.0002483350142209027,2.159
2.2399084117019435e-07,2.16
-0.0002720332906424799,2.161
-0.0004542217657141855,2.162
-0.0004241957973274208,2.163
-8.836821989815689e-05,2.164
0.0005797163903427541,2.165
0.0015095371289033468,2.166
0.002543851581490574,2.167
0.0034955772898669414,2.168
0.004207684292050594,2.169
0.004571982916448626,2.17
0.004520779732657697,2.171
0.004025189703542873,2.172
0.0031022502657560972,2.173
0.0018247987836450409,2.174
0.00032725834913831383,2.175
-0.0012136416040206873,2.176
-0.002620244044060789,2.177
-0.0037477574718920554,2.178
-0.004504029422177594,2.179
-0.004859719195352206,2.18
-0.004837162276400241,2.181
-0.004482451114202751,2.182
-0.0038521191684311056,2.183
-0.003023405262823435,2.184
-0.002097100470538549,2.185
-0.0011720404516615507,2.186
-0.00032109726367320545,2.187
0.00039227103000495677,2.188
0.0008845343960718456,2.189
0.0010726044652172844,2.19
0.000942048246086831,2.191
0.0005898453160179689,2.192
0.0001915777789161581,2.193
-8.082471186291436e-05,2.194
-0.0001281205085296253,2.195
6.764959172373167e-05,2.196
0.00048184440752568935,2.197
0.0010755869443206199,2.198
0.0017919185857016014,2.199
0.0025457557914600106,2.2
0.0032345706005670583,2.201
0.0037659992177791024,2.202
0.00408008448276527,2.203
0.004150540858539398,2.204
0.003962181768852801,2.205
0.0034907009283047575,2.206
0.0027162207071165863,2.207
0.0016517529795485122,2.208
0.0003477105746810061,2.209
-0.0011159507466801768,2.21
-0.0026179509484235766,2.211
-0.00398338064249724,2.212
-0.005010024554787505,2.213
-0.005526731772641377,2.214
-0.005446832347565609,2.215
-0.004794754239932585,2.216
-0.0036978096095982376,2.217
-0.002339667016536194,2.218
-0.0009018445946130061,2.219
0.0004700160195495048,2.22
0.0016736289331694817,2.221
0.0026375229749957423,2.222
0.0032924203158885257,2.223
0.0035598565799430004,2.224
0.0033765253780938197,2.225
0.0027270621798081767,2.226
0.001671993403119812,2.227
0.00037317452611763415,2.228
-0.0009205645845064506,2.229
-0.001953564381037801,2.23
-0.002551962545159797,2.231
-0.0026561658616253395,2.232
-0.0023110500825167506,2.233
-0.001645933650080863,2.234
-0.0008344308156772074,2.235
-3.453963799200039e-05,2.236
0.0006564664939359862,2.237
0.001208506302576923,2.238
0.001624710014579987,2.239
0.001891666429293577,2.24
0.0019619158540566542,2.241
0.0017874972421722025,2.242
0.0013692118410868566,2.243
0.0007727622747187505,2.244
0.00010355646641352085,2.245
-0.0005225391889874493,2.246
-0.0009857645772615112,2.247
-0.0011668110568810361,2.248
-0.0009764066643306486,2.249
-0.00039943128342661476,2.25
0.00047478942054380506,2.251
0.001455141708409866,2.252
0.0022987129567681773,2.253
0.0027920975538727015,2.254
0.0028092813703483486,2.255
0.0023250100090076286,2.256
0.001408814309923156,2.257
0.00020736705080986868,2.258
-0.0010880802431454226,2.259
-0.0022777950036592933,2.26
-0.0031862331512174167,2.261
-0.003687825409220995,2.262
-0.0037222034142450795,2.263
-0.003302217642014643,2.264
-0.002510984043713762,2.265
-0.0014819765571714406,2.266
-0.0003699301261311332,2.267
0.0006734915387070199,2.268
0.0015149614465004855,2.269
0.0020560668685508814,2.27
0.0022520230841996444,2.271
0.002117806171913756,2.272
0.001714677439595343,2.273
0.001129494110897466,2.274
0.0004645445760917363,2.275
-0.00017046135540864382,2.276
-0.0006836061437811191,2.277
-0.001028818980105383,2.278
-0.0011999152709893306,2.279
-0.0011969797182792466,2.28
-0.0010141894674626972,2.281
-0.0006562780489965844,2.282
-0.00014983610405703247,2.283
0.00045614355524735276,2.284
0.0010859096406385577,2.285
0.0016401765824134227,2.286
0.0020212344371726763,2.287
0.0021635125189648145,2.288
0.00205196425063332,2.289
0.0017195353523100595,2.29
0.0012228462563890388,2.291
0.000619738420926355,2.292
-3.436900533356083e-05,2.293
-0.0006826782780573695,2.294
-0.0012621452658704351,2.295
-0.0016970648371975913,2.296
-0.0019045005200291308,2.297
-0.0018220487827894556,2.298
-0.0014490767544450935,2.299
-0.0008738348873991429,2.3
-0.00025594625428682245,2.301
0.00023704140995464947,2.302
0.0005019306729212632,2.303
0.0005294811313478606,2.304
0.00037421866290284205,2.305
0.0001056473678687583,2.306
-0.000214414801183702,2.307
-0.0005300639987716156,2.308
-0.0007865238714682864,2.309
-0.0009364777323856812,2.31
-0.0009554658989785949,2.311
-0.000842136206890326,2.312
-0.0006007235944431313,2.313
-0.00023176651303331383,2.314
0.00026460751260841354,2.315
0.0008739113514559844,2.316
0.0015414614494656828,2.317
0.0021682577978983106,2.318
0.0026476669581574318,2.319
0.0029071954953599007,2.32
0.002913910247517654,2.321
0.002651040744530633,2.322
0.0021084743587676345,2.323
0.0013033370641705117,2.324
0.0003028718427915051,2.325
-0.0007819530695007545,2.326
-0.0018265388504980172,2.327
-0.0027137989953616715,2.328
-0.0033399453534894096,2.329
-0.0036256338790977933,2.33
-0.00353733991748747,2.331
-0.0031018513937914475,2.332
-0.0024037703528710683,2.333
-0.0015672715275906496,2.334
-0.0007165522520832737,2.335
7.161492218646614e-05,2.336
0.0007783715752651544,2.337
0.0014006092875720657,2.338
0.0019039063276127812,2.339
0.0022220639162586625,2.34
0.0022994520326715083,2.341
0.0021357457268980683,2.342
0.0017948636740561699,2.343
0.0013691911536967659,2.344
0.0009297567290948951,2.345
0.0005057393539404098,2.346
0.00010911363603655265,2.347
-0.0002270027368968487,2.348
-0.0004409735878089534,2.349
-0.00047632724054997373,2.35
-0.00032523241783792263,2.351
-3.6352108646150284e-05,2.352
0.00031226345248820393,2.353
0.0006324919316666053,2.354
0.0008280671233463976,2.355
0.0008051120869800723,2.356
0.0005072743718982376,2.357
-4.446642427502199e-05,2.358
-0.0007457232296977868,2.359
-0.0014443572257896314,2.36
-0.0019947050254664964,2.361
-0.0022944700723036286,2.362
-0.002284164854464349,2.363
-0.0019414063282104906,2.364
-0.001297249149639803,2.365
-0.000443206530142291,2.366
0.0004951671574304026,2.367
0.0013953037359419327,2.368
0.002157327199541056,2.369
0.0027039112934145924,2.37
0.002979466035667609,2.371
0.0029591395236482705,2.372
0.002656906021413462,2.373
0.002122191116520839,2.374
0.001421089796088215,2.375
0.000614234000550372,2.376
-0.00024679976473356317,2.377
-0.0011086737690304861,2.378
-0.0019065691193331557,2.379
-0.0025575938231490463,2.38
-0.00296716300670168,2.381
-0.0030612897167477922,2.382
-0.0028251282922337885,2.383
-0.0023113317400228223,2.384
-0.001615128869875031,2.385
-0.0008405224687206473,2.386
-7.68249089513597e-05,2.387
0.000610786228398315,2.388
0.0011806778047036668,2.389
0.001602307833124258,2.39
0.001842376821264252,2.391
0.0018665771509463831,2.392
0.0016560912721955718,2.393
0.0012360096183438197,2.394
0.0006949158333587052,2.395
0.00015835216956512985,2.396
-0.0002693772182712111,2.397
-0.0005367656440119994,2.398
-0.000628791234235374,2.399
-0.0005351794214801983,2.4
-0.00024354158568590166,2.401
0.0002346764578413165,2.402
0.0008352891472712716,2.403
0.0014426721170320235,2.404
0.0019145219965512803,2.405
0.002105645384730507,2.406
0.0019011215525174018,2.407
0.0012676747433171237,2.408
0.000290123463411039,2.409
-0.0008403976727164294,2.41
-0.0018855922255702892,2.411
-0.0026340501415270316,2.412
-0.002953519640990276,2.413
-0.0028120184960835288,2.414
-0.002272948864647494,2.415
-0.001469075966923086,2.416
-0.0005690317000177521,2.417
0.000260066317441192,2.418
0.0008960369490346136,2.419
0.0012880368169254288,2.42
0.0014497693758930119,2.421
0.0014333899633988166,2.422
0.0012981902741827968,2.423
0.0010858398952364142,2.424
0.0008176511485702011,2.425
0.0005120169260220092,2.426
0.00019982171534286462,2.427
-8.125048575270837e-05,2.428
-0.0003060521225253304,2.429
-0.00046486995059195446,2.43
-0.000544173999623594,2.431
-0.0005174055525353155,2.432
-0.00036307202056607,2.433
-8.820000506072403e-05,2.434
0.0002694003163969391,2.435
0.0006558096389829475,2.436
0.0010117348322972249,2.437
0.0012738523828167425,2.438
0.0013734811647084322,2.439
0.0012474103748758903,2.44
0.0008714796198187782,2.441
0.00029495733311825703,2.442
-0.00036288866474233237,2.443
-0.0009602550532301002,2.444
-0.001385850990118957,2.445
-0.0015880622455364392,2.446
-0.0015819011597097536,2.447
-0.0014307561715447873,2.448
-0.0012092344082946058,2.449
-0.000970969619047266,2.45
-0.0007279339667699179,2.451
-0.00044755801507162377,2.452
-8.314740648485646e-05,2.453
0.00038162976973641,2.454
0.0009106341626532628,2.455
0.0014212546216993028,2.456
0.00181073112359515,2.457
0.001988484457203008,2.458
0.001893249627411957,2.459
0.0015073808358422637,2.46
0.0008824952033439323,2.461
0.00014108658082708905,2.462
-0.0005644676084385373,2.463
-0.0010981622258430536,2.464
-0.0013665928821323477,2.465
-0.0013337877762554216,2.466
-0.001024528844647128,2.467
-0.0005079076105633111,2.468
0.00012629383538090923,2.469
0.0007769059702949052,2.47
0.0013311083798069438,2.471
0.0016778675482084428,2.472
0.0017357683535098784,2.473
0.0014745846844149934,2.474
0.0009182489612194779,2.475
0.00013279133765774687,2.476
-0.0007890051061490635,2.477
-0.0017345647045156076,2.478
-0.0025680502529159127,2.479
-0.003133507982256958,2.48
-0.0032849657296556917,2.481
-0.002940919108885228,2.482
-0.0021283847290397913,2.483
-0.0009776284403953228,2.484
0.0003216521845512357,2.485
0.001566368288719591,2.486
0.002580209891768137,2.487
0.003243899914402529,2.488
0.0035024948642666197,2.489
0.003353941752263703,2.49
0.002836449687463714,2.491
0.0020223994857604343,2.492
0.0010127117911586498,2.493
-6.72912625339174e-05,2.494
-0.0010661287463899502,2.495
-0.0018198127307440795,2.496
-0.0021987655450062503,2.497
-0.00215931417478461,2.498
-0.001762839475854124,2.499
-0.0011544033890873522,2.5
-0.0005046995539908286,2.501
5.6858017869818896e-05,2.502
0.0004692526242707967,2.503
0.0007223926779438584,2.504
0.0008301038238742463,2.505
0.0008105006962907155,2.506
0.000680450999848407,2.507
0.00046542409745192834,2.508
0.00020138712623055978,2.509
-8.24071003025122e-05,2.51
-0.00037180804903944856,2.511
-0.0006512785549119717,2.512
-0.0008851296039383953,2.513
-0.0010146338185822068,2.514
-0.0009742806633873174,2.515
-0.0007292370724948398,2.516
-0.00031201021710713873,2.517
0.00018182775459692975,2.518
0.0006417996083614811,2.519
0.0009906903152811881,2.52
0.0011987570334375955,2.521
0.0012682481219205685,2.522
0.0012073519063125373,2.523
0.0010160971305420174,2.524
0.0006998308151275985,2.525
0.0002912921551781883,2.526
-0.00014478042441959656,2.527
-0.0005240878070082896,2.528
-0.0007704966078058305,2.529
-0.0008484817365659028,2.53
-0.000772828607214957,2.531
-0.0005856146680490105,2.532
-0.0003233331861102059,2.533
-1.1016443841789105e-05,2.534
0.00031740186414326913,2.535
0.0006117572500004649,2.536
0.0008210549810285606,2.537
0.0009095599617488678,2.538
0.0008663670913662219,2.539
0.0007075020776777893,2.54
0.0004648154123025076,2.541
0.0001697014590133038,2.542
-0.00015448005415072378,2.543
-0.00048341713697806624,2.544
-0.0007755716926326137,2.545
-0.000979083146190735,2.546
-0.0010530490738983496,2.547
-0.0009631060302501221,2.548
-0.0006759663801182326,2.549
-0.0001897906615530672,2.55
0.00043308411829211994,2.551
0.0010662244815435342,2.552
0.0015549664577533305,2.553
0.0017779413628547006,2.554
0.0016923451520732575,2.555
0.0013285799171683238,2.556
0.00075901493405329,2.557
8.0482884642218e-05,2.558
-0.0005925403562834353,2.559
-0.0011507825996679407,2.56
-0.0015218223521475769,2.561
-0.0016810796484062122,2.562
-0.001646951366646203,2.563
-0.0014710947969045136,2.564
-0.0012121670430639898,2.565
-0.0009099345403956083,2.566
-0.0005884250963047788,2.567
-0.00027221005667045137,2.568
9.450202133655096e-06,2.569
0.00023400231359093756,2.57
0.0004018246293570639,2.571
0.0005307283701562314,2.572
0.0006257308269304186,2.573
0.0006638762745286471,2.574
0.0006100514494002892,2.575
0.00044013672134505556,2.576
0.00016120660356231222,2.577
-0.00017229573605937493,2.578
-0.00046274370086397173,2.579
-0.0006026835163124204,2.58
-0.0005185452571499085,2.581
-0.00019276433713427438,2.582
0.0003467670141602613,2.583
0.0010412654337013177,2.584
0.0017986037571307068,2.585
0.002496748536733402,2.586
0.003008094309719869,2.587
0.0032281501892605586,2.588
0.0030916336683519596,2.589
0.002569928494200986,2.59
0.0016655808636651585,2.591
0.00042797745172688405,2.592
-0.00102149770243413,2.593
-0.002488683464464616,2.594
-0.0037373606054741976,2.595
-0.004537844759089302,2.596
-0.00472474136394978,2.597
-0.0042476544803718335,2.598
-0.0031905913819234525,2.599
-0.0017510002981666875,2.6
-0.00018555061241344668,2.601
0.0012568632055682688,2.602
0.0023899721915755933,2.603
0.0031104517946555586,2.604
0.0033741385982276315,2.605
0.00316674053668585,2.606
0.002517392130002195,2.607
0.0015312361446677243,2.608
0.0003787891688753608,2.609
-0.0007609132488808207,2.61
-0.001745623759875224,2.611
-0.002467489318598191,2.612
-0.0028259104581594106,2.613
-0.002725631268908526,2.614
-0.0021214659504288015,2.615
-0.0010700545966460732,2.616
0.0002655142171775788,2.617
0.0016566508053417423,2.618
0.002858789741348431,2.619
0.003659762579801644,2.62
0.00393013691210128,2.621
0.003652576418073603,2.622
0.0029123576905175017,2.623
0.0018642326381698143,2.624
0.0006930190750424833,2.625
-0.0004260649437158457,2.626
-0.0013552562162467364,2.627
-0.002003769932663145,2.628
-0.0023347083158570298,2.629
-0.0023726091258505022,2.63
-0.0021881016118375034,2.631
-0.0018638762650868216,2.632
-0.0014773996982166524,2.633
-0.0011041887425712355,2.634
-0.0008100414440491278,2.635
-0.0006243561064769469,2.636
-0.0005282032326856492,2.637
-0.000477764065859863,2.638
-0.00044078579551177545,2.639
-0.00041709135365906955,2.64
-0.0004351004737932836,2.641
-0.0005258499903365992,2.642
-0.0006823356940991662,2.643
-0.0008364073844765942,2.644
-0.0008791532653965082,2.645
-0.0007057361227283215,2.646
-0.00025379591891619153,2.647
0.0004759618836168634,2.648
0.0014129227996157456,2.649
0.0024239821178264364,2.65
0.0033451271884501225,2.651
0.004027843689840105,2.652
0.004373562417906771,2.653
0.0043384761919679875,2.654
0.003911810180599238,2.655
0.003095454244406277,2.656
0.0019142961962508715,2.657
0.0004466255926649837,2.658
-0.0011602583478219097,2.659
-0.0026982320535264377,2.66
-0.003930561775666319,2.661
-0.004656579666496242,2.662
-0.004780016334190984,2.663
-0.004333702765116977,2.664
-0.0034565908405166036,2.665
-0.0023419742132440658,2.666
-0.0011790719184009094,2.667
-0.000118809892731606,2.668
0.0007358897573015052,2.669
0.0013372274120115562,2.67
0.0016899076211087825,2.671
0.0018305352761231312,2.672
0.0018125659342363612,2.673
0.0017040258170776402,2.674
0.0015707492122658897,2.675
0.0014399028574831087,2.676
0.001280707847760927,2.677
0.0010334891429026258,2.678
0.0006655920275969394,2.679
0.00020336155631930954,2.68
-0.0002767092501583439,2.681
-0.0006814117802030651,2.682
-0.0009344905350818101,2.683
-0.0009870420908780152,2.684
-0.0008135686253297946,2.685
-0.0004204670215838276,2.686
0.00013163095367293913,2.687
0.0007128797494347949,2.688
0.0011418311094261331,2.689
0.0012396114930682124,2.69
0.0008973682315209567,2.691
0.00012690712470313047,2.692
-0.0009284212941971804,2.693
-0.0020258222858185147,2.694
-0.002882455071049375,2.695
-0.003246928338790538,2.696
-0.002966480256603816,2.697
-0.002028347378039136,2.698
-0.0005725943080083611,2.699
0.0011261136692256564,2.7
0.0027278920977807284,2.701
0.003932765209285153,2.702
0.004561845792608652,2.703
0.004571954655625592,2.704
0.004018737948244189,2.705
0.0030191606979390623,2.706
0.0017368380352837482,2.707
0.00036793298723465466,2.708
-0.0008910935574351672,2.709
-0.0018845928353471409,2.71
-0.002530404101238523,2.711
-0.0028226878509464036,2.712
-0.0027992786686884814,2.713
-0.002504736532460102,2.714
-0.0019824458891052484,2.715
-0.0012949750510794203,2.716
-0.0005335259936328369,2.717
0.00020699300298238866,2.718
0.0008532322382186648,2.719
0.001351024719768146,2.72
0.0016494945188098927,2.721
0.0016959160540497384,2.722
0.0014537953048120388,2.723
0.0009252661259612566,2.724
0.0001520234666509683,2.725
-0.0007903998717846058,2.726
-0.0017895818466915864,2.727
-0.0027140380217751717,2.728
-0.0034578706338704497,2.729
-0.003961154037623409,2.73
-0.004186307103327572,2.731
-0.004089442442299343,2.732
-0.0036149473194239984,2.733
-0.002708039967213488,2.734
-0.0013427020798171497,2.735
0.00043047889812357343,2.736
0.002443024392327352,2.737
0.00441431151974265,2.738
0.006009299123717234,2.739
0.006933611851625826,2.74
0.007033549053094099,2.741
0.006343972591808157,2.742
0.0050642654625722965,2.743
0.0034881556623290225,2.744
0.0019146932233667844,2.745
0.0005801777489238706,2.746
-0.0003651199539223673,2.747
-0.0008675494005725212,2.748
-0.0009811177913083501,2.749
-0.0008463823453141292,2.75
-0.0006433471035227299,2.751
-0.0005535552620723624,2.752
-0.000723699252402174,2.753
-0.0012180917993275182,2.754
-0.001992626767941635,2.755
-0.0029127335307192795,2.756
-0.003795904472783809,2.757
-0.004460035392246454,2.758
-0.00476688097709631,2.759
-0.0046431543026817755,2.76
-0.004076229143596126,2.761
-0.003109903599133342,2.762
-0.0018499315521954883,2.763
-0.0004502041634190764,2.764
0.0009263402605298586,2.765
0.002140936842409968,2.766
0.0030969094329966703,2.767
0.003754549424791453,2.768
0.004139950465033778,2.769
0.004334226655261267,2.77
0.004434746416917302,2.771
0.00449023220604496,2.772
0.00444326154503145,2.773
0.004131336239295234,2.774
0.003347850079104161,2.775
0.0019187802563467033,2.776
-0.00021140104976890008,2.777
-0.00286849596006163,2.778
-0.005583666262217046,2.779
-0.0077013219002747945,2.78
-0.008649057315990737,2.781
-0.00818182024200056,2.782
-0.006443633469086016,2.783
-0.003857947443092592,2.784
-0.0009527946000406251,2.785
0.0017759336375605104,2.786
0.003931051729201376,2.787
0.005254333261222331,2.788
0.005660020936064085,2.789
0.005235357980810076,2.79
0.004208833089765576,2.791
0.002893429824188154,2.792
0.0015997161340766109,2.793
0.0005527403911512138,2.794
-0.0001465083907594237,2.795
-0.0005099250360132503,2.796
-0.0006088418604279101,2.797
-0.0005174015657582588,2.798
-0.0002998106793223982,2.799
-2.0980381442969257e-05,2.8
0.00026033241567596744,2.801
0.0005042225151790858,2.802
0.0006889763957976158,2.803
0.0007977991945758023,2.804
0.0007948073106558633,2.805
0.0006210798110091285,2.806
0.00023412099702234862,2.807
-0.0003567078744947951,2.808
-0.0010994490601994263,2.809
-0.001919338672333596,2.81
-0.002712959393787203,2.811
-0.0033393759030046007,2.812
-0.003645383244371939,2.813
-0.003515337951289272,2.814
-0.0029078858876645376,2.815
-0.0018737750631787132,2.816
-0.0005599922668791563,2.817
0.0008171655013120655,2.818
0.002019305237607103,2.819
0.0028257902339949652,2.82
0.003080921297608345,2.821
0.0027546453388661955,2.822
0.001972701620176073,2.823
0.000984295073557804,2.824
8.214339092313409e-05,2.825
-0.0004928330137890683,2.826
-0.000622547496593633,2.827
-0.0003243015527371766,2.828
0.00028601429194521997,2.829
0.0010440817349318219,2.83
0.0017818893383026175,2.831
0.002364093100900349,2.832
0.0027136657526256143,2.833
0.002821738232062427,2.834
0.0027359472598187167,2.835
0.0025311229021690827,2.836
0.002275073875463425,2.837
0.0019962931973711152,2.838
0.0016713761029213748,2.839
0.001252667868476982,2.84
0.0007108719686255518,2.841
5.478407970266177e-05,2.842
-0.0006754879337008445,2.843
-0.001434149551535871,2.844
-0.00220754160720475,2.845
-0.003040867287008382,2.846
-0.004022883626296986,2.847
-0.005234911916316295,2.848
-0.0066959074493923194,2.849
-0.008318582340766437,2.85
-0.00989364410146815,2.851
-0.01111187374056119,2.852
-0.01160821802500611,2.853
-0.011025934442039396,2.854
-0.009104613563882974,2.855
-0.005777564188081843,2.856
-0.001254406204723185,2.857
0.00395845095965753,2.858
0.009145684095446957,2.859
0.013568116961741981,2.86
0.016659035397466132,2.861
0.018124823678006646,2.862
0.017933466175235058,2.863
0.01626358276375447,2.864
0.013456575385706585,2.865
0.009951031652130304,2.866
0.006190106275696302,2.867
0.0025465576477360146,2.868
-0.0006996709555145173,2.869
-0.003356999674788361,2.87
-0.005324548275900118,2.871
-0.006590389884411773,2.872
-0.0072053110805113205,2.873
-0.007252908059823545,2.874
-0.006841155042437996,2.875
-0.006098850034190295,2.876
-0.005158268808040134,2.877
-0.004138478994074349,2.878
-0.00315109424919102,2.879
-0.0023200324385920074,2.88
-0.0017801470093259423,2.881
-0.0016422278870161832,2.882
-0.0019479783103532274,2.883
-0.002636877521809567,2.884
-0.0035300081555560605,2.885
-0.00434124035898793,2.886
-0.004739230060600188,2.887
-0.004454408160852324,2.888
-0.003374482336323829,2.889
-0.0015833235691567213,2.89
0.0006546884142693198,2.891
0.0029576429296509707,2.892
0.004923245767298182,2.893
0.0062247816801890244,2.894
0.006686921572469887,2.895
0.006335361477889523,2.896
0.005388541495996237,2.897
0.004168039242174238,2.898
0.00297407388034539,2.899
0.0020023170567576164,2.9
0.0013207561131777334,2.901
0.000883318733165415,2.902
0.0005730017673941666,2.903
0.00026305072001114513,2.904
-0.00013858595785316234,2.905
-0.0006735170631110231,2.906
-0.0013271382603747665,2.907
-0.0020271678895979425,2.908
-0.0026607100530368264,2.909
-0.0031120626556983043,2.91
-0.0032942490297506546,2.911
-0.003144187176924057,2.912
-0.0025940875942469742,2.913
-0.001574931901031139,2.914
-8.484448090328444e-05,2.915
0.0017238860730181159,2.916
0.0035308272877578747,2.917
0.004947424269349721,2.918
0.00567152380161144,2.919
0.005593351219632238,2.92
0.004805956890880083,2.921
0.003548232214559915,2.922
0.0021159528386756293,2.923
0.000768724655423086,2.924
-0.00033576216617283686,2.925
-0.0011765739674011145,2.926
-0.0018745581496963245,2.927
-0.0026520503931520465,2.928
-0.003752440083724361,2.929
-0.005342772850579731,2.93
-0.007418888372649986,2.931
-0.009740648055461244,2.932
-0.011837574830869467,2.933
-0.013106028209543766,2.934
-0.012968365205546969,2.935
-0.011036604242024442,2.936
-0.007247943097993786,2.937
-0.0019553510008791775,2.938
0.004081840583144774,2.939
0.009853498642246585,2.94
0.014360985604238777,2.941
0.016902617642117,2.942
0.01727464962393041,2.943
0.015767972070530555,2.944
0.012963755276002855,2.945
0.009491403234867779,2.946
0.005889089098395951,2.947
0.002561742587322684,2.948
-0.00022900828710743757,2.949
-0.002360309589753873,2.95
-0.0038116021207136854,2.951
-0.004622743405850012,2.952
-0.0048851081729000415,2.953
-0.004734081297529011,2.954
-0.004317594308759277,2.955
-0.0037733134991200868,2.956
-0.0032216178146205494,2.957
-0.002751012564673919,2.958
-0.002402385040059691,2.959
-0.0021724809992114133,2.96
-0.0020243693130856137,2.961
-0.0018928892164603256,2.962
-0.0017028996914776762,2.963
-0.0014020988981799866,2.964
-0.0009914021321889763,2.965
-0.0005280626746728751,2.966
-8.14267214481158e-05,2.967
0.0003183281808386535,2.968
0.0006798432025553554,2.969
0.0010098502720586276,2.97
0.0012851235102423065,2.971
0.0014523509431411748,2.972
0.0014346286395518176,2.973
0.00114982860132743,2.974
0.0005569481008937496,2.975
-0.00029478906247051243,2.976
-0.0012549039451677875,2.977
-0.002111904593113668,2.978
-0.0026621828494163904,2.979
-0.0027666180240147383,2.98
-0.0023746981732754475,2.981
-0.001534380895675306,2.982
-0.00039788380341635354,2.983
0.0008118022162468677,2.984
0.0018849453318184567,2.985
0.002689566862729797,2.986
0.0031642153086077003,2.987
0.0032794495294809125,2.988
0.0030178921660388644,2.989
0.002386541207084768,2.99
0.00145826411926534,2.991
0.00040704183679794704,2.992
-0.0005059738936726932,2.993
-0.0010008427902626939,2.994
-0.0008735879656938218,2.995
-8.196256493678617e-05,2.996
0.0011962126969112179,2.997
0.00255222523941725,2.998
0.003434663123258359,2.999
0.0033679181153338207,3.0
0.0022096724251329286,3.001
0.0002534592990860458,3.002
-0.0019144492754290367,3.003
-0.003689962269554877,3.004
-0.00468013863093968,3.005
-0.00478100343564188,3.006
-0.0041185783263601615,3.007
-0.002948058969490196,3.008
-0.0015744399815817373,3.009
-0.0002879007202502211,3.01
0.0007028774388076477,3.011
0.0013145467767030478,3.012
0.0015781099986357972,3.013
0.0015896202345314229,3.014
0.001462937720581474,3.015
0.0012999973760543038,3.016
0.0011680761302945795,3.017
0.0010801299220144463,3.018
0.0009934763244781955,3.019
0.0008362544744801503,3.02
0.0005455039182845104,3.021
9.519304294321055e-05,3.022
-0.0004922428469551654,3.023
-0.0011544264642100702,3.024
-0.0018100381072736946,3.025
-0.002370054702219678,3.026
-0.002742116065882511,3.027
-0.002847479631928336,3.028
-0.0026388544164389367,3.029
-0.002096176617695163,3.03
-0.0012151151506758161,3.031
-1.7232225777916762e-05,3.032
0.0014242424726622499,3.033
0.002973664677969079,3.034
0.0044530629629473744,3.035
0.005675833461774573,3.036
0.006464982897173867,3.037
0.006654394301491643,3.038
0.006104015725278849,3.039
0.004752091049007295,3.04
0.0026812081088008976,3.041
0.00014093664263097397,3.042
-0.0025051341212103386,3.043
-0.004872818622568256,3.044
-0.006634434962940742,3.045
-0.0075649606104951014,3.046
-0.007567378661288694,3.047
-0.0066877306717240586,3.048
-0.0051190721857833025,3.049
-0.003166068713274227,3.05
-0.0011569393498872965,3.051
0.0006606238483638575,3.052
0.0021751021967391145,3.053
0.0033827263175696403,3.054
0.004320040233147086,3.055
0.005008773565288969,3.056
0.005414289696409507,3.057
0.005448199535859607,3.058
0.005036934568574678,3.059
0.004190729603789407,3.06
0.0030176556748340547,3.061
0.0016945506206176716,3.062
0.0004157362629767198,3.063
-0.0006587654261553796,3.064
-0.0014349935794609552,3.065
-0.0018990083241866575,3.066
-0.002120599545272868,3.067
-0.0022499591504554113,3.068
-0.002496482005982719,3.069
-0.003068002031192119,3.07
-0.004090154877872644,3.071
-0.00554297940182771,3.072
-0.0072174872002375556,3.073
-0.008716783849858807,3.074
-0.009546957247896977,3.075
-0.009273716680796719,3.076
-0.007664215359463879,3.077
-0.004761464028670856,3.078
-0.0008866238271782695,3.079
0.0034259815924315706,3.08
0.007542183347589993,3.081
0.010851188547045596,3.082
0.012893564684419231,3.083
0.013485685738093106,3.084
0.012760215240169672,3.085
0.01106097081123044,3.086
0.008760905207261476,3.087
0.006138436685845112,3.088
0.0033747357651234705,3.089
0.0006285919416371752,3.09
-0.0018995552496647102,3.091
-0.003970743811454733,3.092
-0.005366028187561397,3.093
-0.005957084082647936,3.094
-0.0057522507444095015,3.095
-0.0048968405595007265,3.096
-0.0036286255573695974,3.097
-0.0022116596131594255,3.098
-0.0008804723577341118,3.099
0.00018983954850360104,3.1
0.0008917688295787001,3.101
0.0011800907213387892,3.102
0.0010583993069591968,3.103
0.0005554534007431055,3.104
-0.00030073043098020815,3.105
-0.00149365266151962,3.106
-0.003009601004408017,3.107
-0.0047835505728165304,3.108
-0.006586030772254345,3.109
-0.007965572297385879,3.11
-0.008386359658935597,3.111
-0.007499046106221568,3.112
-0.0053292661257267485,3.113
-0.0022600607708829915,3.114
0.001139266936328439,3.115
0.004316546207700554,3.116
0.0068658628369882395,3.117
0.008542584204822264,3.118
0.009239271579401638,3.119
0.00900035690906097,3.12
0.008036123466710576,3.121
0.006668302711394783,3.122
0.005213216863673487,3.123
0.0038730311007660924,3.124
0.0027017198866018132,3.125
0.0016511651459228303,3.126
0.0006630208813085139,3.127
-0.0002508658433277804,3.128
-0.0009949480266308731,3.129
-0.0014401211375980475,3.13
-0.001495141655605312,3.131
-0.0011640016098501027,3.132
-0.0005659401785083249,3.133
9.399786069361926e-05,3.134
0.0005904829474506846,3.135
0.0007348779985433656,3.136
0.00039995936470904874,3.137
-0.0004669466835798532,3.138
-0.001830742441219032,3.139
-0.0035661190894844333,3.14
-0.005481381219397191,3.141
-0.0073671574761680365,3.142
-0.009025245641995548,3.143
-0.010252764739467323,3.144
-0.010826364959804357,3.145
-0.010533442185916262,3.146
-0.009254363361258611,3.147
-0.007060105896157433,3.148
-0.004264717807777741,3.149
-0.0013750430123071415,3.15
0.0010882580530596172,3.151
0.0028415782998428324,3.152
0.003994334032537345,3.153
0.004960464616574551,3.154
0.0061853989999340955,3.155
0.00788809394831662,3.156
0.009944089183107243,3.157
0.011939084818079204,3.158
0.013355607259529563,3.159
0.013789736979204327,3.16
0.013085809624760187,3.161
0.011337229079938397,3.162
0.008796824178919138,3.163
0.005781736678771589,3.164
0.0026255240022690983,3.165
-0.0003370403789296722,3.166
-0.002809819958439416,3.167
-0.004600342353648683,3.168
-0.005662828635469717,3.169
-0.006104550109868001,3.17
-0.006148861156790039,3.171
-0.00605490061461868,3.172
-0.00603041943091555,3.173
-0.006170706225098443,3.174
-0.006430594083526859,3.175
-0.00663632319600125,3.176
-0.006552553101738039,3.177
-0.0059885109395946875,3.178
-0.00488242846697539,3.179
-0.003328090372820511,3.18
-0.0015470975199019018,3.181
0.0001887528826426444,3.182
0.001650131611391834,3.183
0.002703064928130652,3.184
0.0033126262501908276,3.185
0.0035194079984916626,3.186
0.003406920869178812,3.187
0.0030703655719204613,3.188
0.0025905402618266755,3.189
0.00202383995526172,3.19
0.001410155091628556,3.191
0.0007766780110877879,3.192
0.00014002136586821663,3.193
-0.0004656097373776077,3.194
-0.0009540333378210703,3.195
-0.001208593433978709,3.196
-0.001165914746828573,3.197
-0.000876807706036298,3.198
-0.00047696950601525633,3.199
-0.00012095241165870264,3.2
4.734959621031352e-05,3.201
-6.858356949904583e-05,3.202
-0.00043040223448757246,3.203
-0.000821189368149747,3.204
-0.0009306054474028226,3.205
-0.0005166329095722475,3.206
0.00044441869803982963,3.207
0.0016889048226501173,3.208
0.0027454296668955186,3.209
0.0031473324644254188,3.21
0.002636066061914886,3.211
0.0012380612820395976,3.212
-0.0007625842232518044,3.213
-0.0029062693412096907,3.214
-0.004699040277685666,3.215
-0.005778215415599665,3.216
-0.005999665890506905,3.217
-0.005379268933788858,3.218
-0.003946336331257304,3.219
-0.001668507992434607,3.22
0.0014552519586178364,3.221
0.0052202209244858,3.222
0.00911008874328338,3.223
0.012347563319755872,3.224
0.01412325551420112,3.225
0.013911243468774166,3.226
0.011694143642900912,3.227
0.007971871365169874,3.228
0.0035530514243191248,3.229
-0.0007444643853887281,3.23
-0.004321686083983688,3.231
-0.006885823053193125,3.232
-0.00842267460418563,3.233
-0.00910545080949836,3.234
-0.009183350217454277,3.235
-0.008881531163084207,3.236
-0.008339524181701224,3.237
-0.0076064516941275,3.238
-0.006690174879692237,3.239
-0.005619085357158582,3.24
-0.0044541912221596055,3.241
-0.0032363621952375236,3.242
-0.0019289832386366278,3.243
-0.00043626735557569687,3.244
0.0012938067421719211,3.245
0.0031584167415954745,3.246
0.00487174400442422,3.247
0.006063888128650867,3.248
0.006458771721397755,3.249
0.006025993174731749,3.25
0.005033956885924794,3.251
0.003969663979887965,3.252
0.0033280148472460067,3.253
0.003367649185446361,3.254
0.00399056943851683,3.255
0.004812110589679987,3.256
0.005354256763706353,3.257
0.005252174738390769,3.258
0.004369970782978087,3.259
0.002775643290929094,3.26
0.0006336549916976454,3.261
-0.0018797471861888766,3.262
-0.004595744269319719,3.263
-0.0073222257903612096,3.264
-0.009789679344981542,3.265
-0.01162986007855385,3.266
-0.01244368095117447,3.267
-0.011933584133851028,3.268
-0.010005950262333476,3.269
-0.006788419218482326,3.27
-0.002609423220640072,3.271
0.002002853108574266,3.272
0.006346304182070884,3.273
0.00968089059958379,3.274
0.011441749186647686,3.275
0.011380912426769542,3.276
0.009576634941990174,3.277
0.006403279580438361,3.278
0.0025159943249745908,3.279
-0.0012360688878579216,3.28
-0.004037728511087938,3.281
-0.005390985974928592,3.282
-0.005267279240598936,3.283
-0.0040136977652635054,3.284
-0.0021019322132356257,3.285
7.322229804113906e-05,3.286
0.00223466725448471,3.287
0.004153435198305276,3.288
0.00558010994785654,3.289
0.006243562406537761,3.29
0.005926351655326898,3.291
0.004595340158538502,3.292
0.002500020938200514,3.293
0.00011608251497609992,3.294
-0.0020601231213527717,3.295
-0.0037130526582413443,3.296
-0.004773994045597206,3.297
-0.005343657211755645,3.298
-0.00556103863399924,3.299
-0.005500824608117448,3.3
-0.005129905340996437,3.301
-0.004353830893390213,3.302
-0.0031322397080270673,3.303
-0.0015595658612355503,3.304
0.00015152598007703102,3.305
0.001750010187041188,3.306
0.0030178378289891063,3.307
0.0037949565218698945,3.308
0.0039922646798228436,3.309
0.0036282864402001637,3.31
0.002842993595649076,3.311
0.0018421022322266981,3.312
0.0008168053672047756,3.313
-0.00010671471815608852,3.314
-0.0008810986413230004,3.315
-0.001503747122276876,3.316
-0.0019396748261769586,3.317
-0.0020626430282010516,3.318
-0.0016675922355532957,3.319
-0.0005608585543275402,3.32
0.0012939019306649558,3.321
0.0036526675494800145,3.322
0.005994490964990954,3.323
0.007690184005360721,3.324
0.008277931587131238,3.325
0.007682152264028184,3.326
0.006216035187840636,3.327
0.004384559362344399,3.328
0.002628630668469714,3.329
0.0011194341594979347,3.33
-0.000339220663334512,3.331
-0.0022662456044599956,3.332
-0.005308526265438661,3.333
-0.009907590117396043,3.334
-0.015901546582082846,3.335
-0.022298787063529633,3.336
-0.02748537416156816,3.337
-0.029799988316321732,3.338
-0.02810782265791523,3.339
-0.02211302771113698,3.34
-0.012406626482113877,3.341
-0.00033146133862930755,3.342
0.012288912150597709,3.343
0.023520774435512933,3.344
0.03172035346009764,3.345
0.03587287610054957,3.346
0.035796807390788596,3.347
0.03216263197385556,3.348
0.026266883531433232,3.349
0.01956700527770716,3.35
0.013173584506762601,3.351
0.0075865896413677076,3.352
0.002788725225970444,3.353
-0.0014579184559512855,3.354
-0.005349034874148454,3.355
-0.008928725165847744,3.356
-0.012101241678838309,3.357
-0.014680455597944201,3.358
-0.016454801945170534,3.359
-0.01726514645668336,3.36
-0.01705879045507643,3.361
-0.01590192514025923,3.362
-0.013971163288689118,3.363
-0.01154482070205156,3.364
-0.008976463750795314,3.365
-0.006611534588547725,3.366
-0.004666167055944689,3.367
-0.0031573898374086693,3.368
-0.0019358916715771766,3.369
-0.0007878893671748781,3.37
0.0004529834458814534,3.371
0.0018376371800314776,3.372
0.0033026080355929863,3.373
0.0047250078511675234,3.374
0.005997734663306786,3.375
0.007083685120260868,3.376
0.008024459309921145,3.377
0.008893370195718358,3.378
0.009692695261629174,3.379
0.010260529471936862,3.38
0.010283708669537442,3.381
0.00942700396416829,3.382
0.007510152689745898,3.383
0.004664427400283423,3.384
0.0013820942430873141,3.385
-0.0016361956579109744,3.386
-0.0037966017771621664,3.387
-0.004889033576659083,3.388
-0.0051430338015502185,3.389
-0.005034188495370016,3.39
-0.004963323086983809,3.391
-0.0050139479846700065,3.392
-0.004954953848403473,3.393
-0.004470174125946305,3.394
-0.0034128841424904614,3.395
-0.001896647549105683,3.396
-0.00018762987946432483,3.397
0.0014994641907490494,3.398
0.0031275529785322756,3.399
0.004766023289130712,3.4
0.006392974178491819,3.401
0.007775732495100143,3.402
0.008545418676255061,3.403
0.00836684406131518,3.404
0.007032342176242241,3.405
0.004459999691006843,3.406
0.000692583660679576,3.407
-0.004074916322639371,3.408
-0.009490153969011565,3.409
-0.015088819871548495,3.41
-0.020355092777503477,3.411
-0.02474050653520281,3.412
-0.027615391850157527,3.413
-0.028210870177985247,3.414
-0.025688000482317674,3.415
-0.019389844163448477,3.416
-0.009191863748513602,3.417
0.0041626115374214555,3.418
0.018895990748719848,3.419
0.03241680793061964,3.42
0.04200912850229382,3.421
0.045740855447940036,3.422
0.043120974356391874,3.423
0.035180516349285096,3.424
0.024010918645986222,3.425
0.012022645804044144,3.426
0.0012345284138895979,3.427
-0.007135058938059716,3.428
-0.012678848395386093,3.429
-0.015569101755713714,3.43
-0.016312275007783584,3.431
-0.015574060302252139,3.432
-0.014041131635805932,3.433
-0.012293316652691956,3.434
-0.010716508822961055,3.435
-0.00949466644761723,3.436
-0.008650396107922483,3.437
-0.00808649094675039,3.438
-0.007638662032866675,3.439
-0.007149200051109372,3.44
-0.006513955968154046,3.441
-0.005652640727575441,3.442
-0.004448958049429628,3.443
-0.0027704459255861445,3.444
-0.0005633002070580291,3.445
0.0020934221235500497,3.446
0.005014621459622866,3.447
0.007960576040708534,3.448
0.010652369165885061,3.449
0.012737794984729482,3.45
0.013778230481801235,3.451
0.013373446670160983,3.452
0.01142386247381448,3.453
0.008322766627926779,3.454
0.004857318378185731,3.455
0.0018242815527942048,3.456
-0.000391056425455407,3.457
-0.001975059836864738,3.458
-0.003491811267632689,3.459
-0.005498969893284046,3.46
-0.008237553788868354,3.461
-0.0115639176266189,3.462
-0.015065240176693459,3.463
-0.018176690214233876,3.464
-0.020229997081832464,3.465
-0.02051188835903032,3.466
-0.018397890576949696,3.467
-0.013523989598543916,3.468
-0.005947080823544738,3.469
0.003710318755389068,3.47
0.014202045138509485,3.471
0.023815254092332955,3.472
0.030747374970468297,3.473
0.03357792579468168,3.474
0.03168378066442895,3.475
0.025441120068297338,3.476
0.01612232937179153,3.477
0.005545547121549684,3.478
-0.004394877801769766,3.479
-0.012186486146388145,3.48
-0.016979711423529508,3.481
-0.018608769590648062,3.482
-0.01744326751271718,3.483
-0.014197133082733808,3.484
-0.009751113789234657,3.485
-0.004984364140548505,3.486
-0.0006198395473247132,3.487
0.002869436464899566,3.488
0.005265513004117997,3.489
0.0065341783074778,3.49
0.006726110766074072,3.491
0.005921106889224396,3.492
0.004240414345209158,3.493
0.0019137564103370334,3.494
-0.0006529218300651243,3.495
-0.00292025874514932,3.496
-0.004387375196634635,3.497
-0.004757467676935822,3.498
-0.003979260413723934,3.499
-0.0021999379384478597,3.5
0.0002401312280270522,3.501
0.0027641992102072402,3.502
0.004633107627497643,3.503
0.00520400837352881,3.504
0.004193465193858634,3.505
0.001734897438063774,3.506
-0.001758736081546548,3.507
-0.005757208859996101,3.508
-0.009694325647565054,3.509
-0.012982837693225033,3.51
-0.015037753541854089,3.511
-0.01536922641843904,3.512
-0.01372167139973353,3.513
-0.0101839777277439,3.514
-0.00520232395878542,3.515
0.0005454687988177193,3.516
0.0063647956818433625,3.517
0.011684170833675851,3.518
0.015988132268529704,3.519
0.01866318254070127,3.52
0.019070883066445023,3.521
0.016946098651024994,3.522
0.012768151068171116,3.523
0.007673655761833017,3.524
0.002953595868123493,3.525
-0.00042504081458239493,3.526
-0.0019940929919282095,3.527
-0.0017245696218665244,3.528
7.987249997011789e-05,3.529
0.002837928057273655,3.53
0.00576460296431221,3.531
0.008074107801658298,3.532
0.009243987844270813,3.533
0.009135976006597197,3.534
0.00788101093659533,3.535
0.00564155711352684,3.536
0.0024219238230979473,3.537
-0.0019839444405699,3.538
-0.007882789455625596,3.539
-0.015417496295677867,3.54
-0.024251624876847684,3.541
-0.033400863048168895,3.542
-0.0413297500127149,3.543
-0.04626945283358473,3.544
-0.04664340544683908,3.545
-0.041495889953778065,3.546
-0.030826388901722533,3.547
-0.015695142434779055,3.548
0.0019980213611841477,3.549
0.0199629886311602,3.55
0.03598924885382299,3.551
0.04828409619461109,3.552
0.05560297321864993,3.553
0.05727222302357741,3.554
0.05330364286527785,3.555
0.04453660433443023,3.556
0.03253509291678454,3.557
0.019189383082134963,3.558
0.0062595589190206375,3.559
-0.004902564902993572,3.56
-0.013423014266401447,3.561
-0.01888581293499431,3.562
-0.02130036350963972,3.563
-0.021026814670181138,3.564
-0.01863556359132424,3.565
-0.014786991767042576,3.566
-0.010241459035101824,3.567
-0.005948587272390259,3.568
-0.0029999413104448225,3.569
-0.002304146398457486,3.57
-0.004164876216270759,3.571
-0.008116170625061201,3.572
-0.013102201992008247,3.573
-0.017792340071924494,3.574
-0.020871207914872205,3.575
-0.0212917833459826,3.576
-0.018494416230173723,3.577
-0.01252675134964616,3.578
-0.0040132686569219304,3.579
0.005966920194265542,3.58
0.016011984854700494,3.581
0.02454993976260429,3.582
0.03008205205281422,3.583
0.03150972122964409,3.584
0.02843952669365214,3.585
0.02137470636861013,3.586
0.01169477632484617,3.587
0.0013193848291183092,3.588
-0.007834985671396075,3.589
-0.014321847641325177,3.59
-0.017432640201892873,3.591
-0.017295406225723935,3.592
-0.014760581597431564,3.593
-0.011034727963609828,3.594
-0.007210417145305462,3.595
-0.003936111213069618,3.596
-0.0013373017846553205,3.597
0.0008421864547151266,3.598
0.0029350897536424806,3.599
0.00501551053916908,3.6
0.006770173040673975,3.601
0.007675913384797182,3.602
0.00730451900745984,3.603
0.005495920755986482,3.604
0.0023325730970792905,3.605
-0.0019289543765013142,3.606
-0.006831940121469288,3.607
-0.01161847495999058,3.608
-0.015186635665539966,3.609
-0.01629457486975098,3.61
-0.014040812985286333,3.611
-0.00835041057564496,3.612
-0.00014816609571472944,3.613
0.00887723235996514,3.614
0.016813122048282867,3.615
0.02214550744501832,3.616
0.02420472357834161,3.617
0.023268072592205046,3.618
0.020287364960763662,3.619
0.01637134696665672,3.62
0.012315432377170504,3.621
0.008417838577330862,3.622
0.004591865032056519,3.623
0.000618417954062776,3.624
-0.0036498692265443736,3.625
-0.008230719945779414,3.626
-0.013037455119340968,3.627
-0.01788096240797034,3.628
-0.022460257457094044,3.629
-0.026377629902860904,3.63
-0.0291289282735045,3.631
-0.03007599326218283,3.632
-0.02850479745114793,3.633
-0.023814501733866747,3.634
-0.015803959881671215,3.635
-0.004987760116512048,3.636
0.007247718573499132,3.637
0.018898068319825947,3.638
0.027985146542334492,3.639
0.03321105094017235,3.64
0.034240260155679436,3.641
0.03153935099595916,3.642
0.02596644052806743,3.643
0.018423174802306513,3.644
0.009791532598104374,3.645
0.001030795343734606,3.646
-0.006845246488298903,3.647
-0.012947259832159781,3.648
-0.016672637126859964,3.649
-0.017724404037610088,3.65
-0.01602166495253809,3.651
-0.011644658638519071,3.652
-0.0049281481276613895,3.653
0.0033185534921581455,3.654
0.011633524284998772,3.655
0.017984164438908764,3.656
0.02023869420999244,3.657
0.0169276772202661,3.658
0.007941954818108346,3.659
-0.005215114417643817,3.66
-0.019753927303401784,3.661
-0.032345160250565004,3.662
-0.04000954390626918,3.663
-0.040882655051261096,3.664
-0.034621566440836846,3.665
-0.022364114354619054,3.666
-0.006385507765016232,3.667
0.010378102834404277,3.668
0.024939392824273474,3.669
0.03493575261801197,3.67
0.03908424896294615,3.671
0.03727962557969785,3.672
0.03052231986510651,3.673
0.02072745267463488,3.674
0.010206443513556086,3.675
0.0009439871897338503,3.676
-0.005829094457673632,3.677
-0.009605577569041778,3.678
-0.010433536397622473,3.679
-0.008857515358282384,3.68
-0.005902106627079684,3.681
-0.0029512629320016834,3.682
-0.0014743276819626483,3.683
-0.0025860761165986492,3.684
-0.006521777423097273,3.685
-0.012359341089573895,3.686
-0.018290019468934403,3.687
-0.02230623615843792,3.688
-0.02292397083888672,3.689
-0.019651523338214915,3.69
-0.013058628461947372,3.691
-0.004447264439766795,3.692
0.004695859999521744,3.693
0.013156325855722222,3.694
0.020115263786012586,3.695
0.024969931155303913,3.696
0.027131378449329047,3.697
0.026106703291697703,3.698
0.021899780583391874,3.699
0.015367464274400217,3.7
0.00811864304648791,3.701
0.0019674720552174552,3.702
-0.0016854418582830089,3.703
-0.002274963008942075,3.704
-0.00025443322539913055,3.705
0.0029808956503417404,3.706
0.005461311154323293,3.707
0.005281295359586775,3.708
0.001375960065432846,3.709
-0.005956046848897078,3.71
-0.015223155713653305,3.711
-0.02449123839294288,3.712
-0.03207056697793374,3.713
-0.0367403893766744,3.714
-0.03768785879379461,3.715
-0.034502839499354766,3.716
-0.027325642958616052,3.717
-0.01696825029936096,3.718
-0.004794923847809214,3.719
0.007622947974559101,3.72
0.018868456300852533,3.721
0.027903593544420895,3.722
0.03412861344693374,3.723
0.037286471300697316,3.724
0.037286809040186705,3.725
0.03414432669109161,3.726
0.028151797966213924,3.727
0.020087303947229997,3.728
0.011142110357596704,3.729
0.002563708432868122,3.73
-0.004710448886808018,3.731
-0.010213600991819439,3.732
-0.013908281946628484,3.733
-0.016051512735250593,3.734
-0.01702717823237952,3.735
-0.017185616019319984,3.736
-0.016740361280800285,3.737
-0.015737977634916456,3.738
-0.014099955140864956,3.739
-0.011719837532312328,3.74
-0.008574104915021532,3.741
-0.004805860649445422,3.742
-0.0007472970803683507,3.743
0.003153007131697693,3.744
0.0064800613212297855,3.745
0.008987792759289124,3.746
0.010650354118559168,3.747
0.011644074210396897,3.748
0.012315305954184364,3.749
0.013090568448349884,3.75
0.014206085325548574,3.751
0.015367188998564988,3.752
0.01566530514390743,3.753
0.013897046194782239,3.754
0.009136530919365102,3.755
0.0012600456592322658,3.756
-0.008870752847401549,3.757
-0.019651297055522873,3.758
-0.029222592539824777,3.759
-0.035929456463805756,3.76
-0.0386058762721262,3.761
-0.03674455164667547,3.762
-0.030592617898442805,3.763
-0.02107881073113872,3.764
-0.009545318425139521,3.765
0.0025710209808127676,3.766
0.0139454349057165,3.767
0.023396973514157596,3.768
0.02986547508680882,3.769
0.03257137266027545,3.77
0.0313381532780399,3.771
0.026753080221298662,3.772
0.020015589843835054,3.773
0.012624926242242034,3.774
0.00604651480028252,3.775
0.0013982046069161552,3.776
-0.000766905076022392,3.777
-0.00048250538794359775,3.778
0.0017810780277516124,3.779
0.005249666941819563,3.78
0.00882034900543313,3.781
0.011082933423962563,3.782
0.010740902542776038,3.783
0.007297814404353453,3.784
0.0013725708090493508,3.785
-0.00563250540906296,3.786
-0.012139153552484837,3.787
-0.01690966840131675,3.788
-0.019347812396584757,3.789
-0.019543457872420587,3.79
-0.018142592619916836,3.791
-0.01613705241662739,3.792
-0.014551833978379074,3.793
-0.014027070814041592,3.794
-0.014474995265452184,3.795
-0.015099233919046376,3.796
-0.014868794507379143,3.797
-0.013121852196952005,3.798
-0.009817387659073081,3.799
-0.0053708217500097084,3.8
-0.00040275298567522995,3.801
0.004428429084408814,3.802
0.008571301422208818,3.803
0.011715491176187686,3.804
0.013844770893513759,3.805
0.015176411202876128,3.806
0.016036826460325313,3.807
0.01674543139141203,3.808
0.01751118524995497,3.809
0.018260029645987354,3.81
0.018429857406461393,3.811
0.017065780192294284,3.812
0.013368992524603832,3.813
0.007281994487872055,3.814
-0.00028786795320515524,3.815
-0.007608744698866867,3.816
-0.012597690688391464,3.817
-0.013583435806852135,3.818
-0.01005509903623037,3.819
-0.0029797364915308366,3.82
0.005489704087575056,3.821
0.012728687181667041,3.822
0.01644268399643835,3.823
0.015359428272940224,3.824
0.009714952492439357,3.825
0.0012550073393615552,3.826
-0.0075009343718349325,3.827
-0.014380230537008763,3.828
-0.018314577668528283,3.829
-0.019386703012039853,3.83
-0.01839132291263208,3.831
-0.016289549083200395,3.832
-0.01381464990322203,3.833
-0.011350540272714076,3.834
-0.00905837379613738,3.835
-0.007082771358825721,3.836
-0.0056427528305727495,3.837
-0.004905654081782266,3.838
-0.004704438294581289,3.839
-0.004357636758397952,3.84
-0.002871542471677971,3.841
0.0004910584136388429,3.842
0.005646685268491294,3.843
0.011593939313115602,3.844
0.01691465374927155,3.845
0.02047057775442175,3.846
0.021775823199511036,3.847
0.02091999386534346,3.848
0.018254919021040605,3.849
0.014120084866916707,3.85
0.008797798281436267,3.851
0.0026775339819807014,3.852
-0.003606082577664201,3.853
-0.00922360429659657,3.854
-0.01330235344619923,3.855
-0.015114392982399943,3.856
-0.014352804165849177,3.857
-0.011374975773615683,3.858
-0.007166125352167831,3.859
-0.0029805422673844675,3.86
0.00015088753301584985,3.861
0.0018029754579399406,3.862
0.0022437235577240917,3.863
0.002184676500775683,3.864
0.002346475762620288,3.865
0.0030984055236837776,3.866
0.0043388572775637,3.867
0.005600056090668063,3.868
0.006253561522872833,3.869
0.005720382272575272,3.87
0.0036638402717398405,3.871
0.0001378913955323514,3.872
-0.004352229627620994,3.873
-0.008891184271541619,3.874
-0.012328973574343023,3.875
-0.013614260349833202,3.876
-0.0121810849169054,3.877
-0.008194311563047429,3.878
-0.0025553826307120327,3.879
0.0032835903055824004,3.88
0.007678115625409525,3.881
0.009339142264351312,3.882
0.00788672759249206,3.883
0.004096158038576985,3.884
-0.00031831516906684137,3.885
-0.0033329039798278607,3.886
-0.0034269059148875516,3.887
-0.00019694741679603597,3.888
0.005531894375823385,3.889
0.012065208299167568,3.89
0.017367230142866348,3.891
0.01956718533600615,3.892
0.017517247691004652,3.893
0.011374184361859723,3.894
0.002778365731768702,3.895
-0.005745337540993108,3.896
-0.011891140376797744,3.897
-0.014487439304146433,3.898
-0.013774596940133199,3.899
-0.011065167349309152,3.9
-0.008035114262177637,3.901
-0.005957757536170534,3.902
-0.005280004179832547,3.903
-0.005753621189738849,3.904
-0.006832571108060675,3.905
-0.007928408121128808,3.906
-0.008490458216462559,3.907
-0.00807409039159179,3.908
-0.006461549496401288,3.909
-0.0038085644178560128,3.91
-0.0007087069166854637,3.911
0.0019892002184709805,3.912
0.0036259062209723675,3.913
0.004143181315006554,3.914
0.004093998284209451,3.915
0.004216044114877402,3.916
0.004896240086608048,3.917
0.0059569412538075395,3.918
0.006976674333631618,3.919
0.00784275219022982,3.92
0.008941036773472048,3.921
0.010791888622299337,3.922
0.013498168962340637,3.923
0.01643686947493824,3.924
0.018404154185723866,3.925
0.01813845872859613,3.926
0.01482951522373867,3.927
0.008301535568176203,3.928
-0.0009650637413643986,3.929
-0.011749830219628754,3.93
-0.022142420663170913,3.931
-0.030003459544532957,3.932
-0.03372895443528267,3.933
-0.03287657382451376,3.934
-0.028209011748080274,3.935
-0.021112024790398837,3.936
-0.012833524052065845,3.937
-0.0040522145194961685,3.938
0.004994119904369177,3.939
0.013987093642884134,3.94
0.02213747557350816,3.941
0.028308105581240115,3.942
0.0314797864404235,3.943
0.031145994627061243,3.944
0.027449480297872864,3.945
0.021110351251760025,3.946
0.01321557655365947,3.947
0.004918488710070097,3.948
-0.002838554651028695,3.949
-0.009433402350222843,3.95
-0.014497489198119187,3.951
-0.017825287857947764,3.952
-0.01938611670112243,3.953
-0.01941090159352176,3.954
-0.018436812988550714,3.955
-0.017217138054208235,3.956
-0.01648764738427579,3.957
-0.01670873049163466,3.958
-0.017915841482815595,3.959
-0.019596431747507723,3.96
-0.020483569860153292,3.961
-0.01859259738307431,3.962
-0.012032462309264729,3.963
-0.0003843234525641729,3.964
0.01452077089044919,3.965
0.029258854137114324,3.966
0.040347756456476355,3.967
0.04552416866467545,3.968
0.04421958052346916,3.969
0.037358804466830375,3.97
0.0268219778792146,3.971
0.014817483026457452,3.972
0.0033391754927880515,3.973
-0.0061635363725874,3.974
-0.012899760870542903,3.975
-0.01668879861772765,3.976
-0.017778958820189174,3.977
-0.016575996705750634,3.978
-0.013458001514893904,3.979
-0.008889958820490011,3.98
-0.003700546158994313,3.981
0.0008724465552959553,3.982
0.003511015399316556,3.983
0.003317919403062722,3.984
0.00018716365920222838,3.985
-0.005098340818593942,3.986
-0.01101033328679812,3.987
-0.015686260992656374,3.988
-0.017569800374703865,3.989
-0.015953268013469555,3.99
-0.011130937312357295,3.991
-0.004193940397630493,3.992
0.0033525461226989153,3.993
0.00998064981391742,3.994
0.014459826153357587,3.995
0.016135775321600918,3.996
0.015143003982200075,3.997
0.012352898661508406,3.998
0.008936519948561917,3.999
0.005801575427409725,4.0
0.0033074088131841116,4.001
0.0013620436904001278,4.002
-0.00030247718769065186,4.003
-0.001910015633437266,4.004
-0.003569543005087709,4.005
-0.005309348927843361,4.006
-0.00710242891978521,4.007
-0.008798920085904967,4.008
-0.010033159645728845,4.009
-0.01030074283981991,4.01
-0.009258243724228187,4.011
-0.007008954098389718,4.012
-0.004127826236362925,4.013
-0.0014524136971904862,4.014
0.00020012242804975616,4.015
0.0003102040684244905,4.016
-0.0011278574571984689,4.017
-0.0035320018532685343,4.018
-0.005867252089151304,4.019
-0.007017862461554878,4.02
-0.006249778455367674,4.021
-0.003450764808299251,4.022
0.0009222444588628944,4.023
0.005979534988943536,4.024
0.010607217551422628,4.025
0.01386528202263792,4.026
0.015399082238586971,4.027
0.015553271646716464,4.028
0.015135177611615137,4.029
0.015021274460313068,4.03
0.015781055035694946,4.031
0.017374989558299993,4.032
0.01900656417565952,4.033
0.019321331643689953,4.034
0.01700453891155204,4.035
0.011436166959077525,4.036
0.002992462398907831,4.037
-0.00708021146046032,4.038
-0.017010271017411826,4.039
-0.02487131865789856,4.04
-0.0290052973565825,4.041
-0.028520187196690992,4.042
-0.023677239308814737,4.043
-0.01596030362857707,4.044
-0.007682573530365323,4.045
-0.0011728089069760013,4.046
0.00201012687611174,4.047
0.001359592256718164,4.048
-0.0026781109539822288,4.049
-0.008823359692339425,4.05
-0.015178941429966954,4.051
-0.019716366986674425,4.052
-0.02087893014801859,4.053
-0.018074574048788487,4.054
-0.011896072888374576,4.055
-0.003935066227913254,4.056
0.0038103735625990348,4.057
0.009738572652145238,4.058
0.013285908707320906,4.059
0.015066707964078309,4.06
0.016448730129827515,4.061
0.018756867860610336,4.062
0.02247664121474782,4.063
0.02690382023586285,4.064
0.03041983830200553,4.065
0.03118901893048562,4.066
0.028007891180726864,4.067
0.02099554236276338,4.068
0.011681022500529903,4.069
0.002336049159525092,4.07
-0.0050346891909498715,4.071
-0.009421195997335348,4.072
-0.010932237852768152,4.073
-0.010461241061467107,4.074
-0.009222535433218718,4.075
-0.008375357238267536,4.076
-0.008792778028560176,4.077
-0.010955965614095009,4.078
-0.014958844596565239,4.079
-0.02054049657648681,4.08
-0.026963658223380576,4.081
-0.032791014523022244,4.082
-0.036049267736823,4.083
-0.03511169493442697,4.084
-0.029694527625098548,4.085
-0.020972595333055895,4.086
-0.010751876007115413,4.087
-0.00048454882111807177,4.088
0.00921260305231779,4.089
0.0183756876120209,4.09
0.027184098910756595,4.091
0.03556330101315617,4.092
0.04302055140242325,4.093
0.04863654710906082,4.094
0.05117022448339113,4.095
0.049373284392726695,4.096
0.042588262886820556,4.097
0.031313571782639556,4.098
0.017221496712760055,4.099
0.0025721632229503,4.1
-0.010551399219060103,4.101
-0.020798665205784928,4.102
-0.02774988059598351,4.103
-0.031789568959090894,4.104
-0.0337997874685335,4.105
-0.034792188336513624,4.106
-0.03552631241103826,4.107
-0.03621104551895757,4.108
-0.03642369050043049,4.109
-0.03529105956653948,4.11
-0.031864287609474504,4.111
-0.025543233159963857,4.112
-0.01639302747058904,4.113
-0.005190488284834564,4.114
0.0069050373365985036,4.115
0.01888962581712595,4.116
0.030228365080596693,4.117
0.04057521848153371,4.118
0.04898534442166248,4.119
0.053377586850877304,4.12
0.05114476261155622,4.121
0.04079448065591299,4.122
0.02336817894147121,4.123
0.0024956370078389255,4.124
-0.0170289942608803,4.125
-0.031239135910886496,4.126
-0.03833633935345891,4.127
-0.03882394078434929,4.128
-0.034688903862889885,4.129
-0.0282070671134625,4.13
-0.02092293044805761,4.131
-0.01318789874452798,4.132
-0.004488672062809446,4.133
0.005580233751729619,4.134
0.01644316148522949,4.135
0.026469985662466482,4.136
0.03364172259100868,4.137
0.0363954371182017,4.138
0.0341831826482339,4.139
0.0275941025656682,4.14
0.01811542414463676,4.141
0.0076673644240139675,4.142
-0.0019043375134432264,4.143
-0.009206396766732095,4.144
-0.013563200794190057,4.145
-0.015233889298825506,4.146
-0.015371679027028578,4.147
-0.015453377693432009,4.148
-0.016421894813815115,4.149
-0.01817171861799575,4.15
-0.01969736368490769,4.151
-0.019722018558122976,4.152
-0.017416251751583244,4.153
-0.012845174033775214,4.154
-0.006956746692332353,4.155
-0.001189468921628648,4.156
0.0030778236441682295,4.157
0.005067234246226448,4.158
0.004970952047150525,4.159
0.003890744175865158,4.16
0.0032751506396721283,4.161
0.004199510220586175,4.162
0.006927639458528012,4.163
0.010922611417810573,4.164
0.015170853953523819,4.165
0.018569902181129805,4.166
0.02025657994834618,4.167
0.01981411140238307,4.168
0.01726515369053941,4.169
0.012886949368895551,4.17
0.0070458116638970935,4.171
0.0002141202418978181,4.172
-0.0068920698955505354,4.173
-0.013277374639943482,4.174
-0.017889860309799215,4.175
-0.020038028533538792,4.176
-0.019705599815514875,4.177
-0.017528579783954695,4.178
-0.014498801421686068,4.179
-0.011597325742219772,4.18
-0.009539698273201632,4.181
-0.00872257533973755,4.182
-0.009288238587521067,4.183
-0.01112670555584058,4.184
-0.013681866891740965,4.185
-0.015621226260961766,4.186
-0.014794864753396777,4.187
-0.009042003719346707,4.188
0.002306085960342692,4.189
0.01738984956913747,4.19
0.03232345442083217,4.191
0.043005430321977116,4.192
0.04688243326940325,4.193
0.04357631115465558,4.194
0.03451080400743137,4.195
0.022217859016012236,4.196
0.00961289671697399,4.197
-0.0006927392280336704,4.198
-0.006876836394211504,4.199
-0.008127237909140012,4.2
-0.004701758761087163,4.201
0.0021266300151323836,4.202
0.010234179831076858,4.203
0.016868702567275295,4.204
0.019016357937290514,4.205
0.014166688558649141,4.206
0.0014091894714965728,4.207
-0.01782661359524342,4.208
-0.040005405437163445,4.209
-0.0604775287778543,4.21
-0.0746157918145359,4.211
-0.07888475644334425,4.212
-0.07185164362945758,4.213
-0.054768238981203726,4.214
-0.03118098419643379,4.215
-0.005641331431419923,4.216
0.01774429383509565,4.217
0.036254861437057015,4.218
0.048766233766640084,4.219
0.05534327236818614,4.22
0.05663550079003419,4.221
0.0535450601041302,4.222
0.04710751646142328,4.223
0.03827701818659086,4.224
0.02776369862920288,4.225
0.01619971112951076,4.226
0.004434677369441309,4.227
-0.006357748087100335,4.228
-0.014794133022405094,4.229
-0.01962581960589515,4.23
-0.020324848981941795,4.231
-0.017573713729060286,4.232
-0.013114589181091228,4.233
-0.008899009238541264,4.234
-0.006174270465335552,4.235
-0.0051220974818336614,4.236
-0.005114658151642512,4.237
-0.005289473306869341,4.238
-0.005055334573071266,4.239
-0.004283226127603692,4.24
-0.003188987754078249,4.241
-0.0020332240827149787,4.242
-0.000838823566173196,4.243
0.0006302018636216861,4.244
0.0025561801694742752,4.245
0.004665448701551699,4.246
0.006140299307829877,4.247
0.005997753955773296,4.248
0.003640657038818814,4.249
-0.0008102577332327085,4.25
-0.006521017955189094,4.251
-0.012196535697962961,4.252
-0.016437904752749317,4.253
-0.018094432310942515,4.254
-0.01660242791322468,4.255
-0.01223703833402994,4.256
-0.006027837525626105,4.257
0.0007379685244910488,4.258
0.007065947311147954,4.259
0.012439804153302371,4.26
0.016641754267808232,4.261
0.019521190061240076,4.262
0.020907340086140095,4.263
0.02059227215339377,4.264
0.01825636795909038,4.265
0.01343055192374609,4.266
0.005756238711960949,4.267
-0.0044525518874838094,4.268
-0.015811197300621728,4.269
-0.026162255477534316,4.27
-0.033532029762205026,4.271
-0.03705237611627853,4.272
-0.037096413480796016,4.273
-0.034506390388687226,4.274
-0.029546471654372023,4.275
-0.021452754935132476,4.276
-0.009051138079312793,4.277
0.008037522468099911,4.278
0.028702280439824486,4.279
0.05057595015439161,4.28
0.0707687659393492,4.281
0.08662874953071348,4.282
0.09620292455625509,4.283
0.09831386544868642,4.284
0.09251893773824506,4.285
0.07917033658428632,4.286
0.059430558220265994,4.287
0.035077421993730394,4.288
0.008181993655304224,4.289
-0.01917750862045015,4.29
-0.044969497579843365,4.291
-0.06706214717538278,4.292
-0.08340974280905085,4.293
-0.09281295197462491,4.294
-0.09553536688251761,4.295
-0.09304584336866555,4.296
-0.08708142910850494,4.297
-0.07876120274773633,4.298
-0.06835433337117708,4.299
-0.05588685554448761,4.3
-0.042061197286162526,4.301
-0.02845080844800194,4.302
-0.016662081386361497,4.303
-0.007339725269210125,4.304
0.00014472262880615335,4.305
