VaMe,time
-0.0008885543678416493,0.001
-0.0008382664984305542,0.002
-0.000693053161332239,0.003
-0.00041621452954323043,0.004
-2.6528436178082823e-05,0.005
0.0004061915479564431,0.006
0.0007584878931505159,0.007
0.0008842443563122588,0.008
0.0006857046106035164,0.009
0.00015665967353978706,0.01
-0.0006611497080863047,0.011
-0.0017232796087126771,0.012
-0.0028668206690242834,0.013
-0.0036364695990275036,0.014
-0.003402473772082023,0.015
-0.0018090149443398228,0.016
0.0008581708187004412,0.017
0.003744302488916455,0.018
0.005891377646031943,0.019
0.006739326457997672,0.02
0.006341229430125294,0.021
0.005250196520403322,0.022
0.004214305061946756,0.023
0.0037980380248726128,0.024
0.004046553947321752,0.025
0.004408114881935123,0.026
0.004048236990846484,0.027
0.0023465070684672187,0.028
-0.0007598889983211688,0.029
-0.0047115444818051876,0.03
-0.008546854428434664,0.031
-0.01133356096417971,0.032
-0.012533959803289823,0.033
-0.012081557278159143,0.034
-0.010254341691990371,0.035
-0.007516909163968177,0.036
-0.004387388705942393,0.037
-0.0013341542095557013,0.038
0.0012699156981271595,0.039
0.003132313858484048,0.04
0.004010583816426012,0.041
0.00370168456966531,0.042
0.0020831433232602185,0.043
-0.0007610062216147835,0.044
-0.004380566740522145,0.045
-0.007895742547305505,0.046
-0.010113925803267115,0.047
-0.009788066383872814,0.048
-0.005944804598561616,0.049
0.0016996918423358798,0.05
0.012269695804103297,0.051
0.02353967762069889,0.052
0.032455706390159364,0.053
0.03631701298120353,0.054
0.033910670270824624,0.055
0.0258494855949565,0.056
0.014071048881123942,0.057
0.001060037255956352,0.058
-0.010787472838884,0.059
-0.019631080276908623,0.06
-0.02451606141803203,0.061
-0.025466585546105265,0.062
-0.02327071089305378,0.063
-0.0190761597000356,0.064
-0.014013904188308429,0.065
-0.008981832556782433,0.066
-0.004552465339215628,0.067
-0.0009222864007931884,0.068
0.0020414186202053525,0.069
0.004575609957196098,0.07
0.006749470397058438,0.071
0.008386265893074197,0.072
0.00922217413082464,0.073
0.009121269332451753,0.074
0.00818305831286304,0.075
0.006720595999571109,0.076
0.005163903186376214,0.077
0.003932523477178118,0.078
0.00329441347804422,0.079
0.0032359900489064,0.08
0.003384552303859889,0.081
0.003026674925950722,0.082
0.0012534898358621206,0.083
-0.002779298528260337,0.084
-0.009529668327432184,0.085
-0.01874334504477496,0.086
-0.029165666595702962,0.087
-0.03841498837795883,0.088
-0.0433738567839772,0.089
-0.041352004838819935,0.09
-0.03149331391381526,0.091
-0.01537940067872621,0.092
0.0035853555915598026,0.093
0.021489109923357546,0.094
0.03518483001345065,0.095
0.043033385527497046,0.096
0.044972666285824435,0.097
0.0420809328025837,0.098
0.03597182208185256,0.099
0.028296638700907185,0.1
0.020422093504974557,0.101
0.013284922508856779,0.102
0.0074429013803155265,0.103
0.003185035270331478,0.104
0.0005261599094923427,0.105
-0.0008501391898124601,0.106
-0.001557381604863239,0.107
-0.0023659151996163535,0.108
-0.004001590652910604,0.109
-0.006896214072929523,0.11
-0.010942745743300949,0.111
-0.015451767491786006,0.112
-0.01940001491032657,0.113
-0.02180737082319405,0.114
-0.022085639350286835,0.115
-0.020247529659792433,0.116
-0.016854269800333426,0.117
-0.012724280885997004,0.118
-0.008584832834608126,0.119
-0.004840934028353643,0.12
-0.001522701312364958,0.121
0.0016207824885004238,0.122
0.004941275164291936,0.123
0.00866818637473738,0.124
0.012688343432738645,0.125
0.016419455689891616,0.126
0.01890065221983288,0.127
0.019133428667884287,0.128
0.01646522087718726,0.129
0.010763473413264087,0.13
0.002440068214978902,0.131
-0.007495322127684535,0.132
-0.017438082755584918,0.133
-0.02545015950633282,0.134
-0.02977930421704431,0.135
-0.029384804753215234,0.136
-0.02421068740626529,0.137
-0.015202088021999665,0.138
-0.004157927003918888,0.139
0.006630806266883578,0.14
0.014995013149723162,0.141
0.019575362749691308,0.142
0.020239265902656546,0.143
0.01796756884539141,0.144
0.014298987206363413,0.145
0.010685064412740645,0.146
0.008048667753604974,0.147
0.006663894691265983,0.148
0.006314337592888853,0.149
0.006540417960279922,0.15
0.006826938248650616,0.151
0.0067298555683440895,0.152
0.005965559620912754,0.153
0.004449302987228203,0.154
0.002282523228015631,0.155
-0.0002811535840485423,0.156
-0.002883550678497314,0.157
-0.005150911455346081,0.158
-0.00681596358070779,0.159
-0.007808667344741037,0.16
-0.008250237469687758,0.161
-0.008328367535668384,0.162
-0.008128488473278007,0.163
-0.007575991572950817,0.164
-0.006544431692668385,0.165
-0.0050138891480219295,0.166
-0.0031447978983450897,0.167
-0.001219655352371514,0.168
0.0004877376420500465,0.169
0.0017953496658352612,0.17
0.0026151089685639392,0.171
0.0029351189534144195,0.172
0.0027945534092452752,0.173
0.002243737273317087,0.174
0.0013487604554406904,0.175
0.00024928720968659117,0.176
-0.0008245693932818502,0.177
-0.0015993961086853516,0.178
-0.0018065355901786687,0.179
-0.0012581664847329073,0.18
-8.86667796191868e-06,0.181
0.0015201568730345415,0.182
0.0026503487294712606,0.183
0.0027660698414278145,0.184
0.0016140944319757078,0.185
-0.0006036186229446867,0.186
-0.0033412756627424147,0.187
-0.005895074402749297,0.188
-0.007571170141406787,0.189
-0.007862896168361512,0.19
-0.006642318293650228,0.191
-0.0042199974771411596,0.192
-0.0011721663015055587,0.193
0.001932187106575973,0.194
0.004719253523282321,0.195
0.007047624954896407,0.196
0.008916935451034029,0.197
0.01033851046470625,0.198
0.011259841817289293,0.199
0.01155761566001224,0.2
0.01108027405389095,0.201
0.009717859424270225,0.202
0.007477128280179433,0.203
0.004555877053802856,0.204
0.0013795215984510052,0.205
-0.001478766853212396,0.206
-0.003506851621977131,0.207
-0.004495325192605267,0.208
-0.0047031911285785625,0.209
-0.004822266841039755,0.21
-0.005617399130813998,0.211
-0.007433391240447943,0.212
-0.010004648713742431,0.213
-0.012644275935584107,0.214
-0.014543650593110103,0.215
-0.015024415297316627,0.216
-0.013707749798348923,0.217
-0.010600610159062178,0.218
-0.006115053963703935,0.219
-0.0010008788112935644,0.22
0.003826751987600432,0.221
0.007552051939024961,0.222
0.009738885215384636,0.223
0.010479383498036576,0.224
0.010314355507819057,0.225
0.00995647388361641,0.226
0.009933344962048824,0.227
0.010316635803361809,0.228
0.01070037018112809,0.229
0.010460722460586465,0.23
0.00912588274614484,0.231
0.006619401636136304,0.232
0.0032709300093050598,0.233
-0.00035924260269079117,0.234
-0.0037163084714450316,0.235
-0.006418081312147537,0.236
-0.00827605737450021,0.237
-0.009175305744594641,0.238
-0.008939917098160648,0.239
-0.007389230716181018,0.24
-0.004634762543744359,0.241
-0.001344261355527021,0.242
0.0013496517078535118,0.243
0.00227247894290084,0.244
0.0006830108418380275,0.245
-0.0033800995405674364,0.246
-0.008956628798011996,0.247
-0.01433899695827972,0.248
-0.017537071206058876,0.249
-0.016835228413903593,0.25
-0.011347159148897395,0.251
-0.0015200310555234632,0.252
0.01067748489075013,0.253
0.02218467960656645,0.254
0.029860352737650923,0.255
0.03163784673038933,0.256
0.02724160273905487,0.257
0.018151922964994262,0.258
0.00694697254251541,0.259
-0.0036193401453224402,0.26
-0.01146183839243464,0.261
-0.015650105021577803,0.262
-0.01638642516517185,0.263
-0.014603688476300024,0.264
-0.011464565368472754,0.265
-0.007967783713832704,0.266
-0.004752328074915106,0.267
-0.002104843411014131,0.268
-0.0001107783548447773,0.269
0.0011842445014064369,0.27
0.0017331918431067635,0.271
0.0015534359460085414,0.272
0.0008025836125623268,0.273
-0.00019295476944737274,0.274
-0.0009834285366779054,0.275
-0.0011202514678277174,0.276
-0.0003155968933908537,0.277
0.001429607593243961,0.278
0.0037426839884242002,0.279
0.005837957539019393,0.28
0.006653121310370608,0.281
0.005312069651250487,0.282
0.0017009160577279288,0.283
-0.003309630221380407,0.284
-0.008173783237729115,0.285
-0.011301916283892847,0.286
-0.011702899612056167,0.287
-0.009350157709688592,0.288
-0.005094991774443044,0.289
-0.000210240948709776,0.29
0.0041355730760483525,0.291
0.007209545505710463,0.292
0.00879937125734604,0.293
0.009138116060616696,0.294
0.008723863281088495,0.295
0.00805668941090677,0.296
0.0074167651656066634,0.297
0.006838090242657486,0.298
0.006233474906537025,0.299
0.005490857848107145,0.3
0.004503122362014124,0.301
0.0032146760257967776,0.302
0.0016597677061849863,0.303
-8.791280464693504e-05,0.304
-0.0019936216186027802,0.305
-0.004044828314911947,0.306
-0.006153471431993837,0.307
-0.008105465799484264,0.308
-0.009613814281340676,0.309
-0.010404806332514865,0.31
-0.010269838042508316,0.311
-0.009092159328491053,0.312
-0.006874686061749993,0.313
-0.003759651957989763,0.314
-2.2446554914219245e-05,0.315
0.003947284337858412,0.316
0.007651883801230099,0.317
0.010475976635898337,0.318
0.011710284604618648,0.319
0.010691889549084193,0.32
0.0070738422457418074,0.321
0.001116738628653252,0.322
-0.006176986252387993,0.323
-0.013233090546239206,0.324
-0.018354861878035672,0.325
-0.02023918670662679,0.326
-0.018334182549368954,0.327
-0.01294452224476889,0.328
-0.005106478063340205,0.329
0.003681416563761971,0.33
0.011781791523333064,0.331
0.017763065736340674,0.332
0.02071352442732152,0.333
0.020398107184289183,0.334
0.017203447599712877,0.335
0.011959526014187332,0.336
0.0057505738002464005,0.337
-0.00024776794540828353,0.338
-0.004949501985051221,0.339
-0.0075746370363566195,0.34
-0.007807380061135824,0.341
-0.005839126418549775,0.342
-0.0023537017945893237,0.343
0.0015744880542343433,0.344
0.0047790329963686914,0.345
0.006410089089939859,0.346
0.00619075551477341,0.347
0.004389934868165418,0.348
0.001621410666584358,0.349
-0.0013804906042406983,0.35
-0.003972928257477131,0.351
-0.005784751587302102,0.352
-0.006787334933267157,0.353
-0.007206069903878045,0.354
-0.007325889915091406,0.355
-0.007312795034700064,0.356
-0.007133039661483826,0.357
-0.0065833136103400506,0.358
-0.005428348431827855,0.359
-0.003600834969938574,0.36
-0.0013525060052098571,0.361
0.0007399980244380205,0.362
0.0019342855263323516,0.363
0.0016034650489845,0.364
-0.0004211421152292309,0.365
-0.0035368827975153488,0.366
-0.006342608044636971,0.367
-0.007159615239777159,0.368
-0.004883422366692177,0.369
0.0004236371898745025,0.37
0.00753401446026114,0.371
0.01453068390429135,0.372
0.019445457200259517,0.373
0.020854630702134624,0.374
0.018337763743919325,0.375
0.012626106127691597,0.376
0.00530399077425601,0.377
-0.0017801078631446878,0.378
-0.007081993065473689,0.379
-0.009736501819201916,0.38
-0.0096842093552305,0.381
-0.0075384790040643294,0.382
-0.004281779619109999,0.383
-0.0009362432578390352,0.384
0.0016890754236930322,0.385
0.003131256852705891,0.386
0.0032869171547184085,0.387
0.002336442643865943,0.388
0.0006258558163287715,0.389
-0.0014481668602514236,0.39
-0.0035085117265740476,0.391
-0.005216627009501168,0.392
-0.0062884803466906536,0.393
-0.006531923532962285,0.394
-0.005884315681849483,0.395
-0.004437177066218131,0.396
-0.0024265352010266884,0.397
-0.00016962484554750308,0.398
0.0020200749619692935,0.399
0.003885952169958348,0.4
0.005230851573082965,0.401
0.005895656020633501,0.402
0.005757895713749029,0.403
0.004761610970437947,0.404
0.0029452739132844576,0.405
0.0004541581302556784,0.406
-0.0024418882310847773,0.407
-0.00534007187543693,0.408
-0.00775189475751639,0.409
-0.009213107542771267,0.41
-0.009415638666656883,0.411
-0.008296951962701842,0.412
-0.006038185967435187,0.413
-0.0029879230719504764,0.414
0.00043342391432185613,0.415
0.0037990525741513825,0.416
0.006691732945069249,0.417
0.00871194915856877,0.418
0.009528892026359032,0.419
0.008972343541993392,0.42
0.00711335280177125,0.421
0.004268009563026903,0.422
0.0009194484024850066,0.423
-0.002389055800126348,0.424
-0.005157150245929421,0.425
-0.007012118550350911,0.426
-0.007750711003951759,0.427
-0.0073271205211523855,0.428
-0.005800292743836616,0.429
-0.003265763761830954,0.43
0.00020717344490885016,0.431
0.004615705448312263,0.432
0.009990998723135448,0.433
0.0162249981740178,0.434
0.022753531209074897,0.435
0.028227971440718518,0.436
0.030514008777041513,0.437
0.02741228828423444,0.438
0.017936546401180628,0.439
0.003218489280837198,0.44
-0.013709660294217408,0.441
-0.029044405004843527,0.442
-0.03950419081333309,0.443
-0.04320773017728233,0.444
-0.03999492154661836,0.445
-0.031303882731779864,0.446
-0.019680360611913715,0.447
-0.00800425138736529,0.448
0.0013495929328367652,0.449
0.0071333433579505254,0.45
0.00940871027295179,0.451
0.009242413176495573,0.452
0.008064129465553984,0.453
0.006999315027383812,0.454
0.00652598435168146,0.455
0.006570402652113768,0.456
0.00682251286275411,0.457
0.006987429306394693,0.458
0.006896265149485644,0.459
0.006532998223801553,0.46
0.006004530116617367,0.461
0.005481411981153657,0.462
0.005155655693699743,0.463
0.005202831028755204,0.464
0.005716217800982173,0.465
0.006638132114016208,0.466
0.007721037315415075,0.467
0.008533344028602459,0.468
0.008542704428390394,0.469
0.007277542865959565,0.47
0.004492641546763266,0.471
0.00028841002161573347,0.472
-0.004812151760691049,0.473
-0.009899698522506759,0.474
-0.013929706374366834,0.475
-0.01609727008376399,0.476
-0.01608282908342289,0.477
-0.014039136611537944,0.478
-0.010428137346105634,0.479
-0.005880121274681344,0.48
-0.0011255336014300888,0.481
0.0030498866518478625,0.482
0.005888342333654709,0.483
0.006813629290176382,0.484
0.005611039826149568,0.485
0.002556671937044877,0.486
-0.0015400253910646314,0.487
-0.005452171345691582,0.488
-0.007907197909687384,0.489
-0.008089857766575084,0.49
-0.005952065696676423,0.491
-0.002173706394807165,0.492
0.0021438182852795986,0.493
0.005909496811013213,0.494
0.008417477832879484,0.495
0.009492916172065949,0.496
0.009387113902549099,0.497
0.008545494104763086,0.498
0.007392636973421275,0.499
0.006214085293606518,0.5
0.005138230920942577,0.501
0.004160650878986955,0.502
0.003173868885507178,0.503
0.002037924320259697,0.504
0.0006800460791021977,0.505
-0.000868199939866867,0.506
-0.002507135910960261,0.507
-0.004096590258198826,0.508
-0.0054496726792053725,0.509
-0.006348775692563091,0.51
-0.006611219360544869,0.511
-0.0061566517491250935,0.512
-0.005037539151151983,0.513
-0.00343876929668593,0.514
-0.0016418925071069249,0.515
4.693871463323975e-05,0.516
0.0013672925042039275,0.517
0.0021383203103487827,0.518
0.002267680526327508,0.519
0.0017665368349173687,0.52
0.0007771202803883117,0.521
-0.0004113506364910862,0.522
-0.0014008713390182795,0.523
-0.0018103452258600215,0.524
-0.0014721199268715398,0.525
-0.0005918635475746204,0.526
0.0003092325543049381,0.527
0.0007134569247699492,0.528
0.0004310281148747016,0.529
-0.0003304354146515136,0.53
-0.001111395258990243,0.531
-0.00140881702173614,0.532
-0.0008760331644320734,0.533
0.0005540419217764377,0.534
0.002665114993536048,0.535
0.005018704716437735,0.536
0.00703118479588852,0.537
0.008089381686175456,0.538
0.007715239604135062,0.539
0.005734909370758241,0.54
0.0023802533039855487,0.541
-0.0017471417925554113,0.542
-0.005850944634768072,0.543
-0.009150565820553458,0.544
-0.011038671163087911,0.545
-0.011209466105890718,0.546
-0.009751343795606979,0.547
-0.007105509857172741,0.548
-0.0038913077414806157,0.549
-0.0007173319219273762,0.55
0.001946432477823972,0.551
0.0038240609959652332,0.552
0.004836328105802628,0.553
0.005082827665168793,0.554
0.004794250260947271,0.555
0.004229725017793113,0.556
0.0035604744143324547,0.557
0.0028309353047845866,0.558
0.0020413770216963743,0.559
0.001277930660478226,0.56
0.0007485053799706779,0.561
0.0006753256858708643,0.562
0.0011438573926276486,0.563
0.0020420252539375084,0.564
0.003128735064607203,0.565
0.004144883026305492,0.566
0.00486949787501107,0.567
0.005124338463967376,0.568
0.004773521189063217,0.569
0.0037369303982861916,0.57
0.0020252796394604014,0.571
-0.00021433902862259856,0.572
-0.0026932065011250473,0.573
-0.005044535265454632,0.574
-0.006913775309181134,0.575
-0.008028827698610769,0.576
-0.008249074498845767,0.577
-0.007592874520721984,0.578
-0.006222730164227249,0.579
-0.004391335463680363,0.58
-0.002384966107818097,0.581
-0.0004996975280546783,0.582
0.0009409219710209882,0.583
0.0015732055963056575,0.584
0.0010838326934289326,0.585
-0.0005553035218858262,0.586
-0.0028707315284944397,0.587
-0.004961850867494142,0.588
-0.00589992923246278,0.589
-0.005157632782905779,0.59
-0.0027739388211915897,0.591
0.0007683052805732309,0.592
0.0047699367081550335,0.593
0.008494168250539872,0.594
0.011271671549868205,0.595
0.01258063267750491,0.596
0.012152049982603498,0.597
0.010103174497856096,0.598
0.007006148334092412,0.599
0.003727190822442635,0.6
0.0010311811491111533,0.601
-0.0007588422335047529,0.602
-0.001778280363717934,0.603
-0.002382345796824526,0.604
-0.0029022620240129675,0.605
-0.0035219451649472645,0.606
-0.004254606198201781,0.607
-0.004985293118480352,0.608
-0.00555321707214675,0.609
-0.00582987266774756,0.61
-0.005750392677943061,0.611
-0.005295621677443734,0.612
-0.004466395670224998,0.613
-0.0032723649865860497,0.614
-0.001720603351978765,0.615
0.0001959589628701233,0.616
0.0024816945491984215,0.617
0.005071711471776957,0.618
0.007734824244011573,0.619
0.010003413628921314,0.62
0.011187541136541553,0.621
0.010509637875411676,0.622
0.0073934169605434615,0.623
0.0018476457487730921,0.624
-0.005310317582301029,0.625
-0.012615835709179249,0.626
-0.018422564815099067,0.627
-0.021404192628330074,0.628
-0.020882178658960318,0.629
-0.01690200635071345,0.63
-0.01010978042914399,0.631
-0.001568311534658703,0.632
0.007392689206710628,0.633
0.01533549104219849,0.634
0.020960675198414547,0.635
0.023408913570858475,0.636
0.022489263249434087,0.637
0.018709675679448857,0.638
0.013068398851262885,0.639
0.006699242217194043,0.64
0.000570800114941083,0.641
-0.004621735125401676,0.642
-0.008427809085563797,0.643
-0.01061958907073947,0.644
-0.011223758036519264,0.645
-0.010535946605125095,0.646
-0.00904069914464011,0.647
-0.007242833743614291,0.648
-0.005492469105182159,0.649
-0.0039006086701630187,0.65
-0.0023944402324467726,0.651
-0.0008678564275404302,0.652
0.0006814233574510227,0.653
0.002102630696113385,0.654
0.0031397484200428394,0.655
0.00354910731521891,0.656
0.0032280994644329473,0.657
0.0022913168588516936,0.658
0.001053342911174626,0.659
-8.468597325940295e-05,0.66
-0.0007861381911846328,0.661
-0.0008892153412069207,0.662
-0.0004419061482949426,0.663
0.00033281640458133175,0.664
0.0011265405202328105,0.665
0.0016587907985137432,0.666
0.0017634099977075922,0.667
0.0014125981621804,0.668
0.0006743103088327338,0.669
-0.0003527064144502289,0.67
-0.0015578385054917606,0.671
-0.002791138504569374,0.672
-0.003849571897905147,0.673
-0.004505509070136914,0.674
-0.004554633320922715,0.675
-0.003863879180682023,0.676
-0.002420264692959786,0.677
-0.0003657398008314147,0.678
0.0020080297004717593,0.679
0.004315494088016264,0.68
0.006165796662143984,0.681
0.0072479251227564045,0.682
0.007400647249014589,0.683
0.006661743636791948,0.684
0.005249676943469578,0.685
0.003457825594824942,0.686
0.0015392234740582288,0.687
-0.0003251371515708371,0.688
-0.00196546849119179,0.689
-0.0031400378254567863,0.69
-0.003525017587738013,0.691
-0.002827796151416037,0.692
-0.000980315570185919,0.693
0.0016944947162839507,0.694
0.004442053266663076,0.695
0.0062411040981663335,0.696
0.006215540190263498,0.697
0.004123199946290338,0.698
0.0005287008532970493,0.699
-0.003510509274181704,0.7
-0.006951400967968852,0.701
-0.009112065199086661,0.702
-0.009778657965372613,0.703
-0.00915839162315692,0.704
-0.007737830786709245,0.705
-0.006059399532841657,0.706
-0.004504438368659357,0.707
-0.0032156861999660387,0.708
-0.0021533277229881585,0.709
-0.001178892465327867,0.71
-0.0001298952161303511,0.711
0.0010994211543485543,0.712
0.0024893592176840375,0.713
0.0038843167080918513,0.714
0.00505172555409805,0.715
0.005768237530244034,0.716
0.005890275477912072,0.717
0.005387624390402079,0.718
0.004350355135883643,0.719
0.002991462369151923,0.72
0.0016243201620329613,0.721
0.0005914912607524954,0.722
0.00016869189644525004,0.723
0.00046796773573121544,0.724
0.001359105828311621,0.725
0.002468736211668301,0.726
0.0033055921541120005,0.727
0.0034650843846623226,0.728
0.0027837803852960316,0.729
0.001350585172452454,0.73
-0.00058522298557737,0.731
-0.0027136912920067333,0.732
-0.004720502131447685,0.733
-0.006306237231299912,0.734
-0.0072159315538116225,0.735
-0.007281313337531058,0.736
-0.006440962961454999,0.737
-0.004766349024938296,0.738
-0.0025089170951762703,0.739
-8.67769535702794e-05,0.74
0.002045692605100068,0.741
0.0035703473488092113,0.742
0.0044020290849171445,0.743
0.004679425305068905,0.744
0.0046842792909440436,0.745
0.004712571270944315,0.746
0.004927593196175642,0.747
0.005252570600910246,0.748
0.005365559200423626,0.749
0.004842586391795395,0.75
0.0033973978349897435,0.751
0.001043103852471957,0.752
-0.0018963322957380579,0.753
-0.004843741981458657,0.754
-0.007108927748952987,0.755
-0.008144676837464377,0.756
-0.007775440125368817,0.757
-0.006233732152281424,0.758
-0.004011033082125808,0.759
-0.0016554440854509931,0.76
0.00038449365499861336,0.761
0.001843993196097558,0.762
0.002652051935678319,0.763
0.002889828114926298,0.764
0.0027372926357891393,0.765
0.0024239051846134613,0.766
0.0021764276241207424,0.767
0.0021618395847785017,0.768
0.0024254278560036624,0.769
0.0028523268221215714,0.77
0.0032027221611418597,0.771
0.003206422219437802,0.772
0.00266768896117525,0.773
0.001549686433915958,0.774
-1.0357856708478995e-05,0.775
-0.0017658286066267422,0.776
-0.0034473110970408226,0.777
-0.004834491900683997,0.778
-0.005801270225267194,0.779
-0.006311088446193315,0.78
-0.006372331042680046,0.781
-0.005996682712468647,0.782
-0.00518508017038116,0.783
-0.003951970397091327,0.784
-0.0023808640443415178,0.785
-0.0006622376174602346,0.786
0.0009383855305543595,0.787
0.002182269495701048,0.788
0.002965725127693655,0.789
0.0033571757391740904,0.79
0.003549478695308526,0.791
0.0037709564693286096,0.792
0.004190744901807121,0.793
0.00484952233695507,0.794
0.00564942921836118,0.795
0.006397907864578532,0.796
0.006870092137537381,0.797
0.006868499047355279,0.798
0.00627700275009988,0.799
0.005097909377954299,0.8
0.0034417217022857955,0.801
0.0014706492874745842,0.802
-0.000650283489300756,0.803
-0.002760784311208802,0.804
-0.004691826280075015,0.805
-0.006263396517230267,0.806
-0.007298462906608986,0.807
-0.0076372265236240985,0.808
-0.007158246127515994,0.809
-0.005821528098424669,0.81
-0.0037081921808824214,0.811
-0.0010388243810730154,0.812
0.001804749392076764,0.813
0.004282532388820456,0.814
0.005816607561736525,0.815
0.006013282097949603,0.816
0.004825009261671913,0.817
0.002551714130398385,0.818
-0.0002727622204391534,0.819
-0.0030481238024836982,0.82
-0.005287720976747316,0.821
-0.006743210281600929,0.822
-0.007420187016927323,0.823
-0.007502759579029976,0.824
-0.007250115096150963,0.825
-0.006897167197959345,0.826
-0.0065655764545132075,0.827
-0.006214919753861361,0.828
-0.005648238515443752,0.829
-0.004559361193691542,0.83
-0.002627685733887773,0.831
0.0003564975401511586,0.832
0.00440734611196398,0.833
0.00933181003753647,0.834
0.01471742249681779,0.835
0.019859212706972038,0.836
0.023714718892259158,0.837
0.025048479866125066,0.838
0.02286103315325689,0.839
0.016989326288256248,0.84
0.008434629675475763,0.841
-0.0009654337477631578,0.842
-0.00929778765355561,0.843
-0.01522494325289625,0.844
-0.018242743289005485,0.845
-0.018581796520452974,0.846
-0.016931309580283046,0.847
-0.014137019255533319,0.848
-0.010946390084932455,0.849
-0.007855869145933642,0.85
-0.00509290153226421,0.851
-0.0027094522848091665,0.852
-0.0007135788336540571,0.853
0.0008438108805440706,0.854
0.0018698345052494641,0.855
0.002299190308846479,0.856
0.0021738644002918936,0.857
0.0016808741846101236,0.858
0.001120465469468854,0.859
0.0008079218512226316,0.86
0.0009600801627943427,0.861
0.0016340250227260798,0.862
0.0027339284174844563,0.863
0.00405086832955684,0.864
0.005314316118230136,0.865
0.006260391991486163,0.866
0.006699397946958424,0.867
0.006549671490798151,0.868
0.005827887992549253,0.869
0.004608665608358458,0.87
0.002989146026509377,0.871
0.0010845442453179537,0.872
-0.0009644533657480729,0.873
-0.0029895269527045,0.874
-0.004789583738471739,0.875
-0.0061330454677840105,0.876
-0.006795199188765923,0.877
-0.006627997513170376,0.878
-0.005618436031213312,0.879
-0.003899771714880814,0.88
-0.0017204061437954246,0.881
0.0006118301478671322,0.882
0.0027872305288421033,0.883
0.004529670052424003,0.884
0.005617910652334944,0.885
0.005907357521123422,0.886
0.005342500894107834,0.887
0.003963003430877012,0.888
0.001921501724352865,0.889
-0.0004984406696949793,0.89
-0.00289919735150107,0.891
-0.004842237256633191,0.892
-0.005963461566627337,0.893
-0.006072968223078212,0.894
-0.005194300205368237,0.895
-0.0035523610092331286,0.896
-0.0015214034709463771,0.897
0.0004699025818324694,0.898
0.0020548195570338885,0.899
0.0030124742607831236,0.9
0.003285138642644833,0.901
0.002949151455585175,0.902
0.002168048492683352,0.903
0.0011399281993748926,0.904
5.1727471054106726e-05,0.905
-0.000942929411162926,0.906
-0.0017174986324597068,0.907
-0.0021662675896358995,0.908
-0.002220948395365988,0.909
-0.0018669499422081623,0.91
-0.00114152201663787,0.911
-0.0001321133579263046,0.912
0.001019115239190211,0.913
0.0021265285073563123,0.914
0.0030015920467484475,0.915
0.003507093073805155,0.916
0.003589688739600112,0.917
0.003275946795296688,0.918
0.0026606186236693232,0.919
0.0019021911444438335,0.92
0.00119660275109707,0.921
0.0007209804006969868,0.922
0.0005705879725431444,0.923
0.0006982764612114678,0.924
0.0008606656215506613,0.925
0.0006134235600264411,0.926
-0.0005361005520961449,0.927
-0.0027768353141420167,0.928
-0.005685934421702145,0.929
-0.008300946720854166,0.93
-0.009556404725237232,0.931
-0.008777556922416968,0.932
-0.005972295774843808,0.933
-0.00180814966670634,0.934
0.002671761874789286,0.935
0.0064246138691476115,0.936
0.008723889441209366,0.937
0.00931209596717796,0.938
0.008356275511437389,0.939
0.006278094630846407,0.94
0.003575127657357425,0.941
0.0007142674403222596,0.942
-0.001891659774717222,0.943
-0.003889852890290959,0.944
-0.00503849178861905,0.945
-0.005268787128558565,0.946
-0.004686678447774139,0.947
-0.0035079172736785,0.948
-0.0019758696571990655,0.949
-0.0003141963228600476,0.95
0.0012662323830523545,0.951
0.0025427151492609544,0.952
0.0032934977487778607,0.953
0.0033539646105104543,0.954
0.0026724503581931187,0.955
0.0013368432081572994,0.956
-0.0004215815685217585,0.957
-0.002253497899877993,0.958
-0.0037562238647293436,0.959
-0.0045562680486863506,0.96
-0.00438266613552317,0.961
-0.0031209183178585276,0.962
-0.0008464335365065818,0.963
0.0021700680740774957,0.964
0.005484632427265326,0.965
0.008512373965870018,0.966
0.010585443791172308,0.967
0.01109155760992697,0.968
0.009697563549673539,0.969
0.006524908451944113,0.97
0.002116745844729539,0.971
-0.00276848733568016,0.972
-0.007361173276639763,0.973
-0.010996921331163818,0.974
-0.013183289681807741,0.975
-0.013658239933230126,0.976
-0.012423284676067839,0.977
-0.009730340414460763,0.978
-0.006038621874715858,0.979
-0.0019430857166841062,0.98
0.001940136495099202,0.981
0.005104223110388641,0.982
0.007238768336171211,0.983
0.008242305351163406,0.984
0.00818533881523836,0.985
0.007254991573013627,0.986
0.005687653031651766,0.987
0.0037181973408161994,0.988
0.0015790553287981417,0.989
-0.00047258497762984715,0.99
-0.002153082153301607,0.991
-0.0032088725270742807,0.992
-0.003501085695070865,0.993
-0.0030457805560136528,0.994
-0.0019929979991866664,0.995
-0.0005799912602584467,0.996
0.0009257295441139827,0.997
0.0022803954153702097,0.998
0.0032929881179701815,0.999
0.003827531567992125,1.0
0.003800766658668735,1.001
0.003196027390029088,1.002
0.0020829060324919057,1.003
0.0006148380202525576,1.004
-0.0010064021622841917,1.005
-0.0025735498016680883,1.006
-0.003888039134240631,1.007
-0.004767045987021833,1.008
-0.005079223784564398,1.009
-0.004773863934138457,1.01
-0.0038750946143223447,1.011
-0.0024757277106961083,1.012
-0.0007415333436144525,1.013
0.0010992180520616208,1.014
0.0027881851392614555,1.015
0.004085893504808047,1.016
0.00482391851321699,1.017
0.004933213929054879,1.018
0.004438970409631723,1.019
0.0034422351813504157,1.02
0.002099249640787365,1.021
0.0005908675790495504,1.022
-0.0009108791957447338,1.023
-0.002255263402650045,1.024
-0.00330487138363277,1.025
-0.003937559474901626,1.026
-0.00407030412204388,1.027
-0.0036860707441228077,1.028
-0.002846393991987316,1.029
-0.001690388118969689,1.03
-0.0004211599691159298,1.031
0.000728422541046108,1.032
0.0015492399154798152,1.033
0.0019139551218623745,1.034
0.0018089934566232534,1.035
0.0013162936227260021,1.036
0.0005662389143923893,1.037
-0.0002991592265539671,1.038
-0.0011407111537603538,1.039
-0.0018317591267837422,1.04
-0.002279878420960425,1.041
-0.0024466191870459236,1.042
-0.002338503924319423,1.043
-0.001966472597959073,1.044
-0.0013114275274205426,1.045
-0.0003354240316671606,1.046
0.0009765636589149738,1.047
0.002587462754774635,1.048
0.0044053506422121495,1.049
0.006284696850462571,1.05
0.008012098190267637,1.051
0.009309749789749749,1.052
0.009886811212510659,1.053
0.009491279087978517,1.054
0.007936338132099026,1.055
0.00515053186432658,1.056
0.0012669547328163797,1.057
-0.003291328035937441,1.058
-0.007798317515362326,1.059
-0.01136899811014651,1.06
-0.013253938768852964,1.061
-0.013122915496943648,1.062
-0.011158892704019341,1.063
-0.007937374518570446,1.064
-0.004204576786544985,1.065
-0.0006702418997162155,1.066
0.002123920027554717,1.067
0.003854093424915602,1.068
0.0044251233655800744,1.069
0.003965788424973172,1.07
0.00278268682086252,1.071
0.0012659715607924182,1.072
-0.0002124141837296943,1.073
-0.0013667571763232992,1.074
-0.0020226453595155337,1.075
-0.0021129758305787503,1.076
-0.001659297332903507,1.077
-0.0007532301198368724,1.078
0.0004500654752437522,1.079
0.001741474438761892,1.08
0.0028983142991751525,1.081
0.0037470993242765967,1.082
0.004199106863646865,1.083
0.0042296195537652815,1.084
0.0038423797304122445,1.085
0.0030734882661138155,1.086
0.0020161275568783207,1.087
0.0008141750224343045,1.088
-0.00037843547955823236,1.089
-0.00143761161708544,1.09
-0.002277779136536275,1.091
-0.002826517827976591,1.092
-0.0030038484534192435,1.093
-0.002740550116518926,1.094
-0.0020177432773280228,1.095
-0.0008964459113896181,1.096
0.0004734378174888735,1.097
0.0018670061418031476,1.098
0.0030281521555554306,1.099
0.0037420995994158902,1.1
0.0038967504340509836,1.101
0.0034942118425625615,1.102
0.0026237952854861663,1.103
0.0014207061685770983,1.104
3.3084802236200576e-05,1.105
-0.001386140730943354,1.106
-0.0026776311667604936,1.107
-0.003682877746417302,1.108
-0.004264681629889538,1.109
-0.004341030480986098,1.11
-0.003916562824156238,1.111
-0.0030862023567718474,1.112
-0.002006507442874379,1.113
-0.000848607942828917,1.114
0.00025186864067918834,1.115
0.0012188550875283214,1.116
0.002010509333276623,1.117
0.00256924529312713,1.118
0.002805098944207995,1.119
0.002637619721592688,1.12
0.0020518392147103933,1.121
0.001115308758889093,1.122
-3.444529548498493e-05,1.123
-0.0012017381255119048,1.124
-0.0021558116348607296,1.125
-0.0026835339652428484,1.126
-0.0026557953093732057,1.127
-0.002073323023618877,1.128
-0.0010578292785098293,1.129
0.00020565055603716047,1.13
0.001524369658624134,1.131
0.002721529325082517,1.132
0.0036382140311993823,1.133
0.0041295219394266005,1.134
0.004074702617510326,1.135
0.0034221507639664657,1.136
0.0022436362948640184,1.137
0.0007419720695362103,1.138
-0.0007935313020541406,1.139
-0.002059392013093983,1.14
-0.002826754428768826,1.141
-0.0030138389278608385,1.142
-0.0026966350319372326,1.143
-0.0020520143775216854,1.144
-0.0012773683649052467,1.145
-0.0005378254251144307,1.146
4.801703662623233e-05,1.147
0.00040595171642986524,1.148
0.0005130364234883309,1.149
0.0004098436720203144,1.15
0.00018485589628977747,1.151
-7.490748275146882e-05,1.152
-0.0003293301622199421,1.153
-0.0005901857085559327,1.154
-0.0008890605700315715,1.155
-0.0012412096000643674,1.156
-0.0016167508508850169,1.157
-0.0019227156848860897,1.158
-0.002023884653274783,1.159
-0.0018019290801961725,1.16
-0.0012140534872468053,1.161
-0.00032249996792181314,1.162
0.0007207491319615794,1.163
0.0017314857409415918,1.164
0.002560756068106184,1.165
0.0031350805042834025,1.166
0.0034497822031391693,1.167
0.003525966151049383,1.168
0.003373673980768212,1.169
0.002990863506543442,1.17
0.0023848094512406563,1.171
0.001593015898250072,1.172
0.0006896878391027449,1.173
-0.00022618094416508176,1.174
-0.0010451115862843852,1.175
-0.0016562099884511099,1.176
-0.0019713699374564794,1.177
-0.001963891380590458,1.178
-0.0016784399419739876,1.179
-0.0011960195145298692,1.18
-0.0005968447860245592,1.181
4.229907272761938e-05,1.182
0.0006332179084918561,1.183
0.0010819105463615148,1.184
0.001314410325017031,1.185
0.001289802408283423,1.186
0.0009952115550181718,1.187
0.0004444423873868908,1.188
-0.000312505168967367,1.189
-0.0011768851573963443,1.19
-0.0020038168643386925,1.191
-0.0026345207656040997,1.192
-0.0029430011724454956,1.193
-0.0028708569345381745,1.194
-0.002439153070675895,1.195
-0.001738652798379973,1.196
-0.0009004578199247668,1.197
-5.2377197352672165e-05,1.198
0.0007151183438461243,1.199
0.0013540401936268393,1.2
0.0018377219998872783,1.201
0.002126361750739944,1.202
0.0021584185288774783,1.203
0.0018949883382451587,1.204
0.0013723039876209718,1.205
0.0007022831928744934,1.206
2.8314352825553205e-05,1.207
-0.0005137161859636037,1.208
-0.0008166667708791,1.209
-0.000824972404412781,1.21
-0.0005521548312277657,1.211
-7.27182548003726e-05,1.212
0.0005068205761853911,1.213
0.001069876309694563,1.214
0.001497383355373252,1.215
0.0016828197440237566,1.216
0.0015591764858984938,1.217
0.001123565271727628,1.218
0.00044564767041055435,1.219
-0.0003483625582076471,1.22
-0.0011106394606872315,1.221
-0.0017095407207363216,1.222
-0.0020579021643612836,1.223
-0.002131487185128242,1.224
-0.001968863460369094,1.225
-0.00164330369443248,1.226
-0.0012251970260128823,1.227
-0.0007556970847828711,1.228
-0.00023857295807175642,1.229
0.00034718546851344263,1.23
0.001020857867356951,1.231
0.0017678929655141717,1.232
0.002510529060037797,1.233
0.0031015754343934484,1.234
0.0033622696925017423,1.235
0.003156070419353315,1.236
0.0024562241995259504,1.237
0.001366267690482609,1.238
8.752759062499835e-05,1.239
-0.0011407370791529372,1.24
-0.002101173657472868,1.241
-0.002647914719787498,1.242
-0.0027388211660763864,1.243
-0.0024342239123589767,1.244
-0.001857204074368629,1.245
-0.001138752763896008,1.246
-0.00038082338382797594,1.247
0.0003451274835684967,1.248
0.0009716124772588284,1.249
0.0014116757813386082,1.25
0.001572437413979024,1.251
0.0014065363617344895,1.252
0.0009593228992357052,1.253
0.00036487382400760064,1.254
-0.0002126603977258317,1.255
-0.0006459140888391815,1.256
-0.000877556016056102,1.257
-0.0009214565651670928,1.258
-0.0008411233542949734,1.259
-0.0007109905667045362,1.26
-0.0005878171934093065,1.261
-0.0005085157250473318,1.262
-0.0004925574976450327,1.263
-0.0005310556840238008,1.264
-0.0005745134642133206,1.265
-0.0005462305674267101,1.266
-0.00038933068660108573,1.267
-0.00011161037298905096,1.268
0.00021296579946781207,1.269
0.0004847953010165897,1.27
0.000629584774270523,1.271
0.0006341322261582082,1.272
0.0005460362392476815,1.273
0.00043080478753604415,1.274
0.00033534920194460056,1.275
0.0002980199312372985,1.276
0.00036369200914892835,1.277
0.0005636678133609399,1.278
0.0008824352756543461,1.279
0.0012508480363832156,1.28
0.0015776401797558707,1.281
0.001793411385612442,1.282
0.00187537926326192,1.283
0.0018400155241750013,1.284
0.0017050705030225717,1.285
0.0014486698409408773,1.286
0.0010125260528780526,1.287
0.0003515756363234936,1.288
-0.0005187572904726456,1.289
-0.0015020453508052408,1.29
-0.002427815430139132,1.291
-0.0030969101637500687,1.292
-0.003349548414408352,1.293
-0.003114578803722322,1.294
-0.0024273617315741327,1.295
-0.001424527034404681,1.296
-0.000305612539611842,1.297
0.0007328856288277642,1.298
0.0015417686072213411,1.299
0.0020223704408115243,1.3
0.0021273599874701275,1.301
0.0018735245587772629,1.302
0.0013387345592713778,1.303
0.0006337851226591327,1.304
-0.0001262036831169144,1.305
-0.0008302136893567742,1.306
-0.0013716341415667185,1.307
-0.0016606068040638479,1.308
-0.0016424863358261786,1.309
-0.0013129033500837962,1.31
-0.0007315043513758083,1.311
-1.9258970844337327e-05,1.312
0.0006746014266744432,1.313
0.001216753749379903,1.314
0.0015209861055589737,1.315
0.0015621686792235906,1.316
0.0013738725724122128,1.317
0.0010272956517505248,1.318
0.000600793232007593,1.319
0.0001543110950414987,1.32
-0.0002822775528326264,1.321
-0.0006938238474649359,1.322
-0.001047754467937043,1.323
-0.0012853554152997516,1.324
-0.0013481409599659152,1.325
-0.0012107470584675774,1.326
-0.0008978847141894051,1.327
-0.0004803463997019534,1.328
-5.1183775441138866e-05,1.329
0.00030481663306881863,1.33
0.0005361177415796597,1.331
0.0006432028830351593,1.332
0.0006766768305800827,1.333
0.0007035712907680403,1.334
0.0007697202422932711,1.335
0.0008842140673831118,1.336
0.0010195247259529978,1.337
0.0011186147032931238,1.338
0.001110910582751814,1.339
0.000940082274000712,1.34
0.000592232243885383,1.341
0.00010686632849068233,1.342
-0.00042930346666339946,1.343
-0.0009061923086166206,1.344
-0.0012267878162680844,1.345
-0.0013244937842291826,1.346
-0.0011580704038048238,1.347
-0.0007231418818902306,1.348
-7.805507445876272e-05,1.349
0.0006583945830394511,1.35
0.0013347129400561285,1.351
0.0017947769381209979,1.352
0.0019185112791223868,1.353
0.0016747820629137802,1.354
0.001140765694790901,1.355
0.00046092915054074356,1.356
-0.0002228382384862681,1.357
-0.0008145101388550895,1.358
-0.0012556318730285794,1.359
-0.0014963543821956686,1.36
-0.0014956933103224437,1.361
-0.0012544454235680347,1.362
-0.0008362208834011677,1.363
-0.00034948841027915647,1.364
9.154596079706458e-05,1.365
0.00039814508635520286,1.366
0.000516703459023375,1.367
0.00043102632665395024,1.368
0.00017335315138950944,1.369
-0.0001791671962363965,1.37
-0.0005387920197480161,1.371
-0.000840444046674939,1.372
-0.0010489796761600865,1.373
-0.0011500158438406327,1.374
-0.0011366078248047909,1.375
-0.0009965173673152873,1.376
-0.0007094629811205611,1.377
-0.0002574618818953028,1.378
0.0003623727058785469,1.379
0.0011207425564977156,1.38
0.00193560411839458,1.381
0.002674966198347007,1.382
0.0031893004977897924,1.383
0.0033547418773782122,1.384
0.00311372093025041,1.385
0.0024919339392512115,1.386
0.0015864997022343684,1.387
0.0005420346107105733,1.388
-0.0004821891018114455,1.389
-0.001352602888631342,1.39
-0.0020011588941397105,1.391
-0.002436508813360183,1.392
-0.0027008128748758843,1.393
-0.0028125100863323504,1.394
-0.002750772198362023,1.395
-0.0024808848588391184,1.396
-0.0019872778566758288,1.397
-0.0012951839341445886,1.398
-0.0004799580639781798,1.399
0.00034347077162073195,1.4
0.0010487873690287293,1.401
0.0015256891973695595,1.402
0.0017003223080659755,1.403
0.001549724614165488,1.404
0.001108575798095009,1.405
0.0004692058999162264,1.406
-0.00022550946358597547,1.407
-0.0007997403711766764,1.408
-0.0010760002333195327,1.409
-0.0009216782440079796,1.41
-0.0003044686347257389,1.411
0.0006698144394087061,1.412
0.001773600174103238,1.413
0.0027350096449562447,1.414
0.003332328224081596,1.415
0.0034464488856079476,1.416
0.0030623196403322625,1.417
0.0022501446508964716,1.418
0.0011361426473735618,1.419
-0.00013424712735796452,1.42
-0.0014202385504194807,1.421
-0.002590821207236221,1.422
-0.0035272001359219307,1.423
-0.0041315025146421895,1.424
-0.004335348843025948,1.425
-0.004106202999828169,1.426
-0.0034611067681406178,1.427
-0.002479143330526707,1.428
-0.0012884330053862024,1.429
-3.129203080958506e-05,1.43
0.0011665095071931948,1.431
0.0022069394064582184,1.432
0.003019327867289852,1.433
0.003563310273385416,1.434
0.003824813415494668,1.435
0.0037955768863271867,1.436
0.0034638227856793454,1.437
0.0028357015213643626,1.438
0.0019646716068724554,1.439
0.0009573907362055957,1.44
-5.0685336607835206e-05,1.441
-0.0009283332991659876,1.442
-0.0015710381173267146,1.443
-0.00191561350438681,1.444
-0.0019511222342089658,1.445
-0.0017235552076080433,1.446
-0.0013243676743286525,1.447
-0.0008610206683586775,1.448
-0.0004287383390207424,1.449
-9.616491296773509e-05,1.45
9.469507121354849e-05,1.451
0.00012365845134341394,1.452
-4.172322883215343e-06,1.453
-0.00025206149819134173,1.454
-0.0005507393972583807,1.455
-0.0008093761309133792,1.456
-0.0009443360468553455,1.457
-0.0009096831138874755,1.458
-0.0007114095986935941,1.459
-0.00040627776012355267,1.46
-8.519090178992603e-05,1.461
0.0001616068029656949,1.462
0.0002804750866964688,1.463
0.0002700470903496469,1.464
0.0001823494216863171,1.465
0.00011206258527713512,1.466
0.0001552397225894558,1.467
0.00035164853854825073,1.468
0.0006606713109787312,1.469
0.0009903193698006325,1.47
0.0012475072853878923,1.471
0.0013701928208716414,1.472
0.0013334739835399075,1.473
0.001141048622989451,1.474
0.0008159661369174955,1.475
0.0004032450877824686,1.476
-2.5558018388856093e-05,1.477
-0.0003874394863328433,1.478
-0.0006166449071700249,1.479
-0.0006843456359388427,1.48
-0.0006005128176458664,1.481
-0.0004034411633405394,1.482
-0.0001483682255820588,1.483
0.00010235645126588862,1.484
0.00029558520554037894,1.485
0.0004017034367825973,1.486
0.00041250439388563467,1.487
0.0003359998247857199,1.488
0.0002001100426369284,1.489
4.878797641517874e-05,1.49
-8.010686714373711e-05,1.491
-0.00017493402656431592,1.492
-0.00024233381610663682,1.493
-0.0002853089640327949,1.494
-0.00029714819634205493,1.495
-0.00026507508482566643,1.496
-0.0001742447123851496,1.497
-2.1497611556054896e-05,1.498
0.00016471705499464576,1.499
0.0003189181143383334,1.5
0.00035807535534488174,1.501
0.00020967956025189863,1.502
-0.00016353863983602533,1.503
-0.0007392905433582031,1.504
-0.0014276455006403837,1.505
-0.002089939393287558,1.506
-0.0025677344065137306,1.507
-0.002714779255880431,1.508
-0.0024363539473371905,1.509
-0.001724027747181759,1.51
-0.0006643209528461379,1.511
0.0005845900192919443,1.512
0.0018351404562330891,1.513
0.002915428436346599,1.514
0.003701574743375417,1.515
0.004126922976113768,1.516
0.004174963549653577,1.517
0.003875122066883346,1.518
0.0032976400130162852,1.519
0.0025240729960349525,1.52
0.001612772430294468,1.521
0.0006011779668550842,1.522
-0.0004682579288837799,1.523
-0.0015312619725370747,1.524
-0.0024901361282500347,1.525
-0.0032140305279341206,1.526
-0.003575411285081916,1.527
-0.0035050379447851216,1.528
-0.003026699982787244,1.529
-0.0022611405894921435,1.53
-0.001400219614375527,1.531
-0.000644681751016195,1.532
-0.00012926861569061889,1.533
0.00011210808320630231,1.534
0.00013381979910904554,1.535
4.868183038696207e-05,1.536
-1.0548696183880497e-05,1.537
6.017272738201444e-05,1.538
0.0002966632532161259,1.539
0.0006635855393580384,1.54
0.001080590138270612,1.541
0.001452938368968069,1.542
0.0017045443415098416,1.543
0.001802346740490246,1.544
0.0017583130799238517,1.545
0.001619502582379647,1.546
0.001452043073928506,1.547
0.0013172024845003421,1.548
0.0012403983788218905,1.549
0.0011899439942507964,1.55
0.0010912576928068793,1.551
0.0008684199865862589,1.552
0.0004846035099934345,1.553
-4.437672377806044e-05,1.554
-0.0006665840287710836,1.555
-0.0013059112137233822,1.556
-0.0018632258036341417,1.557
-0.002239966435400094,1.558
-0.0023762931912175976,1.559
-0.002256368371585368,1.56
-0.0018842237574247882,1.561
-0.0012881764244771566,1.562
-0.0005523622844665718,1.563
0.00018705604281226885,1.564
0.0007917185206817392,1.565
0.0011687366972882014,1.566
0.0012832758746380713,1.567
0.0011474612149697608,1.568
0.0008074577988272265,1.569
0.0003337289176246419,1.57
-0.0001875509270556295,1.571
-0.0006677433287782329,1.572
-0.0010329976471650714,1.573
-0.0012345220429969268,1.574
-0.0012514996205920366,1.575
-0.001090145554760474,1.576
-0.0007780837096004791,1.577
-0.00035945745751499506,1.578
0.00011079851311999878,1.579
0.000582291424965227,1.58
0.0010241236706447783,1.581
0.001421242250452151,1.582
0.001756706516418771,1.583
0.0019970832279563758,1.584
0.002087681444158494,1.585
0.001964537455928789,1.586
0.0015892647064159595,1.587
0.0009875280885787055,1.588
0.0002570427605807427,1.589
-0.0004699261354524064,1.59
-0.0010828238280351258,1.591
-0.0015199361331019567,1.592
-0.0017562814239755525,1.593
-0.0017835027051168381,1.594
-0.0016036194709543859,1.595
-0.0012319162924696746,1.596
-0.0006989808544278785,1.597
-5.3686339353935246e-05,1.598
0.0006279852601249295,1.599
0.0012407036251772805,1.6
0.0016727865787996648,1.601
0.0018452131706587652,1.602
0.00173712453757423,1.603
0.0013810578003570547,1.604
0.0008363332777288772,1.605
0.00016798913374186915,1.606
-0.0005530810346790162,1.607
-0.0012407076472978242,1.608
-0.0017887623160469349,1.609
-0.002081300866044859,1.61
-0.0020329887916363475,1.611
-0.0016441921373853445,1.612
-0.001014174186238824,1.613
-0.00029443979168944823,1.614
0.00037263747128419384,1.615
0.0008883739129635997,1.616
0.0011980999093106294,1.617
0.001276989753521398,1.618
0.0011261678622199749,1.619
0.0007792126735158261,1.62
0.0003037614866580756,1.621
-0.0002036221518107522,1.622
-0.0006265080225630892,1.623
-0.0008511506634742226,1.624
-0.0008028532519149874,1.625
-0.00047522734986094886,1.626
7.21142096343883e-05,1.627
0.0007462519107955518,1.628
0.001451929254078895,1.629
0.002098230262897881,1.63
0.00258972396160564,1.631
0.0028291675034466256,1.632
0.002742987523102494,1.633
0.0023089311208220223,1.634
0.0015649876104709692,1.635
0.0005946468780295567,1.636
-0.0004963215603981013,1.637
-0.0015926214194528262,1.638
-0.002575434063627061,1.639
-0.003328469915735247,1.64
-0.0037520707825571386,1.641
-0.0037903475143480168,1.642
-0.003449523644343267,1.643
-0.0027913804244746477,1.644
-0.0019110697538527487,1.645
-0.0009106288126949092,1.646
0.00011939281799299253,1.647
0.0010997552928412035,1.648
0.001951804111304992,1.649
0.002587862132170872,1.65
0.002908112353893948,1.651
0.0028250897160716393,1.652
0.002321847577206653,1.653
0.0014905131936671938,1.654
0.0005054661657123775,1.655
-0.0004400015693632473,1.656
-0.0011859378698110276,1.657
-0.0016322223627108757,1.658
-0.001741438652229733,1.659
-0.0015307779207754167,1.66
-0.0010669550203035816,1.661
-0.00045660547057419973,1.662
0.00017930083840887623,1.663
0.0007366626513078636,1.664
0.0011498216052273458,1.665
0.0013979642065682079,1.666
0.0014963377927158718,1.667
0.0014774303405083054,1.668
0.001368253158865037,1.669
0.0011760025157002347,1.67
0.0008983072322138569,1.671
0.0005473144629392749,1.672
0.0001594446229907403,1.673
-0.0002132240655982256,1.674
-0.0005197727207038189,1.675
-0.000727580006064267,1.676
-0.0008302518104868862,1.677
-0.0008439100552020859,1.678
-0.0007897577173492305,1.679
-0.0006640832833558077,1.68
-0.0004258655797811187,1.681
-3.705165979143098e-05,1.682
0.00046716337102702316,1.683
0.0009520653125586817,1.684
0.001237019819493169,1.685
0.0011879304560613326,1.686
0.0007834627091509183,1.687
0.0001171230260209098,1.688
-0.0006524737121837351,1.689
-0.0013596539732052301,1.69
-0.0018734280308525483,1.691
-0.0021175908036639834,1.692
-0.0020720839442023705,1.693
-0.0017708488422315432,1.694
-0.0012936631200482244,1.695
-0.000739382879762427,1.696
-0.00019096205352996185,1.697
0.0003127600237480703,1.698
0.0007816436913719516,1.699
0.001236770393241997,1.7
0.001656595886253036,1.701
0.0019591088214092047,1.702
0.0020297364989657024,1.703
0.001774349009496256,1.704
0.001176186478291593,1.705
0.0003279490887951224,1.706
-0.0005806666060109858,1.707
-0.0013186359441607679,1.708
-0.0016904645579628752,1.709
-0.001597612923127094,1.71
-0.0010582843114577112,1.711
-0.000184208832834976,1.712
0.0008592173662424856,1.713
0.0018787454162633682,1.714
0.002671364740895524,1.715
0.003064760772567227,1.716
0.0029694650982761217,1.717
0.002395679015408472,1.718
0.0014333309452175826,1.719
0.00022817319361961277,1.72
-0.00104222124450776,1.721
-0.0021955918961527837,1.722
-0.003069043108466697,1.723
-0.0035392217814889703,1.724
-0.0035350498493549,1.725
-0.0030440119476271847,1.726
-0.002127229979470437,1.727
-0.0009438625297634174,1.728
0.00025593865000863534,1.729
0.0012075305547999855,1.73
0.0017385629763117779,1.731
0.0018210141598209416,1.732
0.0015448590244523286,1.733
0.0010624205925768122,1.734
0.000544250960500109,1.735
0.00014033591235267283,1.736
-6.422997615053902e-05,1.737
-7.664546149257229e-05,1.738
1.9024010675339078e-05,1.739
0.00011445960743973328,1.74
0.00013732562060827142,1.741
8.903717043416584e-05,1.742
4.078334040442387e-05,1.743
8.393183047036783e-05,1.744
0.00026200263980662245,1.745
0.00053778063198041,1.746
0.0008269256062746823,1.747
0.0010637705033459542,1.748
0.0012279368001635713,1.749
0.0013148766161129436,1.75
0.0013079988995690441,1.751
0.0011833618420416805,1.752
0.0009198123143978495,1.753
0.0005073262860673317,1.754
-3.626798786976103e-05,1.755
-0.0006570884984391586,1.756
-0.001275857977591089,1.757
-0.0018026845935415025,1.758
-0.002151354961398523,1.759
-0.00225837858064825,1.76
-0.002104680211487477,1.761
-0.001729656568750131,1.762
-0.0012148590406086536,1.763
-0.0006394847212413129,1.764
-5.4134917300064493e-05,1.765
0.0005068888397288227,1.766
0.0010035568550812643,1.767
0.001383760574928174,1.768
0.0015975018738161575,1.769
0.0016171830479134682,1.77
0.0014434529621214437,1.771
0.0011005328908045232,1.772
0.0006358803183527142,1.773
0.00012085799435703317,1.774
-0.00036187617069914955,1.775
-0.0007428141495579256,1.776
-0.0009811117678779854,1.777
-0.0010652112130591553,1.778
-0.001007987681011371,1.779
-0.0008366682322073099,1.78
-0.0005835734090770213,1.781
-0.00028239570263079074,1.782
3.640079625803446e-05,1.783
0.00034077024041655445,1.784
0.0005811523786872083,1.785
0.0006923510632422607,1.786
0.0006227696020968429,1.787
0.00036247988757492233,1.788
-5.359591202036068e-05,1.789
-0.0005567983200965254,1.79
-0.0010498522342464603,1.791
-0.0014118734203556007,1.792
-0.001522766923687094,1.793
-0.001302080218550058,1.794
-0.0007398555215860712,1.795
9.402842389932305e-05,1.796
0.0010680009810929605,1.797
0.002027697258614978,1.798
0.0028367857203170288,1.799
0.0033979793715561606,1.8
0.003646986868828361,1.801
0.003547743199064819,1.802
0.003109099410312298,1.803
0.0023975992967183272,1.804
0.0015194132843452416,1.805
0.0005819054080234343,1.806
-0.00033598871931771375,1.807
-0.0011832248226110967,1.808
-0.0019104648272039507,1.809
-0.0024588162654788762,1.81
-0.0027827851331005972,1.811
-0.0028724934214879308,1.812
-0.0027486676978125337,1.813
-0.0024413718417120728,1.814
-0.0019799924097200342,1.815
-0.0014089013705891166,1.816
-0.0008037234628691123,1.817
-0.0002545818119982602,1.818
0.00017193457609476765,1.819
0.000456154719388817,1.82
0.0006254680478364589,1.821
0.0007303611128935571,1.822
0.000799252347236174,1.823
0.0008116764378844148,1.824
0.0007206559055006425,1.825
0.0005009346595887606,1.826
0.00018155971042092757,1.827
-0.00015887483496503752,1.828
-0.00043229642874067803,1.829
-0.0005881324932725573,1.83
-0.0006288544523269364,1.831
-0.0005874704040997834,1.832
-0.0004923255767728088,1.833
-0.00034620407911947147,1.834
-0.00013505686197589858,1.835
0.00014445267838549648,1.836
0.00046860095756010874,1.837
0.0007877927148049672,1.838
0.0010346207262909685,1.839
0.0011467122302052171,1.84
0.0011005354545358694,1.841
0.0009258027988230228,1.842
0.0006931518972908414,1.843
0.0004918375009502265,1.844
0.0004017964415513098,1.845
0.0004644200223849076,1.846
0.0006670712728083538,1.847
0.0009455081080632687,1.848
0.0011945186991259673,1.849
0.0012911875221850188,1.85
0.0011458123437686262,1.851
0.0007524322500540288,1.852
0.00018996691700267135,1.853
-0.00042216600233447313,1.854
-0.00097715100963813,1.855
-0.0014134686912851489,1.856
-0.0017130637177367215,1.857
-0.0018784865524224083,1.858
-0.0019115049653086575,1.859
-0.0018067160076555265,1.86
-0.0015673075535873836,1.861
-0.0012200773214764739,1.862
-0.0007996165886649739,1.863
-0.00032730638408723947,1.864
0.00017761219999551408,1.865
0.0006727688206227924,1.866
0.001087916249056455,1.867
0.001349815952813097,1.868
0.001419844880184202,1.869
0.0013133676920347762,1.87
0.0010884475469232844,1.871
0.0008192091812415655,1.872
0.0005675899674756084,1.873
0.00036322806561732494,1.874
0.00020686445173942068,1.875
9.222843397003067e-05,1.876
2.048970194983151e-05,1.877
-2.57760229839219e-07,1.878
4.1668091382334555e-05,1.879
0.00015987030660680825,1.88
0.00036555596921932366,1.881
0.0006588271304385308,1.882
0.0010134969256250525,1.883
0.0013559849431660138,1.884
0.0015610572592349753,1.885
0.001488994127919012,1.886
0.001049836223547872,1.887
0.0002583143113341742,1.888
-0.0007514995109012449,1.889
-0.0017643876411507996,1.89
-0.002559178499447069,1.891
-0.0029857195720437344,1.892
-0.003004282905256493,1.893
-0.0026754869296872004,1.894
-0.002118811580857798,1.895
-0.0014595898452067313,1.896
-0.0007881449145122454,1.897
-0.00015012418593822468,1.898
0.00043460060728653686,1.899
0.0009416788315216472,1.9
0.0013255883760888145,1.901
0.0015344292134578514,1.902
0.0015416767725270446,1.903
0.0013618360767964817,1.904
0.00104072076597085,1.905
0.0006396216663742815,1.906
0.00022928778650982317,1.907
-0.00011769232805067175,1.908
-0.0003466116838426056,1.909
-0.0004322519384333974,1.91
-0.0003719472260686,1.911
-0.00017685038478142373,1.912
0.00012966765035187213,1.913
0.0005089809030741687,1.914
0.0009023830911778267,1.915
0.001227794961881582,1.916
0.0013896359920454221,1.917
0.001313817029655154,1.918
0.0009889904299629404,1.919
0.00047852063270879326,1.92
-0.00010734010560500473,1.921
-0.0006584345839389291,1.922
-0.0010939541937928685,1.923
-0.0013565951916170817,1.924
-0.001400578318129967,1.925
-0.0012070963539245834,1.926
-0.0008101741377884953,1.927
-0.00029218853518564957,1.928
0.00025146568243797975,1.929
0.000744386963361576,1.93
0.0011351721737434236,1.931
0.0013859825743397745,1.932
0.0014636025408998933,1.933
0.0013343991812855883,1.934
0.0009722113915880015,1.935
0.0003956907679645023,1.936
-0.00029676402530686596,1.937
-0.0009453920395786826,1.938
-0.0013958715577018282,1.939
-0.0015556474366301741,1.94
-0.0014024503690745903,1.941
-0.0009670304928065353,1.942
-0.00031918615019172305,1.943
0.00044033235647467306,1.944
0.0011931092405268848,1.945
0.0018256945843679062,1.946
0.0022485262644091827,1.947
0.002402857439230353,1.948
0.002259747845650885,1.949
0.001815443842241269,1.95
0.0010915408834374766,1.951
0.00014321166759875042,1.952
-0.000935802066507497,1.953
-0.0020135425311173885,1.954
-0.0029269333542162107,1.955
-0.0035153954387961007,1.956
-0.0036676624307046468,1.957
-0.0033407872911627337,1.958
-0.0025583495331559514,1.959
-0.0014143969808179879,1.96
-7.491848083013338e-05,1.961
0.001241970902940572,1.962
0.002311100121726175,1.963
0.0029560381985256593,1.964
0.0030943510573633697,1.965
0.002754658011407579,1.966
0.0020576102333932323,1.967
0.0011717291622005198,1.968
0.00026084892476209404,1.969
-0.0005587058008336452,1.97
-0.0012315168820547018,1.971
-0.0017457054549018319,1.972
-0.002103912289106431,1.973
-0.002302679829200499,1.974
-0.002325932665551076,1.975
-0.002151061068869658,1.976
-0.0017685505067025372,1.977
-0.0012011535037624054,1.978
-0.0005008228502192776,1.979
0.0002734228603247366,1.98
0.0010750841191787233,1.981
0.0018697042459117639,1.982
0.0026124463876489212,1.983
0.0032248472609816225,1.984
0.003602552068071876,1.985
0.003660320176457543,1.986
0.0033797494522674605,1.987
0.0028210039099901122,1.988
0.002088176627339215,1.989
0.0012751150689628424,1.99
0.0004463921209906273,1.991
-0.0003316373735863602,1.992
-0.0009654910286850336,1.993
-0.0013596435754805686,1.994
-0.0014717650813342255,1.995
-0.001350765645624455,1.996
-0.0011285694825195077,1.997
-0.0009663126086447374,1.998
-0.0009842291781626453,1.999
-0.0012209837795954573,2.0
-0.00163655654157212,2.001
-0.002131548179625518,2.002
-0.002570396376367928,2.003
-0.002815381091081145,2.004
-0.0027664285057283806,2.005
-0.002391906692395175,2.006
-0.0017374159166682421,2.007
-0.0009085622815360399,2.008
-3.25978096122024e-05,2.009
0.0007831489750570143,2.01
0.001469250804591086,2.011
0.001985720882800042,2.012
0.0023084556079315133,2.013
0.0024226102725887766,2.014
0.002330159578556226,2.015
0.002066408899662732,2.016
0.0016956209229156765,2.017
0.0012848601619689652,2.018
0.0008846302027152495,2.019
0.0005200428064034418,2.02
0.0001902327000807848,2.021
-0.00011434797710470126,2.022
-0.00038727378963483765,2.023
-0.0006022898981671205,2.024
-0.0007310513582262871,2.025
-0.000752929883197411,2.026
-0.0006509302292553971,2.027
-0.0004129948875682283,2.028
-4.051696790162865e-05,2.029
0.0004429892782477244,2.03
0.000984951282968044,2.031
0.0015002754699565137,2.032
0.001873679183787862,2.033
0.0019812719555234314,2.034
0.0017395972216407312,2.035
0.0011530776929211451,2.036
0.0003173272957248854,2.037
-0.00062331327484893,2.038
-0.0015254931637445647,2.039
-0.002278381906093261,2.04
-0.002815855918208746,2.041
-0.0031053756215531562,2.042
-0.003125203200465606,2.043
-0.0028607461704099097,2.044
-0.0023218175343593193,2.045
-0.0015583235135642204,2.046
-0.0006636820525752837,2.047
0.0002387400708356811,2.048
0.0010240053329731054,2.049
0.001594347381515279,2.05
0.001901800881590778,2.051
0.0019598572327775175,2.052
0.0018279624065047847,2.053
0.0015746772872427804,2.054
0.0012555742041093143,2.055
0.0009155976983749232,2.056
0.00059601293157958,2.057
0.00034090664236190394,2.058
0.00019337210073918984,2.059
0.000174168728125396,2.06
0.0002693655928685061,2.061
0.0004431727614586145,2.062
0.0006578194645995984,2.063
0.0008775674959437491,2.064
0.0010602430377415306,2.065
0.0011579721500014877,2.066
0.0011254986171320527,2.067
0.0009273457748333527,2.068
0.0005517868948214449,2.069
2.0040550872852364e-05,2.07
-0.0006256239059310349,2.071
-0.0013314532807429465,2.072
-0.002019012701426872,2.073
-0.002576994369178761,2.074
-0.0028849124291851587,2.075
-0.0028497588316560014,2.076
-0.002436248429706723,2.077
-0.0016892834641669414,2.078
-0.0007288174383778251,2.079
0.0002892217229869809,2.08
0.0012116570708821648,2.081
0.0019137005667606197,2.082
0.0023259264746719635,2.083
0.0024428471095229373,2.084
0.002303842271298789,2.085
0.0019788759014073266,2.086
0.001556291840208657,2.087
0.0011105623390587065,2.088
0.0006712699836516634,2.089
0.00022874639024593658,2.09
-0.0002271516739575459,2.091
-0.0006724606122601915,2.092
-0.0010462810242210748,2.093
-0.0012834914777460618,2.094
-0.0013551163070564724,2.095
-0.00127628871851771,2.096
-0.0010824166214878385,2.097
-0.0008006650990762876,2.098
-0.00044056991660383654,2.099
-1.7720796386190995e-05,2.1
0.00041272167322204523,2.101
0.0007532045422777401,2.102
0.0008991017685848666,2.103
0.0007875125364326824,2.104
0.00042912876216119795,2.105
-8.829631804579589e-05,2.106
-0.0006185450149333037,2.107
-0.0009973258616400179,2.108
-0.001100421163301917,2.109
-0.0008887081545816565,2.11
-0.000410067515607487,2.111
0.00023086473949506303,2.112
0.0009068112156602922,2.113
0.0014927006070792285,2.114
0.0018815424887418885,2.115
0.0019998873791385414,2.116
0.0018214242578125021,2.117
0.0013719844737721215,2.118
0.0007260939069691478,2.119
-9.230194691751793e-06,2.12
-0.000719700867844841,2.121
-0.0013040807788396679,2.122
-0.001686545226110246,2.123
-0.0018275539942179762,2.124
-0.001729309783140961,2.125
-0.0014247623811711203,2.126
-0.0009601955403852107,2.127
-0.0003917396073193759,2.128
0.0002074755069530415,2.129
0.0007520106956531464,2.13
0.0011673831202500529,2.131
0.0014073872302537143,2.132
0.001448051550765344,2.133
0.0012745315615780464,2.134
0.0008852823356207177,2.135
0.00031872586762700394,2.136
-0.0003283139399978982,2.137
-0.0009228959138900987,2.138
-0.0013427734342388057,2.139
-0.001517004715451305,2.14
-0.0014430464922913677,2.141
-0.001172803485587017,2.142
-0.0007847812080346997,2.143
-0.0003542470792288688,2.144
7.842290023617601e-05,2.145
0.000513712031915434,2.146
0.0009568356467089154,2.147
0.0013801907649565765,2.148
0.0017251515015720153,2.149
0.0019291467409104477,2.15
0.0019454591094330564,2.151
0.00174420127354091,2.152
0.0013096495736063109,2.153
0.0006627155755559044,2.154
-0.00010770267135973757,2.155
-0.0008613690471746705,2.156
-0.001460532124878301,2.157
-0.0017956032499085047,2.158
-0.00179531619346922,2.159
-0.0014646039236340242,2.16
-0.0009033878689704086,2.161
-0.00025888892057422376,2.162
0.0003428980548672306,2.163
0.0008228913039948389,2.164
0.0011284314168897587,2.165
0.0012130241015340416,2.166
0.0010475132484877637,2.167
0.0006489398672785752,2.168
9.603828311771165e-05,2.169
-0.0004892984669757903,2.17
-0.0009862079194692286,2.171
-0.0013108849140282472,2.172
-0.0014227219889721074,2.173
-0.0013131348782267139,2.174
-0.0009976014959898933,2.175
-0.0005120373055361901,2.176
9.383921085247962e-05,2.177
0.0007590595719049116,2.178
0.0014025471901091822,2.179
0.0019215611305005234,2.18
0.0022137558911565066,2.181
0.0022100721164738106,2.182
0.001896746868713253,2.183
0.001312472428863066,2.184
0.0005294939287084241,2.185
-0.0003532707830846327,2.186
-0.0012051221917149563,2.187
-0.0018802018934469971,2.188
-0.002262609722932207,2.189
-0.002304041967432688,2.19
-0.0020295848561149134,2.191
-0.0015235357658837957,2.192
-0.0009047629129850504,2.193
-0.0002865928980578656,2.194
0.00026426740978894426,2.195
0.0007405104839055976,2.196
0.001168293207626217,2.197
0.0015633504873082543,2.198
0.001907851658558552,2.199
0.002157222187721807,2.2
0.0022509748362409343,2.201
0.0021269439776317916,2.202
0.0017524351810776393,2.203
0.001148290098844156,2.204
0.00038122103339255625,2.205
-0.00045762127925813296,2.206
-0.0012601472869757753,2.207
-0.0019051052537013063,2.208
-0.002286522998034346,2.209
-0.0023572396056525747,2.21
-0.0021472951892946156,2.211
-0.0017367674706216952,2.212
-0.0012093920030646292,2.213
-0.0006299493174651338,2.214
-5.296018363898969e-05,2.215
0.0004608073019305674,2.216
0.0008414044184711799,2.217
0.0010285692104618335,2.218
0.0010034806294720554,2.219
0.0008031043393501657,2.22
0.000500709824912645,2.221
0.00017497078905080954,2.222
-0.000114252556975614,2.223
-0.0003353692212543405,2.224
-0.00046961245151344957,2.225
-0.0004963753229540001,2.226
-0.00040744499781881523,2.227
-0.00022083943294063762,2.228
3.2172726693496166e-05,2.229
0.00032045169738601517,2.23
0.000608251863612443,2.231
0.0008521799564000094,2.232
0.001011688761794412,2.233
0.0010611650769997412,2.234
0.0009970072358840905,2.235
0.0008413898312702077,2.236
0.0006400247156867529,2.237
0.0004474011912875525,2.238
0.0003032392102626896,2.239
0.0002224429991615136,2.24
0.0002020330876552162,2.241
0.0002253319933776772,2.242
0.0002685940029930416,2.243
0.00031639118677106103,2.244
0.0003634196998943978,2.245
0.00039936825991125576,2.246
0.00039886985106484126,2.247
0.0003258931988852278,2.248
0.00014513132972459222,2.249
-0.00016989520551228317,2.25
-0.0006243164430459817,2.251
-0.0011793437628861887,2.252
-0.0017463071297339173,2.253
-0.0022108008177358675,2.254
-0.0024669331195186326,2.255
-0.0024418430877441106,2.256
-0.002100353151415844,2.257
-0.0014442943745789534,2.258
-0.0005293228031020514,2.259
0.0005208899235896147,2.26
0.0015399956658302368,2.261
0.002374248852937167,2.262
0.002922410200253014,2.263
0.003138983818830208,2.264
0.003018878228193876,2.265
0.0025876778165718766,2.266
0.0019026079366405836,2.267
0.0010488074561167309,2.268
0.00012058250285334755,2.269
-0.0008003253334140642,2.27
-0.0016509799810626655,2.271
-0.0023750035695429142,2.272
-0.002910373998781555,2.273
-0.0031914202286712325,2.274
-0.0031601687255413224,2.275
-0.0027820428472367527,2.276
-0.002063569581039908,2.277
-0.0010638700065474596,2.278
0.00010587577660551577,2.279
0.0012914396361512876,2.28
0.002315435999238298,2.281
0.0030129719988468435,2.282
0.0032712733783141754,2.283
0.0030638398209896396,2.284
0.0024708360809578256,2.285
0.0016571879134064944,2.286
0.0007998178664405635,2.287
1.6337001042426595e-05,2.288
-0.0006433143152760246,2.289
-0.0011541271712765834,2.29
-0.001486625369006898,2.291
-0.0016157113376218154,2.292
-0.0015326519143664368,2.293
-0.001232027762398628,2.294
-0.0007013013351067764,2.295
4.965020268805154e-05,2.296
0.0009407163158424479,2.297
0.0018133938305466694,2.298
0.002476383178027927,2.299
0.002763325677859012,2.3
0.0025768516257810028,2.301
0.001927179429141709,2.302
0.0009486264412050499,2.303
-0.000141246371942608,2.304
-0.0011248736178492487,2.305
-0.0018501867689389283,2.306
-0.002244468396476173,2.307
-0.002301061546456239,2.308
-0.0020786964100480347,2.309
-0.001698283040344127,2.31
-0.0012971949342600107,2.311
-0.0009660767334530635,2.312
-0.0007227282637024815,2.313
-0.0005321916236873079,2.314
-0.000349614198370066,2.315
-0.00015531985843264797,2.316
3.652599304447158e-05,2.317
0.0001893112552203039,2.318
0.0002638305722585839,2.319
0.00023773544755040178,2.32
0.00011707999166329355,2.321
-6.0469305641340335e-05,2.322
-0.0002332416041999297,2.323
-0.0003337609713834149,2.324
-0.0003072133399747548,2.325
-0.00012541970614933428,2.326
0.00020089223057274348,2.327
0.0006191235327316789,2.328
0.0010556525766393227,2.329
0.001444310329912351,2.33
0.001730862317481941,2.331
0.0018660128081825708,2.332
0.0018126226224464987,2.333
0.0015583589553821227,2.334
0.0011248918052046961,2.335
0.0005754920244773988,2.336
4.786348828186644e-06,2.337
-0.0004973460973724026,2.338
-0.0008770316586448483,2.339
-0.0011164791835578355,2.34
-0.0012112910501011725,2.341
-0.0011519593464842522,2.342
-0.0009304674825625515,2.343
-0.0005568828160084396,2.344
-6.06319006416691e-05,2.345
0.000514846977228672,2.346
0.0011048081545128462,2.347
0.0016113541431327743,2.348
0.0019156030257914294,2.349
0.0019182062776395578,2.35
0.001580296409041872,2.351
0.0009439060208442705,2.352
0.00012302179558126912,2.353
-0.0007383374242794047,2.354
-0.0015165512949801682,2.355
-0.0021294376196794775,2.356
-0.002527638476161626,2.357
-0.002680278313588324,2.358
-0.0025674999625177005,2.359
-0.0021878356942422158,2.36
-0.0015736286018285194,2.361
-0.0007915725537963147,2.362
7.314115975929554e-05,2.363
0.0009297711985417509,2.364
0.0016882084691436303,2.365
0.0022638721505928642,2.366
0.0025831745453580753,2.367
0.002600429005858922,2.368
0.002321563180957686,2.369
0.0018095775338703018,2.37
0.001167937756575467,2.371
0.0005118934665636671,2.372
-6.0912783294802144e-05,2.373
-0.0004831786033410054,2.374
-0.0007157074607783638,2.375
-0.0007484190500562594,2.376
-0.0006110900309142816,2.377
-0.00038009790841080375,2.378
-0.000159648153227857,2.379
-3.964426740457916e-05,2.38
-6.481403731674082e-05,2.381
-0.0002375287452239067,2.382
-0.0005311193260078313,2.383
-0.000890303993986618,2.384
-0.0012300095965248144,2.385
-0.0014464470255260609,2.386
-0.0014445716883351872,2.387
-0.001178382347492055,2.388
-0.0006831588673103351,2.389
-7.404072924285966e-05,2.39
0.0004965357773326057,2.391
0.0009018400940846211,2.392
0.0010853698816443878,2.393
0.001065076899972882,2.394
0.0009065019537642646,2.395
0.0006823274980060426,2.396
0.00044165861062550653,2.397
0.00020529914063298926,2.398
-2.260698383998481e-05,2.399
-0.00024294075838977473,2.4
-0.00045871351710775475,2.401
-0.0006696968831100033,2.402
-0.0008562198608327044,2.403
-0.0009794466453764642,2.404
-0.0010015965832877532,2.405
-0.0008946980010655539,2.406
-0.0006408543827608319,2.407
-0.00023625231519309797,2.408
0.00030275727566537634,2.409
0.0009268922691332344,2.41
0.0015523186743864954,2.411
0.002082745420706955,2.412
0.002428980770591238,2.413
0.0025185120266350905,2.414
0.002311243222009745,2.415
0.001819487247380333,2.416
0.0011210529025724649,2.417
0.00034782128611704033,2.418
-0.00035683451115057775,2.419
-0.0008828170182451725,2.42
-0.0011810619922063162,2.421
-0.001271504605902675,2.422
-0.001217028365110188,2.423
-0.0010766924828066948,2.424
-0.0008832599840730931,2.425
-0.0006611386251424706,2.426
-0.0004493280536255139,2.427
-0.0002965583473154271,2.428
-0.0002331944183532359,2.429
-0.0002425820177392529,2.43
-0.00026907830233355106,2.431
-0.0002687936670766387,2.432
-0.00024782601649033615,2.433
-0.0002474412031644481,2.434
-0.0002934793516520469,2.435
-0.00035991917524755534,2.436
-0.00038602509617632983,2.437
-0.0003288503536799157,2.438
-0.0001943196354354772,2.439
-2.161648443420259e-05,2.44
0.00014886041099307018,2.441
0.00028544182664769533,2.442
0.0003601575803777637,2.443
0.00036000210740605145,2.444
0.00031266939295003054,2.445
0.00029362604106339483,2.446
0.00039379700721205743,2.447
0.0006660224380439042,2.448
0.001091985463781717,2.449
0.0015886226440901257,2.45
0.0020348197554262634,2.451
0.0023045354540557274,2.452
0.0023070288354853944,2.453
0.002010909371036813,2.454
0.0014378714053092823,2.455
0.0006512697906940316,2.456
-0.00025054504685664223,2.457
-0.0011491866053661521,2.458
-0.0019257591925952867,2.459
-0.0024741154306272416,2.46
-0.002716890880453349,2.461
-0.0026305136135775123,2.462
-0.002257229621599433,2.463
-0.0016932037730649967,2.464
-0.0010665111428424282,2.465
-0.0005107524935603902,2.466
-0.0001311155549633581,2.467
3.110416616956235e-05,2.468
1.1225514773408289e-05,2.469
-9.946315136344187e-05,2.47
-0.00018729440356362177,2.471
-0.00015650052732263863,2.472
2.6943535282958166e-05,2.473
0.0003242433053126443,2.474
0.0006627623063515321,2.475
0.000982378396432292,2.476
0.001245013083656734,2.477
0.0014215199141144907,2.478
0.0014882085089132791,2.479
0.001432122861095614,2.48
0.0012557413135454306,2.481
0.0009782821658393698,2.482
0.0006271555080631546,2.483
0.00022329621355646748,2.484
-0.0002175407563869715,2.485
-0.0006595025360471419,2.486
-0.0010303933433646268,2.487
-0.0012425945888093015,2.488
-0.0012340985758688937,2.489
-0.0010016414513673928,2.49
-0.0006109391247844113,2.491
-0.0001741766767387779,2.492
0.00019569912144327912,2.493
0.00042162962762181256,2.494
0.0004727624482976643,2.495
0.000362946520387352,2.496
0.00015297544237631724,2.497
-6.0049501942361035e-05,2.498
-0.00018973067593611783,2.499
-0.00021147108294232762,2.5
-0.00016044828889245729,2.501
-8.955568854472588e-05,2.502
-4.295989819777492e-05,2.503
-4.991380346419722e-05,2.504
-0.00011125405020535778,2.505
-0.00017892119542883866,2.506
-0.00015930230307956134,2.507
3.870610027035954e-05,2.508
0.00044384188272306125,2.509
0.0010003721353147124,2.51
0.0015882649676475856,2.511
0.0020679351605564977,2.512
0.002335864070100327,2.513
0.00236416703742033,2.514
0.0021944398694170595,2.515
0.0018892921075250731,2.516
0.0014849464988349105,2.517
0.0009872007667128652,2.518
0.00039694611833877597,2.519
-0.00027678664839583697,2.52
-0.001014918215798764,2.521
-0.0017793199550389376,2.522
-0.0025031754315120265,2.523
-0.003092830224572642,2.524
-0.0034507011577730416,2.525
-0.003513066270737609,2.526
-0.0032764684287421783,2.527
-0.0027947921437192743,2.528
-0.0021518227676897966,2.529
-0.0014298558983573322,2.53
-0.0006937970442323148,2.531
4.247287310561154e-06,2.532
0.0006145689509111154,2.533
0.0010924606067932148,2.534
0.0014103773328949692,2.535
0.0015640968354032195,2.536
0.0015685825156890598,2.537
0.0014539174318014647,2.538
0.0012727465408769844,2.539
0.001105580920587135,2.54
0.0010385564067783668,2.541
0.0011214151908160988,2.542
0.0013375153419263233,2.543
0.001608167026401867,2.544
0.0018323314604432206,2.545
0.001934130740948622,2.546
0.0018844591336662014,2.547
0.0016875977940508404,2.548
0.0013517044228844573,2.549
0.0008782505143793797,2.55
0.00028462648273660244,2.551
-0.00037125235697712405,2.552
-0.0010028034400800076,2.553
-0.001535497609191843,2.554
-0.0019315589978170708,2.555
-0.0021807518414486975,2.556
-0.002281637774946492,2.557
-0.002228610203908587,2.558
-0.0020060808410656155,2.559
-0.0016034018217119068,2.56
-0.0010419402542623081,2.561
-0.0003771863129070398,2.562
0.00032001594791424514,2.563
0.0009672093162182979,2.564
0.0014665475079742914,2.565
0.0017220312989439943,2.566
0.0016703722176275148,2.567
0.0013050223064288728,2.568
0.0006884515084198445,2.569
-5.1997995192371075e-05,2.57
-0.0007507703841205937,2.571
-0.0012532218869281994,2.572
-0.0014661350077279699,2.573
-0.0013709695366971794,2.574
-0.0010036543162454514,2.575
-0.0004372327941805837,2.576
0.00022653295435790948,2.577
0.0008714367808219304,2.578
0.0013920696959776387,2.579
0.0017162104612634076,2.58
0.001813420583911175,2.581
0.0016923960660130241,2.582
0.001385642447968425,2.583
0.0009304127603576251,2.584
0.0003667871574483661,2.585
-0.0002482687115504792,2.586
-0.000836614269741264,2.587
-0.0013132838960282966,2.588
-0.0016026491687092153,2.589
-0.0016507312710092566,2.59
-0.0014346389188615704,2.591
-0.0009696979982885067,2.592
-0.0003233730015539566,2.593
0.00037803384238005265,2.594
0.0009752744375328789,2.595
0.0013260486983181724,2.596
0.001355004784863123,2.597
0.0010858368026567965,2.598
0.000633333401409713,2.599
0.0001454156325535291,2.6
-0.0002696496195153968,2.601
-0.0005718155274382397,2.602
-0.0007616217799085003,2.603
-0.0008427097735716155,2.604
-0.000814667754140598,2.605
-0.000690169155080485,2.606
-0.0005051710217139062,2.607
-0.0003032352889197196,2.608
-0.00010932846727373309,2.609
7.534150055411729e-05,2.61
0.000259152544202359,2.611
0.0004497096905472988,2.612
0.0006494468592838869,2.613
0.0008498449830647744,2.614
0.00102217845817851,2.615
0.0011087490725897047,2.616
0.0010325287300070323,2.617
0.0007462835669408298,2.618
0.00029202778226236024,2.619
-0.0001985155612107992,2.62
-0.0005666779665792719,2.621
-0.0006949967148040487,2.622
-0.0005497695790489964,2.623
-0.00019105841165974045,2.624
0.00025267171858701183,2.625
0.000632044774480512,2.626
0.0008324135805928088,2.627
0.0008172965607987844,2.628
0.0006316694243397838,2.629
0.00036635606354432966,2.63
0.00011164060928889102,2.631
-7.47219585475324e-05,2.632
-0.00018112415962110955,2.633
-0.0002394735663033667,2.634
-0.00030228079161240246,2.635
-0.0004183640485111829,2.636
-0.0006203673382582961,2.637
-0.0009025399982882886,2.638
-0.0011984080950578576,2.639
-0.0014007079083338083,2.64
-0.0014183121749853742,2.641
-0.0012205244271036445,2.642
-0.0008408772136581966,2.643
-0.00035281504410985637,2.644
0.00016251754961011365,2.645
0.0006418084321505564,2.646
0.0010410813592700607,2.647
0.0013210678893537673,2.648
0.0014496357136633256,2.649
0.0014221105484764581,2.65
0.0012725774843339562,2.651
0.0010637072771921732,2.652
0.0008539078801199796,2.653
0.0006608622027419081,2.654
0.0004591591708092158,2.655
0.0002157360869773053,2.656
-7.385853389886376e-05,2.657
-0.0003778649235046752,2.658
-0.0006439084448774042,2.659
-0.0008199952256761198,2.66
-0.0008778296564447,2.661
-0.0008287064182809339,2.662
-0.0007172166906652427,2.663
-0.0005998393117937739,2.664
-0.0005238750588297427,2.665
-0.0005110958138750031,2.666
-0.0005456887599452629,2.667
-0.000574454937505086,2.668
-0.0005237742424718914,2.669
-0.00033128566590298825,2.67
1.383670668299162e-05,2.671
0.00044963873359566347,2.672
0.000865412916750383,2.673
0.0011574172113086182,2.674
0.0012729014265392637,2.675
0.0012198461450388797,2.676
0.0010557673848823777,2.677
0.0008628256877850236,2.678
0.000713155736189385,2.679
0.0006424196091522282,2.68
0.0006405700386476309,2.681
0.000662045330724626,2.682
0.0006525196320609565,2.683
0.0005739527105844448,2.684
0.00041475813144804,2.685
0.00018829564610522032,2.686
-7.506417514193032e-05,2.687
-0.0003479499878489028,2.688
-0.0006321699122876628,2.689
-0.0009513786886375448,2.69
-0.001299156659660769,2.691
-0.0016010396120751899,2.692
-0.0017393498322011555,2.693
-0.0016251249065804506,2.694
-0.0012694282173786103,2.695
-0.0008064255143609464,2.696
-0.00044956300316846,2.697
-0.00040218022660039955,2.698
-0.0007670634896204815,2.699
-0.0015045387425008541,2.7
-0.002442866663814298,2.701
-0.003305506169176003,2.702
-0.003753540243375697,2.703
-0.0034636562328120945,2.704
-0.0022391989117850576,2.705
-0.00011395800456379606,2.706
0.002615067585622944,2.707
0.0054540428031494325,2.708
0.007856525713306967,2.709
0.0093895385865396,2.71
0.00983661347080078,2.711
0.009204330235337664,2.712
0.007677457106522131,2.713
0.005555194383702797,2.714
0.00317164327115155,2.715
0.0008211161440625413,2.716
-0.0012816693552472975,2.717
-0.0030057706499793378,2.718
-0.004299416499935369,2.719
-0.005184180704501688,2.72
-0.005732617779807019,2.721
-0.006027431113477405,2.722
-0.006118724476845507,2.723
-0.006009811736860456,2.724
-0.005687368583559744,2.725
-0.005164466914147218,2.726
-0.004500152549804299,2.727
-0.0037816363591962384,2.728
-0.0030724830510579573,2.729
-0.0023630840270831527,2.73
-0.0015613792031768513,2.731
-0.0005378336617340576,2.732
0.0007839062662164323,2.733
0.002339164877927975,2.734
0.003901247694923624,2.735
0.005153775791111353,2.736
0.005814752488557807,2.737
0.005733299154213607,2.738
0.004922154283586893,2.739
0.0035432616379502025,2.74
0.0018672742880274757,2.741
0.00021272514079580357,2.742
-0.001126645150760051,2.743
-0.001942132102941099,2.744
-0.0021372418148698073,2.745
-0.0017296513174989536,2.746
-0.0008440653574796476,2.747
0.00030827579322271765,2.748
0.0014708250450080227,2.749
0.0023979843913290106,2.75
0.0029032186480227465,2.751
0.002877058327535946,2.752
0.00229797751567619,2.753
0.0012546850001086446,2.754
-5.695627117483601e-05,2.755
-0.0013760323052234905,2.756
-0.0024260063344937913,2.757
-0.0029659199520441614,2.758
-0.0028547977151703293,2.759
-0.0021068434442822266,2.76
-0.0008980101275269215,2.761
0.0004867583248048343,2.762
0.0017360865991024577,2.763
0.0025797542510225266,2.764
0.002826163794613555,2.765
0.0023946705527446584,2.766
0.001350379311573358,2.767
-9.064680026995068e-05,2.768
-0.0016101619275363465,2.769
-0.002881786578884184,2.77
-0.00367051384678866,2.771
-0.003887177082821037,2.772
-0.003580196976153404,2.773
-0.002888841744006042,2.774
-0.0019847971449336653,2.775
-0.0010149675032622475,2.776
-6.967852803328855e-05,2.777
0.0008070854347254633,2.778
0.0015864997490696088,2.779
0.0022233338380917597,2.78
0.002636739518835314,2.781
0.002732305796573333,2.782
0.0024674025863749846,2.783
0.001903236098891089,2.784
0.001189593331226261,2.785
0.0004957861568823025,2.786
-5.9706012949212104e-05,2.787
-0.0004419061315209447,2.788
-0.000680529181989498,2.789
-0.0008166542917502575,2.79
-0.0008547823976080021,2.791
-0.0007561849757757964,2.792
-0.0004751116060736916,2.793
-6.560107609698751e-06,2.794
0.0005843220474833434,2.795
0.0011679307132409294,2.796
0.0015837317558206928,2.797
0.0016817432069311448,2.798
0.0013794812815636675,2.799
0.000724908481952422,2.8
-9.732522509698423e-05,2.801
-0.0008442090856453685,2.802
-0.0013278814321667938,2.803
-0.0014868873623333145,2.804
-0.001366078439909285,2.805
-0.0010439504848778183,2.806
-0.0005906092546864513,2.807
-7.462401332976833e-05,2.808
0.0004256564673803534,2.809
0.0008381486300502763,2.81
0.0011271419058186242,2.811
0.0013122246390858752,2.812
0.0014592281189526185,2.813
0.0016307164038234635,2.814
0.0018226830239435733,2.815
0.001943746583371375,2.816
0.0018493871616525753,2.817
0.0013966484505160944,2.818
0.0004949740089262509,2.819
-0.000850637669764564,2.82
-0.00251606567907702,2.821
-0.004268111891545544,2.822
-0.005802480317847981,2.823
-0.006806652612707842,2.824
-0.007050290610615666,2.825
-0.006469264421745132,2.826
-0.005189989614796293,2.827
-0.0034679104747215783,2.828
-0.0015584609295953792,2.829
0.00039669415648745207,2.83
0.0023782948610712117,2.831
0.004396368043245236,2.832
0.006373517708455107,2.833
0.008090137391003675,2.834
0.009236259204278032,2.835
0.009531566976631836,2.836
0.008838657349272751,2.837
0.0072330855194596266,2.838
0.005005104742719429,2.839
0.002559900502429041,2.84
0.000257682071012537,2.841
-0.0016919684777631024,2.842
-0.0032299006205838616,2.843
-0.004377566369748352,2.844
-0.005149730065701484,2.845
-0.005507581463081497,2.846
-0.005382761753790926,2.847
-0.0047442204812945385,2.848
-0.0036702567792407125,2.849
-0.0023844378862657722,2.85
-0.0012058383575203485,2.851
-0.00042710901507946183,2.852
-0.0001952802077007849,2.853
-0.0004471056371231312,2.854
-0.0009165694752046389,2.855
-0.0012258569933512992,2.856
-0.0010431923518360686,2.857
-0.0002473985184582156,2.858
0.00097005354010415,2.859
0.002130528430053885,2.86
0.002682359342309254,2.861
0.0023394731808244764,2.862
0.0012795884910217481,2.863
1.2463791182693687e-05,2.864
-0.000944526725099453,2.865
-0.0013219979000254124,2.866
-0.001161490727680818,2.867
-0.0007059520505194814,2.868
-0.00021473008014681984,2.869
0.00017784159871144897,2.87
0.0004949047243036592,2.871
0.0008607386324933911,2.872
0.0014067012508890025,2.873
0.002188816392888617,2.874
0.003156992544467552,2.875
0.004173450735867147,2.876
0.005051052696268475,2.877
0.0055969316958778105,2.878
0.005663231615235165,2.879
0.00519586863371114,2.88
0.004244112829188946,2.881
0.002906696286731435,2.882
0.0012517433582959812,2.883
-0.0007239193355551945,2.884
-0.0030646126920094423,2.885
-0.005775734516540515,2.886
-0.008745310213089653,2.887
-0.01169923533780631,2.888
-0.014207921629369182,2.889
-0.015774665199737605,2.89
-0.015985191707276514,2.891
-0.01463736362270371,2.892
-0.01178574209444405,2.893
-0.007678004659084422,2.894
-0.0026331144191449056,2.895
0.0030210801179438814,2.896
0.008886220177582446,2.897
0.014383239864596626,2.898
0.01875383049173125,2.899
0.021258182101809384,2.9
0.021451319108620134,2.901
0.019334234764871384,2.902
0.01533202178207801,2.903
0.010187836291403232,2.904
0.0047971814124175,2.905
-3.078910827069498e-05,2.906
-0.0037815331485896273,2.907
-0.006284271578790767,2.908
-0.0076175297455573845,2.909
-0.007975343485508645,2.91
-0.007576145850110629,2.911
-0.006644542464608277,2.912
-0.005433768202377384,2.913
-0.004222459000252516,2.914
-0.00325792653219505,2.915
-0.0026854978365980307,2.916
-0.002513308251013043,2.917
-0.0026276739392082703,2.918
-0.0028477831743267488,2.919
-0.0029911487343677076,2.92
-0.0029229683016198963,2.921
-0.002582303120711744,2.922
-0.001989971371941848,2.923
-0.0012361948755677647,2.924
-0.0004413068090590019,2.925
0.0002886202079796002,2.926
0.0008733188856039952,2.927
0.0012517401338533567,2.928
0.001396289098500851,2.929
0.0013347338366951746,2.93
0.001160459510980251,2.931
0.0010313839068644877,2.932
0.0011303088371782631,2.933
0.0015753350368651556,2.934
0.00232798418356746,2.935
0.0031600522516476073,2.936
0.0037267759455186225,2.937
0.0037465956882785163,2.938
0.0031695677179702435,2.939
0.002180685044598976,2.94
0.001052264352590819,2.941
3.0322812295568007e-06,2.942
-0.0008461701293634684,2.943
-0.001451934200501322,2.944
-0.001816978719542169,2.945
-0.001963678751989899,2.946
-0.0019164856616937485,2.947
-0.0017094349109998477,2.948
-0.0014052146655862403,2.949
-0.0010826324323949046,2.95
-0.0007979977443222004,2.951
-0.0005699926105038399,2.952
-0.00039438187912750367,2.953
-0.0002552270896085171,2.954
-0.00013024120583943994,2.955
-1.2115340980787383e-05,2.956
6.699339418662862e-05,2.957
5.032134141656694e-05,2.958
-8.641839782905973e-05,2.959
-0.0002947912782680239,2.96
-0.00047434045441595795,2.961
-0.0005203782176929665,2.962
-0.0003495776147677294,2.963
8.973608262604326e-05,2.964
0.0007976408404535774,2.965
0.0016973612192617193,2.966
0.0026303652250101706,2.967
0.0033888086536918707,2.968
0.0037724481739174155,2.969
0.0036438264982965292,2.97
0.00297040647669782,2.971
0.00184758537021773,2.972
0.00048491131186193155,2.973
-0.0008515167353443215,2.974
-0.0019236130784133154,2.975
-0.0026019477987583406,2.976
-0.0029028849566146552,2.977
-0.00295587040979685,2.978
-0.0029237499992192193,2.979
-0.0029275480857912676,2.98
-0.002997051401877329,2.981
-0.0030604017688044853,2.982
-0.0029867416116787313,2.983
-0.0026503537207226767,2.984
-0.0019775188901930865,2.985
-0.0009737435716747385,2.986
0.0002673478991115737,2.987
0.0015814311760250738,2.988
0.002768972378005682,2.989
0.003638943832255463,2.99
0.004062974928805195,2.991
0.004018324698218173,2.992
0.0035904823728661974,2.993
0.0029417994485673588,2.994
0.0022668559102090617,2.995
0.001739164458634804,2.996
0.0014566655349725743,2.997
0.0014191937041802252,2.998
0.0015529189709755711,2.999
0.001754288134131756,3.0
0.001926817045573264,3.001
0.001981612782559932,3.002
0.0017924413587027226,3.003
0.0011752860355826447,3.004
-3.3434260628707295e-05,3.005
-0.0018298454186114128,3.006
-0.003951061573497358,3.007
-0.005944656190489651,3.008
-0.007362759968262746,3.009
-0.007933156839854107,3.01
-0.007607894979156971,3.011
-0.006516088064321141,3.012
-0.004896753419429106,3.013
-0.003049373113907757,3.014
-0.0012932281785409886,3.015
9.897612966091736e-05,3.016
0.000995592536865276,3.017
0.0014687805195721193,3.018
0.0017692418421981393,3.019
0.002213033340190721,3.02
0.0030293320591514203,3.021
0.004238289318961099,3.022
0.0056175539772267595,3.023
0.006795824509412141,3.024
0.007444279461652993,3.025
0.007429506859035006,3.026
0.006822658848832196,3.027
0.005816653222043768,3.028
0.004636665382469029,3.029
0.0034528077640256717,3.03
0.002307329173570262,3.031
0.0010978475751097958,3.032
-0.0003770097950224575,3.033
-0.00232119395162102,3.034
-0.004811967301173689,3.035
-0.007691617078748226,3.036
-0.01054103691765022,3.037
-0.012768294039056294,3.038
-0.013778288859325716,3.039
-0.01312602437240135,3.04
-0.010607706539548676,3.041
-0.006327004021473372,3.042
-0.0007539920205540337,3.043
0.005276073700292442,3.044
0.010699585029293083,3.045
0.014495456640733926,3.046
0.01596703711074006,3.047
0.01489670262923762,3.048
0.011550093424008475,3.049
0.0066013955447818675,3.05
0.0010133019461775184,3.051
-0.00416177506994253,3.052
-0.008046284196152864,3.053
-0.010160928071398498,3.054
-0.010489327340293524,3.055
-0.009355426451690196,3.056
-0.007202306766436693,3.057
-0.004425868091695093,3.058
-0.001357128338385187,3.059
0.0016720906063413124,3.06
0.0043019144331094645,3.061
0.006190440183489415,3.062
0.007103666996447682,3.063
0.007001806878897873,3.064
0.00606417986211598,3.065
0.004614710354874488,3.066
0.002979610025375484,3.067
0.0013799536010934187,3.068
-7.181075051006784e-05,3.069
-0.0013045785397666411,3.07
-0.0022267178092157678,3.071
-0.0027217941225704434,3.072
-0.0027038349534143206,3.073
-0.002187380349992838,3.074
-0.0013219510494330443,3.075
-0.00036745815788871694,3.076
0.00038751860034245733,3.077
0.0007425387602579079,3.078
0.0006734599883216944,3.079
0.0003111439224076197,3.08
-0.00017821635635991735,3.081
-0.0007100555537104825,3.082
-0.0013204130521333015,3.083
-0.002099981904944692,3.084
-0.003051465697523231,3.085
-0.0039981626911392435,3.086
-0.004656954293188892,3.087
-0.004798223647084372,3.088
-0.004321336482116873,3.089
-0.003227957787902715,3.09
-0.0016116067713053163,3.091
0.0003169766260382914,3.092
0.002266605433315916,3.093
0.003977113831641833,3.094
0.005301596390084664,3.095
0.0061935959867613155,3.096
0.006638002203872282,3.097
0.006597196779233535,3.098
0.006011197994464185,3.099
0.004844722890101596,3.1
0.003135685916272608,3.101
0.0010127899683443225,3.102
-0.001311521989800064,3.103
-0.003564432233573842,3.104
-0.005453962082967286,3.105
-0.00671863065577013,3.106
-0.007159552356747158,3.107
-0.006646328799629458,3.108
-0.005128829098938417,3.109
-0.0026825887090265884,3.11
0.00043381433885450287,3.111
0.0037642091840917767,3.112
0.006728028504869037,3.113
0.008764027855447542,3.114
0.00946460870802501,3.115
0.00865291310694198,3.116
0.006414519907111307,3.117
0.003085199569447727,3.118
-0.0008049292731107759,3.119
-0.00461975047759495,3.12
-0.007744195615546695,3.121
-0.009717443227716505,3.122
-0.010306564259515188,3.123
-0.009507968241807914,3.124
-0.007499399741292507,3.125
-0.004571685605969117,3.126
-0.0010800323867344473,3.127
0.002575209338093668,3.128
0.0059602435036116815,3.129
0.008629994591472954,3.13
0.01017171470172781,3.131
0.010271331538370197,3.132
0.008784028318041991,3.133
0.005778980759777003,3.134
0.0015523862535026035,3.135
-0.0033737752549952526,3.136
-0.008291102765656021,3.137
-0.012421939462417791,3.138
-0.015063679427879213,3.139
-0.01568563624815757,3.14
-0.014017905205815742,3.141
-0.010181996815592925,3.142
-0.004772805314197439,3.143
0.0012523969140359774,3.144
0.006882444959784298,3.145
0.011371168969817663,3.146
0.014385920828466977,3.147
0.015973713869023357,3.148
0.016409164704983527,3.149
0.015984488442383454,3.15
0.014829594052968692,3.151
0.012874507725661913,3.152
0.010003427003175037,3.153
0.006284754622816383,3.154
0.0020670059980414453,3.155
-0.0021455518339570847,3.156
-0.005917365714909039,3.157
-0.00903140418395581,3.158
-0.011496026616650794,3.159
-0.013441292009714249,3.16
-0.014981241290123617,3.161
-0.016128200227449603,3.162
-0.01678349022998606,3.163
-0.01676140729426083,3.164
-0.01582233221376651,3.165
-0.01371615190101999,3.166
-0.010248339058122051,3.167
-0.005398655160938799,3.168
0.0005543308677491822,3.169
0.007013471587960525,3.17
0.01315445207618305,3.171
0.018059035045975974,3.172
0.020904951270077965,3.173
0.021237981734311052,3.174
0.019183828551938006,3.175
0.015407539948634287,3.176
0.01083361258847512,3.177
0.006314023138811585,3.178
0.002423369923666344,3.179
-0.0005302680649934732,3.18
-0.0023580251940200085,3.181
-0.00293134958099432,3.182
-0.0023278365051314577,3.183
-0.0010350512126272385,3.184
5.6844479268859645e-05,3.185
1.481647608073215e-05,3.186
-0.0016147815709059382,3.187
-0.004545434701571466,3.188
-0.007970663768009239,3.189
-0.011045381860806896,3.19
-0.013260277631523038,3.191
-0.014537610788614848,3.192
-0.015065982704864662,3.193
-0.014991147296452522,3.194
-0.014182440174454285,3.195
-0.012259792458954878,3.196
-0.008846113824502073,3.197
-0.0038532582981902,3.198
0.002361844375465786,3.199
0.009015462625703092,3.2
0.015037778188409857,3.201
0.019305164824066842,3.202
0.020974915567153977,3.203
0.01981028932873342,3.204
0.016260724400740313,3.205
0.01122606507221134,3.206
0.00570970638986512,3.207
0.000576730680356789,3.208
-0.0035597576285257056,3.209
-0.00636758214637299,3.21
-0.007745007826678154,3.211
-0.00776406649683209,3.212
-0.0066910754138195735,3.213
-0.004991046355267034,3.214
-0.003193520214339428,3.215
-0.0016975105738110971,3.216
-0.0006581357458489034,3.217
2.2612009580814643e-05,3.218
0.0006345474735047538,3.219
0.001513408219002843,3.22
0.0028077951207953703,3.221
0.004305400375238018,3.222
0.005526626039359726,3.223
0.006058329854060858,3.224
0.005821014611763826,3.225
0.005039528605536079,3.226
0.004026659120681076,3.227
0.0030107077773768413,3.228
0.0020826308097900057,3.229
0.001220965910667846,3.23
0.0003253436651040249,3.231
-0.0007853388551663873,3.232
-0.002379479840217518,3.233
-0.0047678622423775385,3.234
-0.008186998344102806,3.235
-0.012642076157162526,3.236
-0.01777891104530053,3.237
-0.02285240315214103,3.238
-0.026824452372616273,3.239
-0.028562599475206504,3.24
-0.02707074979875778,3.241
-0.021720790380682677,3.242
-0.012498130911020717,3.243
-0.00022103481797550124,3.244
0.01342167352807525,3.245
0.0261807266264853,3.246
0.035882645167632884,3.247
0.04110411226960696,3.248
0.04151343877290104,3.249
0.037759579170621865,3.25
0.031098579973095983,3.251
0.02296597878642639,3.252
0.014593462732760422,3.253
0.0067578373675198184,3.254
-0.0002674494845437702,3.255
-0.006547278789577786,3.256
-0.012154278627852518,3.257
-0.016872587454009116,3.258
-0.02020257930516907,3.259
-0.02165473154126551,3.26
-0.021039860514032442,3.261
-0.018548870704755163,3.262
-0.014642445618428953,3.263
-0.009891360372143032,3.264
-0.0049043728291668495,3.265
-0.0003328314629400807,3.266
0.003185297746052483,3.267
0.005180474017579255,3.268
0.005505052930466491,3.269
0.004383151521916054,3.27
0.00229815084497577,3.271
-0.0002376775257785491,3.272
-0.0028536011410484796,3.273
-0.005308800963116544,3.274
-0.007363690885763557,3.275
-0.008676041411922837,3.276
-0.008829594460257181,3.277
-0.007511197009553113,3.278
-0.004724207575639687,3.279
-0.0008801198099234481,3.28
0.0033080299689579335,3.281
0.007069960677527572,3.282
0.00981880888988488,3.283
0.011287351065370148,3.284
0.011529856117313326,3.285
0.01080716432254921,3.286
0.009421885797350793,3.287
0.00759347274430375,3.288
0.005434426781129965,3.289
0.0030104489667187205,3.29
0.000428917684940312,3.291
-0.002073627061928709,3.292
-0.004112317851887532,3.293
-0.005278651932140574,3.294
-0.005333079151741985,3.295
-0.004313496109245152,3.296
-0.00251255368976321,3.297
-0.00036874269488479573,3.298
0.0016475293663991428,3.299
0.003087114251449279,3.3
0.0035461741038704973,3.301
0.0027670877918460333,3.302
0.0008474413171751214,3.303
-0.001601923304754141,3.304
-0.003583331190845456,3.305
-0.004152805156813057,3.306
-0.0029113101586961433,3.307
-0.000232755455430197,3.308
0.0028622828017565044,3.309
0.005066295122065586,3.31
0.005231088783047018,3.311
0.002788120464541085,3.312
-0.001997750403795161,3.313
-0.008072295559034569,3.314
-0.013913114008830317,3.315
-0.017942629954661476,3.316
-0.01887868390823088,3.317
-0.01602787490173899,3.318
-0.009543951508474195,3.319
-0.000545873700872703,3.32
0.009058240688890122,3.321
0.017086073657803437,3.322
0.021758664614757235,3.323
0.022220888573156596,3.324
0.018726657219400037,3.325
0.012509449917951556,3.326
0.005383929865987509,3.327
-0.0007954424644028445,3.328
-0.0046024626898948815,3.329
-0.005352404014511612,3.33
-0.0032703259691700703,3.331
0.0005496237699043986,3.332
0.004459124546943089,3.333
0.006812185795871098,3.334
0.006575995903537433,3.335
0.0036803515335467234,3.336
-0.001090980918796909,3.337
-0.0065269498883876245,3.338
-0.01140766686509936,3.339
-0.014741160674390665,3.34
-0.01590097586634302,3.341
-0.01477900150137647,3.342
-0.011867317642291944,3.343
-0.008079378790758108,3.344
-0.004331567577055266,3.345
-0.0011980681552934095,3.346
0.0011097779464067177,3.347
0.0025433772370574243,3.348
0.0030645728145182478,3.349
0.002678660760651337,3.35
0.0015661786607718174,3.351
0.00013733145556398284,3.352
-0.0010222757237416484,3.353
-0.0012558906069146086,3.354
-9.97937265955438e-06,3.355
0.0029124903456708303,3.356
0.007142534215439062,3.357
0.011778468544064688,3.358
0.015724652440041134,3.359
0.018110719396111637,3.36
0.018504322943315017,3.361
0.016900845973220384,3.362
0.013651240056004921,3.363
0.009351101685327578,3.364
0.004641535048948292,3.365
2.6258913751636962e-05,3.366
-0.004173433754285713,3.367
-0.00777985865697568,3.368
-0.010742166543195845,3.369
-0.013110694782270099,3.37
-0.014925203343506966,3.371
-0.016093205707820607,3.372
-0.016397249620878393,3.373
-0.015636718016147435,3.374
-0.013806177277656229,3.375
-0.011188557532147479,3.376
-0.00825338922070835,3.377
-0.005402142519061563,3.378
-0.0027870781364604403,3.379
-0.00034573909550784774,3.38
0.0020341337746755386,3.381
0.004364120852288971,3.382
0.006507017448585604,3.383
0.008237120177057636,3.384
0.009330494197299026,3.385
0.009623465130122582,3.386
0.009055362331870372,3.387
0.007723038463659063,3.388
0.005943569021257273,3.389
0.004276288675307644,3.39
0.0033811347290048973,3.391
0.0036695743550022,3.392
0.004991104276336821,3.393
0.006660253025893866,3.394
0.007796374335322937,3.395
0.007692649778692443,3.396
0.006016601105774002,3.397
0.0028449799814709666,3.398
-0.0013856450716693532,3.399
-0.005984559933626127,3.4
-0.010166114052471985,3.401
-0.01321325384286642,3.402
-0.014579555989052622,3.403
-0.013920969834381769,3.404
-0.011135059329948294,3.405
-0.006460103827685988,3.406
-0.0005649458897213757,3.407
0.005457757809070587,3.408
0.010238988320459656,3.409
0.012468027569471614,3.41
0.011380012597032902,3.411
0.0071576424069139995,3.412
0.0009305332330733424,3.413
-0.005677977414735772,3.414
-0.011141616208048577,3.415
-0.014425347589019376,3.416
-0.015104775862492958,3.417
-0.013313855770315372,3.418
-0.009640335781554592,3.419
-0.004983197290269883,3.42
-0.00031263484227868815,3.421
0.0036403923697978526,3.422
0.0066074602366452675,3.423
0.008750985840001358,3.424
0.010377967127714566,3.425
0.011619562684193901,3.426
0.012332072422041459,3.427
0.012267355123974,3.428
0.011318344701830128,3.429
0.009639388069651755,3.43
0.007617502381822785,3.431
0.00572871217537919,3.432
0.0043060264067340155,3.433
0.0033450904096113654,3.434
0.002506331110265471,3.435
0.001339843688564698,3.436
-0.0004257779703763589,3.437
-0.0027495861831980115,3.438
-0.005335365054984988,3.439
-0.007748609032289752,3.44
-0.009530183401263978,3.441
-0.01033073526199823,3.442
-0.01005628351669953,3.443
-0.008956148178556238,3.444
-0.007558044761023822,3.445
-0.006422869032820786,3.446
-0.0058542196657478856,3.447
-0.005767701319524476,3.448
-0.005784871382251443,3.449
-0.005435827914207955,3.45
-0.0043542657317272035,3.451
-0.0024412137450546523,3.452
5.355704297020778e-05,3.453
0.0026242630919470957,3.454
0.004750315234084123,3.455
0.0061220874974071806,3.456
0.006711175551561576,3.457
0.006683233297123081,3.458
0.0062562721180623206,3.459
0.0056110443789783564,3.46
0.004877208567868464,3.461
0.0041450124508170235,3.462
0.003455901146399478,3.463
0.0027717881174734154,3.464
0.0019769101672985558,3.465
0.0009594126700117686,3.466
-0.00027119176430849675,3.467
-0.001533536770735178,3.468
-0.0025394310758252137,3.469
-0.003015739548310246,3.47
-0.002799340084857055,3.471
-0.0018889159819588516,3.472
-0.0004502289774263147,3.473
0.0012531134454354623,3.474
0.002956663170626731,3.475
0.004424038817497003,3.476
0.005420814635544034,3.477
0.005726554910608356,3.478
0.005199367780821383,3.479
0.003827847803310749,3.48
0.0017433130219963995,3.481
-0.0007717195553654511,3.482
-0.003274609385333249,3.483
-0.005223876449430909,3.484
-0.0061484059566091365,3.485
-0.005857511600515177,3.486
-0.00457590724661533,3.487
-0.0028906996541824036,3.488
-0.001476184258108251,3.489
-0.000758893669142555,3.49
-0.0008028024402059475,3.491
-0.0014711037146000457,3.492
-0.0026008146917417384,3.493
-0.003990370600256197,3.494
-0.0052924043801011,3.495
-0.006010918356148693,3.496
-0.005683799942847894,3.497
-0.0041167861078112095,3.498
-0.0014774494618893835,3.499
0.0017866458403001078,3.5
0.0051126350187904596,3.501
0.007942451240425273,3.502
0.009769021451620551,3.503
0.010216712847118285,3.504
0.00917174271330257,3.505
0.006830674127067951,3.506
0.00361844054749344,3.507
6.53492460487055e-05,3.508
-0.003283086342181577,3.509
-0.005908619729695298,3.51
-0.007312476611817861,3.511
-0.0070327436136850725,3.512
-0.004794370380499613,3.513
-0.0007114468184553217,3.514
0.004648194192659209,3.515
0.010360951225975077,3.516
0.015301513305719177,3.517
0.018314120432174626,3.518
0.01844444756849369,3.519
0.015217395706962148,3.52
0.008790719002956702,3.521
-0.00017440847808741392,3.522
-0.010769130942463285,3.523
-0.021901119906881865,3.524
-0.03217659786864121,3.525
-0.039890806298514186,3.526
-0.04326011966280742,3.527
-0.040834447145697866,3.528
-0.03203586324884076,3.529
-0.01767067336821397,3.53
-4.891840315525289e-05,3.531
0.017537766074146643,3.532
0.03177724842651416,3.533
0.04027980386069123,3.534
0.04215758398769296,3.535
0.038066069855935476,3.536
0.029714277976680623,3.537
0.0191379890982126,3.538
0.008161604259289756,3.539
-0.0017759448947329355,3.54
-0.009607397699408401,3.541
-0.014640882213737692,3.542
-0.01658159855708292,3.543
-0.015492135424723816,3.544
-0.01171053613492449,3.545
-0.00584516272218265,3.546
0.0011527528777160805,3.547
0.008050650001158703,3.548
0.013616855011436405,3.549
0.016912537349290897,3.55
0.01744652889262922,3.551
0.015243016388602938,3.552
0.010808401161234686,3.553
0.004988685999740114,3.554
-0.0011796447555156135,3.555
-0.006634044358393416,3.556
-0.010516793749266822,3.557
-0.012370653221181981,3.558
-0.012206608631038864,3.559
-0.010453465652124532,3.56
-0.007816068263036727,3.561
-0.005079739963818976,3.562
-0.0029137171743534155,3.563
-0.0017590948775545638,3.564
-0.0018807578981491278,3.565
-0.0034800067967326906,3.566
-0.006666979431905667,3.567
-0.011305330923344514,3.568
-0.016878868173326025,3.569
-0.022432760303199493,3.57
-0.026631675679960276,3.571
-0.028038430770470635,3.572
-0.02560716965413056,3.573
-0.019162864738546694,3.574
-0.009556616134130233,3.575
0.0016206684469628704,3.576
0.01260021118768149,3.577
0.021982454326950472,3.578
0.029014565569750964,3.579
0.033542064061487104,3.58
0.03579529556984226,3.581
0.036119425520014105,3.582
0.034670959670304514,3.583
0.03130289598918911,3.584
0.025891263646949776,3.585
0.0188176061943414,3.586
0.011007025070013315,3.587
0.003483222970875301,3.588
-0.003060603882994513,3.589
-0.008370192313474353,3.59
-0.01248431944497722,3.591
-0.015521850066755265,3.592
-0.017532034948756204,3.593
-0.018442904067991185,3.594
-0.018133662044319522,3.595
-0.016629668308033387,3.596
-0.014281542658219336,3.597
-0.011750668301563714,3.598
-0.009767304938884417,3.599
-0.008790333341326614,3.6
-0.008773116613245521,3.601
-0.009176206898373656,3.602
-0.009178314437804726,3.603
-0.007942658169041281,3.604
-0.004928404940194623,3.605
-0.00022428273852612753,3.606
0.0053658096769361365,3.607
0.010610912559125584,3.608
0.014280393039787074,3.609
0.015546802111083826,3.61
0.01428420454029587,3.611
0.011047358389791507,3.612
0.006712421076753804,3.613
0.0020969258117003583,3.614
-0.0022304423029255505,3.615
-0.005976946523328422,3.616
-0.009003779701102714,3.617
-0.011114519167882544,3.618
-0.011965465267581512,3.619
-0.01121938018944951,3.62
-0.008774979045944974,3.621
-0.0048181748065643315,3.622
0.00033741074838126235,3.623
0.006402734527292346,3.624
0.013016349460550797,3.625
0.01943601795801067,3.626
0.024375845182523545,3.627
0.026322478520932665,3.628
0.024265648198916304,3.629
0.018304055371855376,3.63
0.009620413557602776,3.631
-5.766851361969514e-05,3.632
-0.009034073357526843,3.633
-0.016000486742400812,3.634
-0.020167542116588333,3.635
-0.021243675459463214,3.636
-0.01936793955665216,3.637
-0.015084404228600544,3.638
-0.00932817091231247,3.639
-0.003287436554003695,3.64
0.0018984057424522498,3.641
0.005430729170247372,3.642
0.006951750755238024,3.643
0.0065033072022523146,3.644
0.004465464077292746,3.645
0.0014197167288012842,3.646
-0.002088649123007271,3.647
-0.005701151014938585,3.648
-0.009181366734960134,3.649
-0.012239728916311665,3.65
-0.014432771815981887,3.651
-0.01523051661384664,3.652
-0.014184895550030805,3.653
-0.0110965206091024,3.654
-0.006130521148294125,3.655
0.0002048358577922995,3.656
0.007217876203146033,3.657
0.014154741803124182,3.658
0.02020560118265516,3.659
0.024523073459026233,3.66
0.026347607850327522,3.661
0.02523390901937856,3.662
0.021302739490627755,3.663
0.015303660483011154,3.664
0.0083807415443946,3.665
0.0017273603558182534,3.666
-0.003727994548567185,3.667
-0.007563432995478254,3.668
-0.00992253948757868,3.669
-0.011385513614682659,3.67
-0.012687929838751355,3.671
-0.014233195479117586,3.672
-0.01563937319336909,3.673
-0.015831657465179443,3.674
-0.01372606816219836,3.675
-0.00896785144753474,3.676
-0.002255766506001163,3.677
0.0048732999069092085,3.678
0.010707750040402551,3.679
0.014127090118748006,3.68
0.01495103792778523,3.681
0.013688020157122224,3.682
0.011053794777013697,3.683
0.007657135296867038,3.684
0.003904214361822302,3.685
3.236692519214489e-05,3.686
-0.0037997331371855884,3.687
-0.007431520947238077,3.688
-0.010656438070377097,3.689
-0.013192775113711634,3.69
-0.014677450743181632,3.691
-0.014751661051553946,3.692
-0.013242339934784018,3.693
-0.01032302535560435,3.694
-0.006538574624706581,3.695
-0.002641657609340909,3.696
0.0007223600388130982,3.697
0.003299461873905075,3.698
0.005265099354361057,3.699
0.006980062867414214,3.7
0.008657121424369705,3.701
0.010221208274332889,3.702
0.011427739597660335,3.703
0.012015931473363377,3.704
0.011808902971937445,3.705
0.010842212989008034,3.706
0.00934789297180626,3.707
0.007415294508350865,3.708
0.004650884295141711,3.709
0.00035902750530604477,3.71
-0.005738801641371476,3.711
-0.01289845707422272,3.712
-0.019472195382107982,3.713
-0.023604371473307885,3.714
-0.023904543313537245,3.715
-0.019783382773498774,3.716
-0.011563916585089538,3.717
-0.000519273627864155,3.718
0.011242207961127453,3.719
0.02118011937075672,3.72
0.027023197146626012,3.721
0.027593103532691288,3.722
0.0232959577170963,3.723
0.015885216950992636,3.724
0.007661330760478281,3.725
0.0006370224923184371,3.726
-0.0039750222102296,3.727
-0.005898309156922235,3.728
-0.0056421262835208595,3.729
-0.004187580891200512,3.73
-0.0026357520264963133,3.731
-0.0019207061140323115,3.732
-0.002631512015585114,3.733
-0.004926736049926455,3.734
-0.00851441507715648,3.735
-0.012686190985462028,3.736
-0.016428799637801663,3.737
-0.01865275187913816,3.738
-0.018494619774782988,3.739
-0.015573206534450676,3.74
-0.010103988084404419,3.741
-0.00283638264662762,3.742
0.005141405939098859,3.743
0.012607579936404285,3.744
0.018341231748122067,3.745
0.021260772242895593,3.746
0.020657237664835962,3.747
0.016436764881380822,3.748
0.009208499563055942,3.749
0.00018548377688169045,3.75
-0.00902092758652128,3.751
-0.01671060154336785,3.752
-0.02150671496687326,3.753
-0.022637146677055832,3.754
-0.019911952735780447,3.755
-0.01364371489384429,3.756
-0.004738989123730283,3.757
0.005305409313076987,3.758
0.014794105319311779,3.759
0.022353342900324365,3.76
0.027146082008756584,3.761
0.02877672027928645,3.762
0.027180564418497526,3.763
0.02268123456133406,3.764
0.01610591111063282,3.765
0.008653017948611827,3.766
0.0014679045322344188,3.767
-0.0047058326363582014,3.768
-0.009582034056843465,3.769
-0.013218210529815677,3.77
-0.015823194243866044,3.771
-0.017518385464736812,3.772
-0.018173789054861052,3.773
-0.017450867402437165,3.774
-0.015072824647421497,3.775
-0.011166047810709068,3.776
-0.00640465808638212,3.777
-0.0018225427521841731,3.778
0.0015742922882180275,3.779
0.0031545247280888393,3.78
0.0028407732587378675,3.781
0.0011141429170974293,3.782
-0.0011894248153726061,3.783
-0.003236944579203961,3.784
-0.00445256957591574,3.785
-0.004521807904054259,3.786
-0.0032987280584975943,3.787
-0.0008322982909238602,3.788
0.002532750055069093,3.789
0.006228806688952136,3.79
0.009699352912674177,3.791
0.012529307146653982,3.792
0.014408274148928911,3.793
0.015052264992172657,3.794
0.014158443441453124,3.795
0.011449070828519198,3.796
0.0068282971710097815,3.797
0.0005401151519244771,3.798
-0.0067687186280519715,3.799
-0.014016230380100704,3.8
-0.01967512940557011,3.801
-0.02200481397537958,3.802
-0.01967978345010826,3.803
-0.012546848655972092,3.804
-0.001978903060905653,3.805
0.00948439619105708,3.806
0.01904590353317672,3.807
0.024591113212510025,3.808
0.025189105023309115,3.809
0.021092631272522398,3.81
0.01346355036106664,3.811
0.004022825761921388,3.812
-0.005322143015013463,3.813
-0.012877148799922564,3.814
-0.017509491328029172,3.815
-0.018825020171450744,3.816
-0.01711355692779852,3.817
-0.013111239148044017,3.818
-0.007760281643415017,3.819
-0.0021365430832434398,3.82
0.002497432971069506,3.821
0.004788253959376642,3.822
0.003782111645587699,3.823
-0.00037269161596928304,3.824
-0.006089016838136669,3.825
-0.010769991547779988,3.826
-0.011854357726245284,3.827
-0.007957962696268465,3.828
0.0004555057318397637,3.829
0.011242162637350254,3.83
0.021463677236461923,3.831
0.028402573122362194,3.832
0.030239298877961833,3.833
0.026419496191586723,3.834
0.017813717977557826,3.835
0.006464416833648846,3.836
-0.005147605920913969,3.837
-0.014909683405978766,3.838
-0.021563367410040935,3.839
-0.024813170526443613,3.84
-0.025129818022584058,3.841
-0.02336253051728802,3.842
-0.020363842315160068,3.843
-0.016842131279293703,3.844
-0.01340317251669161,3.845
-0.010468144306284979,3.846
-0.008039167925361617,3.847
-0.005676845128104241,3.848
-0.0028054109829348545,3.849
0.0009435095608250308,3.85
0.005617890725535351,3.851
0.011043662756694866,3.852
0.016908866047099,3.853
0.022707871658033296,3.854
0.027637899586146774,3.855
0.030644879141856575,3.856
0.030764198472613226,3.857
0.027645956125586506,3.858
0.021882907805024155,3.859
0.014831548474246876,3.86
0.00806027005352322,3.861
0.0028463488705897247,3.862
-9.452723289761001e-05,3.863
-0.0007609864424684606,3.864
9.219214932646e-05,3.865
0.0011982096018343827,3.866
0.0012832878105567427,3.867
-0.0005078451120988337,3.868
-0.004460721919081222,3.869
-0.010272533601183388,3.87
-0.01710510744667314,3.871
-0.023784897826533962,3.872
-0.029107534425667686,3.873
-0.03217494078306682,3.874
-0.032697457317424974,3.875
-0.031118850164873327,3.876
-0.028434904686401304,3.877
-0.02569993409001957,3.878
-0.02342826215216282,3.879
-0.02128695711426355,3.88
-0.018332210850742683,3.881
-0.013563668593848993,3.882
-0.006364062315510682,3.883
0.0033162156098166307,3.884
0.014885859703439046,3.885
0.027041648304982926,3.886
0.03786557628783741,3.887
0.04533237846008238,3.888
0.048062181179412924,3.889
0.0458678561772719,3.89
0.039809575549926736,3.891
0.031670777344016555,3.892
0.02309445067358348,3.893
0.015000810654275611,3.894
0.007631952968341383,3.895
0.0009295834023156169,3.896
-0.005147349553063301,3.897
-0.010492502770980391,3.898
-0.014872489876843514,3.899
-0.018015053673861497,3.9
-0.0197173407131014,3.901
-0.019914831139163973,3.902
-0.01864237764917745,3.903
-0.01602228172500878,3.904
-0.01248514146575203,3.905
-0.008977072694038917,3.906
-0.006676373608043172,3.907
-0.006333622360232376,3.908
-0.007799904583272797,3.909
-0.010019957435124608,3.91
-0.011434072421896382,3.911
-0.010624760142768124,3.912
-0.006903169829906446,3.913
-0.000551787146407905,3.914
0.007268703956136309,3.915
0.014808378925555319,3.916
0.02019647629709394,3.917
0.022066856742733593,3.918
0.020096487379292077,3.919
0.015115291501650426,3.92
0.008706923968667955,3.921
0.002566294744456264,3.922
-0.002055580192481509,3.923
-0.004616613056534711,3.924
-0.005221987341775011,3.925
-0.004421605400055655,3.926
-0.003068025254060291,3.927
-0.0021686785901017837,3.928
-0.0026414809719438365,3.929
-0.005081590269638035,3.93
-0.009589962007018215,3.931
-0.015613552292652108,3.932
-0.021851861513732296,3.933
-0.026403850075021253,3.934
-0.027326873090215618,3.935
-0.023488321737110063,3.936
-0.015181847792040008,3.937
-0.004054605787865121,3.938
0.007601504075979876,3.939
0.01777970851026628,3.94
0.025416488206639318,3.941
0.030437678754839465,3.942
0.033277401671883367,3.943
0.03431276345366034,3.944
0.03357537075696933,3.945
0.030828102231908246,3.946
0.025879382925829152,3.947
0.018870973664562828,3.948
0.010349746856276074,3.949
0.0011438289276667196,3.95
-0.00783959887532969,3.951
-0.01581726437782716,3.952
-0.022255343405594704,3.953
-0.026854207504445955,3.954
-0.02946511454595791,3.955
-0.030044121931912166,3.956
-0.028626705588942522,3.957
-0.025279598107087662,3.958
-0.020092290568700065,3.959
-0.013283581327484336,3.96
-0.005340270708673002,3.961
0.002972605291410254,3.962
0.010748555483309132,3.963
0.017119161496261037,3.964
0.021366344780393336,3.965
0.02291758350651908,3.966
0.021338528447203714,3.967
0.016451076389393728,3.968
0.008547111198127882,3.969
-0.0013752902624255714,3.97
-0.011522939894532234,3.971
-0.01961487736142874,3.972
-0.023569503334423376,3.973
-0.022222520839257895,3.974
-0.015709379900268605,3.975
-0.005385685407743063,3.976
0.006595078903382929,3.977
0.017787825727838512,3.978
0.025833831853371146,3.979
0.028803741971505273,3.98
0.02576317542958546,3.981
0.01739939500301539,3.982
0.006080522037156654,3.983
-0.004954647422546432,3.984
-0.012825784771966645,3.985
-0.015954687758179705,3.986
-0.014341453014580082,3.987
-0.009272232854267794,3.988
-0.0027964775529915414,3.989
0.0028161967235277112,3.99
0.005604601597348573,3.991
0.004429494989633283,3.992
-0.0006001287757812671,3.993
-0.008015660257495658,3.994
-0.015416100882729818,3.995
-0.020307185074219074,3.996
-0.020921554261544555,3.997
-0.016711413433858208,3.998
-0.008460311759022192,3.999
0.0019908489692553586,4.0
0.01239724719171163,4.001
0.020895662897901686,4.002
0.026478009624461254,4.003
0.02895074967216278,4.004
0.028524906242776153,4.005
0.02531619500654507,4.006
0.01909141632332659,4.007
0.009463813891990067,4.008
-0.0035845924912734327,4.009
-0.019114032125009284,4.01
-0.034785018611807654,4.011
-0.046916182963941594,4.012
-0.05149661650686782,4.013
-0.04599823327029908,4.014
-0.030843422408568962,4.015
-0.009384495223163406,4.016
0.013535888570013775,4.017
0.03340280376955025,4.018
0.047226047843461696,4.019
0.05376749855268716,4.02
0.0531201414322931,4.021
0.046123577771106226,4.022
0.033945301259132664,4.023
0.017964782210906766,4.024
-0.00017021781097663108,4.025
-0.018474882811866208,4.026
-0.03459797382176017,4.027
-0.046012029768295895,4.028
-0.05062742443231549,4.029
-0.047647454541174174,4.03
-0.0380676033131018,4.031
-0.024368343295906845,4.032
-0.009590116204249186,4.033
0.0036240152080742236,4.034
0.0135682203681866,4.035
0.019538416707904738,4.036
0.021646268480104168,4.037
0.02056213336187695,4.038
0.017257092534390703,4.039
0.012796853995802764,4.04
0.008205562242122906,4.041
0.004416826546126622,4.042
0.0022395084153458357,4.043
0.002166440746651772,4.044
0.00409282565931428,4.045
0.00723762518331466,4.046
0.010377527728685127,4.047
0.01226383771880056,4.048
0.012049262981602107,4.049
0.009600454754124205,4.05
0.005602274461239197,4.051
0.0013253319593616183,4.052
-0.001959100341887357,4.053
-0.00362645717754405,4.054
-0.003994801565727734,4.055
-0.0040462802700018015,4.056
-0.004755907745898567,4.057
-0.006576264856600244,4.058
-0.009424899742092553,4.059
-0.012962026183679786,4.06
-0.016763732608891746,4.061
-0.020234681274613656,4.062
-0.022539150120073428,4.063
-0.022938127375560478,4.064
-0.021290843078148984,4.065
-0.018142937512281347,4.066
-0.014362265595182593,4.067
-0.010651743811980903,4.068
-0.007195545498261688,4.069
-0.0036258630169977027,4.07
0.000685853488833323,4.071
0.0062334369542652,4.072
0.01309740458352445,4.073
0.020836322483194714,4.074
0.028512787670001358,4.075
0.034893406267068536,4.076
0.03877477403669424,4.077
0.03923385747337587,4.078
0.03581985341121207,4.079
0.02883895671063859,4.08
0.019537772938432698,4.081
0.009829149837624337,4.082
0.0015683666533529617,4.083
-0.004218725673552404,4.084
-0.007681354490724236,4.085
-0.009841907418624634,4.086
-0.011880054971035678,4.087
-0.014507156910692974,4.088
-0.017754694982634617,4.089
-0.02114865589509866,4.09
-0.024052374166273528,4.091
-0.025947395411427387,4.092
-0.0265266778191626,4.093
-0.02564253831881388,4.094
-0.023252634665544433,4.095
-0.019449803534731306,4.096
-0.014529784059018454,4.097
-0.008988153378441253,4.098
-0.0033593152840206766,4.099
0.002075774206920267,4.1
0.007454467235424026,4.101
0.013072662049287262,4.102
0.018860468482552677,4.103
0.02413152530727173,4.104
0.027813227152145195,4.105
0.02888498011176892,4.106
0.026746810570483077,4.107
0.021419147380714047,4.108
0.013552252351593207,4.109
0.004273840128130618,4.11
-0.005047922226332063,4.111
-0.013031325843699513,4.112
-0.01846542278239943,4.113
-0.02053312058269001,4.114
-0.01910172188931862,4.115
-0.014855044769489349,4.116
-0.009021492505075009,4.117
-0.0028336704235045053,4.118
0.0029002232557148806,4.119
0.007890112385051091,4.12
0.012148874684088467,4.121
0.015620547138563798,4.122
0.017891025215407322,4.123
0.01825636918494471,4.124
0.016091647380477442,4.125
0.011128551901713012,4.126
0.003531469287148635,4.127
-0.006061697052449843,4.128
-0.01655456586950099,4.129
-0.0265416282350388,4.13
-0.03448843280736096,4.131
-0.03885154025840358,4.132
-0.03825584738824232,4.133
-0.031925878018763905,4.134
-0.020275858829135716,4.135
-0.0050767276211953925,4.136
0.011245629728054455,4.137
0.026629053932918104,4.138
0.03964339555184408,4.139
0.04888163828874467,4.14
0.05260894059875729,4.141
0.04953829593401723,4.142
0.039978648104149875,4.143
0.02604350671868266,4.144
0.010777414948349329,4.145
-0.003051277577445837,4.146
-0.013864660795827643,4.147
-0.021634906933542322,4.148
-0.027622698846350605,4.149
-0.0334803412574128,4.15
-0.04000763457645399,4.151
-0.04628470979431638,4.152
-0.04980891019330747,4.153
-0.047669451235195025,4.154
-0.03813832782820923,4.155
-0.021693138274090754,4.156
-0.0008765854875024881,4.157
0.02074869450108132,4.158
0.039807029528761334,4.159
0.05385739494620721,4.16
0.061548094103577596,4.161
0.06242398704290643,4.162
0.05664494963542013,4.163
0.04478601281856444,4.164
0.027863673511833227,4.165
0.007605038841700658,4.166
-0.013331596601370998,4.167
-0.03163419811614088,4.168
-0.04423140712080247,4.169
-0.049377324688063114,4.17
-0.04724746241939265,4.171
-0.03960239561435654,4.172
-0.028675078854923482,4.173
-0.016101953878773688,4.174
-0.002849630983382398,4.175
0.009959053670769501,4.176
0.020525378411696972,4.177
0.02679774803212314,4.178
0.027289040962361528,4.179
0.021638310217889343,4.18
0.01077151793593882,4.181
-0.003259130303252743,4.182
-0.01774127506295311,4.183
-0.02998505121896997,4.184
-0.03793105895349525,4.185
-0.04048318244872452,4.186
-0.03755452674300206,4.187
-0.02985354281417998,4.188
-0.01860004900190545,4.189
-0.005380192773671829,4.19
