VaMe,time
0.0002939217449181821,0.001
-0.006443710982518226,0.002
-0.011838775307634677,0.003
-0.014911948304968722,0.004
-0.015259881996356715,0.005
-0.013081226056719348,0.006
-0.009023712647471994,0.007
-0.003920198200369493,0.008
0.0014276826789953868,0.009
0.006323200444542014,0.01
0.010122923079452183,0.011
0.012166682084986594,0.012
0.011887142216117561,0.013
0.009195556609686455,0.014
0.004819986616000106,0.015
0.0001311034085616288,0.016
-0.003467523782017253,0.017
-0.005105461980520955,0.018
-0.004697933958195949,0.019
-0.002867705991245554,0.02
-0.0005887063250249171,0.021
0.0012894123749746132,0.022
0.0023678044794773995,0.023
0.0027262823642774108,0.024
0.002740525377622963,0.025
0.002821988711880376,0.026
0.003181770816638231,0.027
0.003722970415169218,0.028
0.004068228653251769,0.029
0.0036868629578481462,0.03
0.0021402086396445797,0.031
-0.0006121986293676483,0.032
-0.004020524341704639,0.033
-0.007000987533515363,0.034
-0.008236309174058076,0.035
-0.006666908613636702,0.036
-0.002116926397253232,0.037
0.004213382366583127,0.038
0.009924970199074607,0.039
0.01250396984967413,0.04
0.01069771363774064,0.041
0.005199769598232958,0.042
-0.001744446812342395,0.043
-0.00744954306969171,0.044
-0.009993339244721474,0.045
-0.008973490482922885,0.046
-0.005534139288895099,0.047
-0.0016816644984456656,0.048
0.0007986262509031527,0.049
0.0012110529123807862,0.05
4.674725821668315e-05,0.051
-0.0016240742421990252,0.052
-0.00289909520102875,0.053
-0.0034351607722824615,0.054
-0.003323769029964673,0.055
-0.002675489716110827,0.056
-0.0013252211073274348,0.057
0.001110008379101678,0.058
0.004849144581746988,0.059
0.00940430855683915,0.06
0.013286387602408254,0.061
0.01457953094084868,0.062
0.012212128965540631,0.063
0.006696802123701604,0.064
-0.00026760550762094633,0.065
-0.006729625251331341,0.066
-0.011261894702490718,0.067
-0.013271510356919898,0.068
-0.012880128591474267,0.069
-0.01066175117887654,0.07
-0.007457397707508821,0.071
-0.0042462531524321235,0.072
-0.0019214310583803547,0.073
-0.0009402202404215288,0.074
-0.0010413311037246204,0.075
-0.00128604333836523,0.076
-0.0005016740815788125,0.077
0.0020664578832111802,0.078
0.006261991269154535,0.079
0.010997579765204539,0.08
0.014717676905268762,0.081
0.016105775263039326,0.082
0.014691069565646739,0.083
0.010978328675672187,0.084
0.006053434050039086,0.085
0.0010396631003045942,0.086
-0.003267078352419155,0.087
-0.006531226209105503,0.088
-0.008829565907582826,0.089
-0.010475665803055806,0.09
-0.011799935655049948,0.091
-0.012948434663037788,0.092
-0.013722228524900645,0.093
-0.013567549297572899,0.094
-0.01182181902938266,0.095
-0.00808072371211709,0.096
-0.0024651049029747996,0.097
0.004301604920321572,0.098
0.011057679464387831,0.099
0.016599001327746613,0.1
0.020100194612153576,0.101
0.02131840998413723,0.102
0.020518462597445615,0.103
0.018252219447007015,0.104
0.015147952805121791,0.105
0.0117249215629119,0.106
0.008236938893084082,0.107
0.00466580773088289,0.108
0.0008854643131011909,0.109
-0.003162784713751314,0.11
-0.007360468958563354,0.111
-0.011354203512147984,0.112
-0.014617694954626002,0.113
-0.01665691448944068,0.114
-0.01723177104521137,0.115
-0.016462047198587855,0.116
-0.014772018084433266,0.117
-0.012681017813983987,0.118
-0.010541402649558012,0.119
-0.008428060121708264,0.12
-0.006258035747850865,0.121
-0.003968717432016523,0.122
-0.001575660047328076,0.123
0.0008602548962751265,0.124
0.003243112861131863,0.125
0.005427675237835067,0.126
0.0072362724597197425,0.127
0.008504101280797859,0.128
0.00912577092876998,0.129
0.009084033388310896,0.13
0.008415366093658535,0.131
0.007091138315538472,0.132
0.004922236223499285,0.133
0.0016705735543609546,0.134
-0.002580314636351813,0.135
-0.007043368508362992,0.136
-0.01025695237568602,0.137
-0.010697902986140621,0.138
-0.007650707812110115,0.139
-0.0017137257931952045,0.14
0.005435925901938213,0.141
0.011828511433358307,0.142
0.016011349299660697,0.143
0.017442961806236966,0.144
0.016386857254522557,0.145
0.013545037448749742,0.146
0.009711753668102209,0.147
0.005580494813316528,0.148
0.001727656717676346,0.149
-0.001279691038755127,0.15
-0.0028053011791417835,0.151
-0.002262700465822504,0.152
0.0005257536347459901,0.153
0.004896225519532613,0.154
0.009175670215549596,0.155
0.011071675372022999,0.156
0.008591804697778321,0.157
0.0010739965498730675,0.158
-0.01021509491380328,0.159
-0.02227471297149896,0.16
-0.031363579661383825,0.161
-0.03442964559781057,0.162
-0.030390800092751802,0.163
-0.020599887385594234,0.164
-0.008162495739853415,0.165
0.0034822412604952843,0.166
0.011879010101921689,0.167
0.01610597790599393,0.168
0.016477297799975883,0.169
0.013889002445326017,0.17
0.009312621918868235,0.171
0.003593532464279177,0.172
-0.0025154579184035056,0.173
-0.008238774314799354,0.174
-0.012722648124328488,0.175
-0.015114716432207779,0.176
-0.014792767140878342,0.177
-0.011632122363682346,0.178
-0.006125236612790461,0.179
0.0007153634746322942,0.18
0.007608533062173324,0.181
0.013328176620084816,0.182
0.016995327801798164,0.183
0.018221363031753972,0.184
0.01709135171255146,0.185
0.014077218735555468,0.186
0.009922726481574813,0.187
0.005497436420285722,0.188
0.0016614783683062506,0.189
-0.0008246948638810362,0.19
-0.0013557397210268362,0.191
0.000500090459633477,0.192
0.004964613560490124,0.193
0.01185279036028044,0.194
0.020215440541691967,0.195
0.02809061642863391,0.196
0.032707196509918386,0.197
0.031326409690354946,0.198
0.022565730537954385,0.199
0.007470276013660067,0.2
-0.010641786234575012,0.201
-0.027603275430175312,0.202
-0.04004028007953186,0.203
-0.046335222243704365,0.204
-0.04674042876803027,0.205
-0.04286601002084554,0.206
-0.036844326494283326,0.207
-0.030427861805052362,0.208
-0.02433908996879928,0.209
-0.018213566458054508,0.21
-0.011188578909262836,0.211
-0.0027591468188710977,0.212
0.006641916238556858,0.213
0.01565074489950642,0.214
0.022531966293584657,0.215
0.02600346340247998,0.216
0.02583800916146707,0.217
0.022862954444511755,0.218
0.018495130560131683,0.219
0.014183283874789879,0.22
0.010945179766982624,0.221
0.009115618528348308,0.222
0.008409046244539175,0.223
0.008217899460912519,0.224
0.00789564232111679,0.225
0.006905099571958803,0.226
0.004947237396708395,0.227
0.0021225271722682716,0.228
-0.001001159140540376,0.229
-0.0035330471343035163,0.23
-0.0045574054279923695,0.231
-0.003432432619969233,0.232
-5.867881315298532e-05,0.233
0.00488719881350148,0.234
0.009898015419792256,0.235
0.012948655309858864,0.236
0.01224505890251559,0.237
0.007163266088713463,0.238
-0.001236082095926484,0.239
-0.010590166254201238,0.24
-0.01828097905714064,0.241
-0.022460321651732014,0.242
-0.022569865376623234,0.243
-0.019277860952861804,0.244
-0.013987519978580835,0.245
-0.008197482176223913,0.246
-0.003013480239602136,0.247
0.0010474058160626545,0.248
0.003973409438182281,0.249
0.00598331036522871,0.25
0.007241799982494147,0.251
0.0077511053396735015,0.252
0.0074365394949053466,0.253
0.006289092232638252,0.254
0.004440962246763657,0.255
0.002147287457300603,0.256
-0.00028730091762902397,0.257
-0.0025816163952766175,0.258
-0.004526906148503213,0.259
-0.006036803738828292,0.26
-0.007193780241181496,0.261
-0.008190095006784815,0.262
-0.009082153518519376,0.263
-0.009469385589256776,0.264
-0.008382225383537665,0.265
-0.004664811778043157,0.266
0.0022089053572272536,0.267
0.011472819867580438,0.268
0.021118347975171158,0.269
0.028626342511026828,0.27
0.03193332425312142,0.271
0.030131612339220196,0.272
0.02362519013053756,0.273
0.013820350681092459,0.274
0.002613438313675587,0.275
-0.008117073474507377,0.276
-0.016900655910714227,0.277
-0.02284565654363774,0.278
-0.02556547298363263,0.279
-0.0250207382904479,0.28
-0.02144574992039441,0.281
-0.01535366509563772,0.282
-0.007582363501506557,0.283
0.0006434079175621433,0.284
0.007812287425560247,0.285
0.012548381273690195,0.286
0.014132740677902841,0.287
0.012725357977409863,0.288
0.009188530466674148,0.289
0.0046866983332560005,0.29
0.00028590376060702344,0.291
-0.003252871030601915,0.292
-0.005478459157382642,0.293
-0.006219117513392231,0.294
-0.0055767702940217965,0.295
-0.0038703953195598816,0.296
-0.0015218098803842072,0.297
0.0010392749195929458,0.298
0.003400014198696861,0.299
0.0051458385609351185,0.3
0.0059031615532085515,0.301
0.005492046937839399,0.302
0.00405182222854351,0.303
0.0019841109104618312,0.304
-0.0002538988451079708,0.305
-0.0023480342907309906,0.306
-0.004181687474922053,0.307
-0.005733419204825463,0.308
-0.006929418244097205,0.309
-0.007561071978192011,0.31
-0.007314890639234143,0.311
-0.005921560471111387,0.312
-0.0033648545751827096,0.313
-1.0741595678768773e-05,0.314
0.0034671949789558095,0.315
0.006346138265633267,0.316
0.008143312526516597,0.317
0.00877982125003935,0.318
0.008550724431386797,0.319
0.0079272895725658,0.32
0.007279202460689526,0.321
0.00663109088799041,0.322
0.005590891805137306,0.323
0.0035883010178942775,0.324
0.00036681300671200184,0.325
-0.003647326806579406,0.326
-0.007441942443265964,0.327
-0.009899090602265665,0.328
-0.010301211738869782,0.329
-0.008573382656061609,0.33
-0.005220843646434351,0.331
-0.001126069058447519,0.332
0.002697678692458562,0.333
0.005403177191450384,0.334
0.006561550142749059,0.335
0.0062463602346487755,0.336
0.004975105032673567,0.337
0.0036107895337107085,0.338
0.0031801135994355976,0.339
0.004397606793763633,0.34
0.006976495001299844,0.341
0.009408254062637504,0.342
0.009752230526277869,0.343
0.006890858277389903,0.344
0.001165861778049585,0.345
-0.0059295533006517645,0.346
-0.012529594392184682,0.347
-0.0171208836085701,0.348
-0.01892766306804013,0.349
-0.01794107208069572,0.35
-0.014728788131743357,0.351
-0.010156391359435787,0.352
-0.005140721806946727,0.353
-0.00048585314614757653,0.354
0.0032225831301737474,0.355
0.005664899573165445,0.356
0.0067926147521536,0.357
0.006839822663008817,0.358
0.006277874837833892,0.359
0.0056243705933255944,0.36
0.005225039109672193,0.361
0.00518465477531321,0.362
0.005437437463028601,0.363
0.005850445557171101,0.364
0.006290615022157338,0.365
0.006632798017433251,0.366
0.006724785189069547,0.367
0.006356653786786334,0.368
0.005283352261950681,0.369
0.003318973010254599,0.37
0.00048824539765148373,0.371
-0.002841390583836187,0.372
-0.005977347881874498,0.373
-0.00811324040239618,0.374
-0.008616781077906728,0.375
-0.007229914715420616,0.376
-0.004108467772634509,0.377
0.00024091334535144887,0.378
0.005027639063911502,0.379
0.009235983181997455,0.38
0.011743551671379547,0.381
0.011583808826052968,0.382
0.008346150777740443,0.383
0.002461641162767343,0.384
-0.004903510476387614,0.385
-0.012259147640072124,0.386
-0.018180648600343092,0.387
-0.021500740518509635,0.388
-0.021406877562795395,0.389
-0.017640127329907326,0.39
-0.010753659982018977,0.391
-0.0021367819587308047,0.392
0.0063644349080396005,0.393
0.013073013704725535,0.394
0.01703297345790229,0.395
0.018222587056523964,0.396
0.017370494345267138,0.397
0.015528176532157274,0.398
0.013602699663539553,0.399
0.012007174704065888,0.4
0.010538122964827035,0.401
0.008504494244191679,0.402
0.00507158352209247,0.403
-0.00023284580378403198,0.404
-0.007041267347039022,0.405
-0.014058048598030672,0.406
-0.01954966208781029,0.407
-0.022137295349813502,0.408
-0.021351548481515065,0.409
-0.017645366967613124,0.41
-0.012004500319614449,0.411
-0.005484777820535221,0.412
0.0010724993479801271,0.413
0.007072428084312021,0.414
0.012046615677949743,0.415
0.015540328859762758,0.416
0.01711807138753643,0.417
0.01650653528636191,0.418
0.013771609738675179,0.419
0.009373285491524355,0.42
0.004048408487691601,0.421
-0.0013709346211940488,0.422
-0.006095858331616126,0.423
-0.009492826186712638,0.424
-0.01119558027329013,0.425
-0.011168498366760881,0.426
-0.009680018380795633,0.427
-0.007191784728616354,0.428
-0.004228541789165767,0.429
-0.0013085637509284956,0.43
0.0010982788393273145,0.431
0.002675524015978154,0.432
0.003401212511316643,0.433
0.0036027764164107733,0.434
0.003834627979643579,0.435
0.004605080630851192,0.436
0.006119861671967001,0.437
0.008184110007024391,0.438
0.010249941840867879,0.439
0.011556260176988424,0.44
0.011363224230306558,0.441
0.009260437603689749,0.442
0.005388636810867634,0.443
0.00039563494813653333,0.444
-0.004810263303656069,0.445
-0.009292818976899096,0.446
-0.012251722727227693,0.447
-0.01320683570034681,0.448
-0.012179093411566661,0.449
-0.009709197879460773,0.45
-0.006642850979549909,0.451
-0.003805025501963901,0.452
-0.0017408469810308437,0.453
-0.0006121079157709909,0.454
-0.00024476983396873374,0.455
-0.00027400688731525483,0.456
-0.0003128160809856877,0.457
-6.562724457903721e-05,0.458
0.0006424561012632491,0.459
0.0018645553709831786,0.46
0.0035095488201645746,0.461
0.005340659625945916,0.462
0.007060670073896447,0.463
0.008446009183316184,0.464
0.009390254593026509,0.465
0.0097927116312033,0.466
0.009402700723983163,0.467
0.007805043894878488,0.468
0.0046632829892900044,0.469
0.00010115558684929606,0.47
-0.005117597908778154,0.471
-0.00980413870053107,0.472
-0.012810779433845974,0.473
-0.013489544973015175,0.474
-0.01193614499590903,0.475
-0.008901873462770202,0.476
-0.005420772045588664,0.477
-0.0023547851709640566,0.478
-7.834066945164444e-05,0.479
0.0015733335232578321,0.48
0.003113566366647615,0.481
0.005120195324458626,0.482
0.00799401368391585,0.483
0.011769092030226264,0.484
0.015955556705129176,0.485
0.019485183696377507,0.486
0.020889948723318008,0.487
0.01882521857137526,0.488
0.012819588095053248,0.489
0.0037365905369908417,0.49
-0.006496019592819536,0.491
-0.015686603071008783,0.492
-0.022127663099678226,0.493
-0.024933212806345986,0.494
-0.024009377510430894,0.495
-0.019900263785847968,0.496
-0.013639759309909882,0.497
-0.006555407224221333,0.498
1.1266247118341317e-05,0.499
0.004975833995913015,0.5
0.007680111094092954,0.501
0.007942019495593882,0.502
0.005994803722536263,0.503
0.002369021345278774,0.504
-0.0021781701169996254,0.505
-0.0066614256449768205,0.506
-0.009897051500797225,0.507
-0.010661740737875054,0.508
-0.00801562749042397,0.509
-0.0017216694671782148,0.51
0.007496988681369551,0.511
0.01806152616914297,0.512
0.027900025281880143,0.513
0.03487223855560882,0.514
0.03717613872837284,0.515
0.033769455262195686,0.516
0.024805931338931775,0.517
0.011834323706046345,0.518
-0.0025545054649076106,0.519
-0.015570926273020796,0.52
-0.02510170472871909,0.521
-0.03014521507900978,0.522
-0.03072193803133057,0.523
-0.027553254483773482,0.524
-0.021758174349131472,0.525
-0.01459481678703878,0.526
-0.007247301493308428,0.527
-0.000702848320141922,0.528
0.004305150120003969,0.529
0.0073655498769663414,0.53
0.008471473708091759,0.531
0.008023150906589926,0.532
0.006669953246635397,0.533
0.00504250932359015,0.534
0.0035407930285204304,0.535
0.002288796277678777,0.536
0.0012258125269482651,0.537
0.00024036021719887128,0.538
-0.0007255253660262915,0.539
-0.0016311868991996993,0.54
-0.0023515797591579413,0.541
-0.0027330949715475886,0.542
-0.0026590339946385958,0.543
-0.002087851298211841,0.544
-0.001048388008007457,0.545
0.0003888251957940202,0.546
0.00213587885738975,0.547
0.004086987341611152,0.548
0.0060855209778340365,0.549
0.007883322114296569,0.55
0.009139102363099378,0.551
0.009488077957009311,0.552
0.008675992229210443,0.553
0.006703571383030027,0.554
0.0039003701855921872,0.555
0.0008684783546097286,0.556
-0.0016965148471916429,0.557
-0.0032466359665043335,0.558
-0.0036119060347481976,0.559
-0.0031208038698451596,0.56
-0.002489408768535942,0.561
-0.0024703173319686237,0.562
-0.003464647396852057,0.563
-0.005344649309570719,0.564
-0.007549851083805132,0.565
-0.009345169438701001,0.566
-0.010101506100699008,0.567
-0.009498290668930159,0.568
-0.007579194430438413,0.569
-0.004665504922027351,0.57
-0.001214747400761366,0.571
0.002296745377503935,0.572
0.005443667275570969,0.573
0.007890232760130868,0.574
0.009430239272988772,0.575
0.010028387193347242,0.576
0.009813555631864779,0.577
0.008997681998014637,0.578
0.007774959098705433,0.579
0.0062718561246005115,0.58
0.004552242608012459,0.581
0.0026445183520700274,0.582
0.0005802028154865083,0.583
-0.0015626745866292218,0.584
-0.0036384949862054727,0.585
-0.0054429888536818025,0.586
-0.006745661938223191,0.587
-0.0073473837375271096,0.588
-0.007144812248277654,0.589
-0.006178361683057325,0.59
-0.004644520426685862,0.591
-0.002848847518789324,0.592
-0.0011164230586218678,0.593
0.00029830466180739014,0.594
0.001289410112110184,0.595
0.0019402368503119898,0.596
0.002471877815995836,0.597
0.003106847658148867,0.598
0.003947082569278028,0.599
0.0049453556069519455,0.6
0.00596140102033126,0.601
0.006852603154864795,0.602
0.0075313138912179774,0.603
0.007930854472063575,0.604
0.007897682648886127,0.605
0.0070863372092941825,0.606
0.004956961831862655,0.607
0.0009961317357817731,0.608
-0.0048327864293800215,0.609
-0.011689596408145488,0.61
-0.017909949119046295,0.611
-0.0216234895069526,0.612
-0.02157523675779892,0.613
-0.017607899545164844,0.614
-0.010587657410216157,0.615
-0.0019803029045469865,0.616
0.006617852328234694,0.617
0.013833182044501525,0.618
0.018718780253151535,0.619
0.020812059228508532,0.62
0.020093606764833762,0.621
0.016948629622958542,0.622
0.012150032296386759,0.623
0.006722805852686112,0.624
0.0016129648033806885,0.625
-0.0026415698889397797,0.626
-0.005969402138039319,0.627
-0.008523919944159688,0.628
-0.010373645416718546,0.629
-0.011386305488723164,0.63
-0.011359487911591706,0.631
-0.01024601257955065,0.632
-0.008287086750783624,0.633
-0.0059647559503755694,0.634
-0.003804862117328045,0.635
-0.0021333054481876574,0.636
-0.0009323011067201853,0.637
0.00010571028641500523,0.638
0.001396170772209332,0.639
0.003290498553917317,0.64
0.005938625068349271,0.641
0.009151494322359264,0.642
0.012319822436632627,0.643
0.01451220744128159,0.644
0.014798151165566115,0.645
0.012648570288073984,0.646
0.008165744687471183,0.647
0.0020469756609564588,0.648
-0.004631911977770856,0.649
-0.010698635714487129,0.65
-0.01512520192425679,0.651
-0.01717002481949588,0.652
-0.01645687012051781,0.653
-0.013020842369874067,0.654
-0.007317099496754153,0.655
-0.0002080451087046165,0.656
0.007107147479702336,0.657
0.013324963227722522,0.658
0.01740268624770764,0.659
0.018834311010767813,0.66
0.017675925187293235,0.661
0.014386170212928475,0.662
0.009642468138451649,0.663
0.004206774248110064,0.664
-0.0011843122010011097,0.665
-0.00593070808355143,0.666
-0.009657135479891369,0.667
-0.012229513208856155,0.668
-0.013689598649518452,0.669
-0.014163396275996557,0.67
-0.013793656509910964,0.671
-0.012697409742825766,0.672
-0.010943704591785664,0.673
-0.00857134983019789,0.674
-0.005649080966964224,0.675
-0.002328752400001162,0.676
0.0011557117158917246,0.677
0.00453572538211262,0.678
0.007551224279413436,0.679
0.009947344111276164,0.68
0.01144987877830238,0.681
0.011787719564086935,0.682
0.010776085535651878,0.683
0.008414487835241206,0.684
0.004960113317848766,0.685
0.0009574088271126796,0.686
-0.0028073990626454955,0.687
-0.005484404955693749,0.688
-0.006457258584411839,0.689
-0.005597373394584965,0.69
-0.00331089925450009,0.691
-0.0003701384782729322,0.692
0.0023612350540427934,0.693
0.0041899434520564546,0.694
0.0047703242152262685,0.695
0.004171277680143872,0.696
0.0028234361803014065,0.697
0.0013407019862897158,0.698
0.00026194812309777364,0.699
-0.00015087259873540525,0.7
5.099630411870541e-05,0.701
0.0005968117471994952,0.702
0.0011323237664109327,0.703
0.0013690738561005348,0.704
0.0012270524972258293,0.705
0.0008794296807100289,0.706
0.0006197748037268185,0.707
0.0006476587824405121,0.708
0.0009577702838044333,0.709
0.0013856298649468084,0.71
0.001734674643140185,0.711
0.001878694681538277,0.712
0.0017683814437355525,0.713
0.0013848893440098673,0.714
0.0007327229425634133,0.715
-0.00012431438392664605,0.716
-0.0010444113058055106,0.717
-0.0018407191416987575,0.718
-0.0023572107494389594,0.719
-0.0025503972832939224,0.72
-0.002527082132555206,0.721
-0.0025029191620609187,0.722
-0.0026984425821731076,0.723
-0.0032328194679664664,0.724
-0.004061413095840167,0.725
-0.004974427346137379,0.726
-0.005662204108433951,0.727
-0.005822554292885168,0.728
-0.005258028800049899,0.729
-0.00392947251300181,0.73
-0.001962971779723623,0.731
0.00037823623547513093,0.732
0.002743046739876188,0.733
0.004762445739783224,0.734
0.006135522491518986,0.735
0.006689606036368925,0.736
0.00638312648427984,0.737
0.005288884858423721,0.738
0.0035922073355813236,0.739
0.0015763626134943387,0.74
-0.0004177501060670623,0.741
-0.002038787994354935,0.742
-0.002985164568229603,0.743
-0.003077234811137185,0.744
-0.002300661027414408,0.745
-0.0007785609104754193,0.746
0.0013307597021723458,0.747
0.003946118362977237,0.748
0.00708619989732544,0.749
0.010753906100820262,0.75
0.014712877318202004,0.751
0.018246181709912702,0.752
0.020060881129511744,0.753
0.018563465179254907,0.754
0.012609916289328777,0.755
0.002406252028995023,0.756
-0.01014990096336421,0.757
-0.02207790287279841,0.758
-0.030478215515897456,0.759
-0.03357255731508563,0.76
-0.03119689087163612,0.761
-0.024606544487874752,0.762
-0.015745441760477322,0.763
-0.006433790733047521,0.764
0.00203717948780781,0.765
0.008822221256012949,0.766
0.013319983234591142,0.767
0.015196012856290584,0.768
0.014597907231659992,0.769
0.012235692617455343,0.77
0.00912704766014202,0.771
0.006188434919700621,0.772
0.003961079528220536,0.773
0.0025801853814692737,0.774
0.001922532259911429,0.775
0.001787893577580732,0.776
0.0019984359099144513,0.777
0.0024041639150285446,0.778
0.0028589160338306626,0.779
0.003219493910501513,0.78
0.0033557890580896985,0.781
0.003145104878204076,0.782
0.0024679515972622604,0.783
0.0012290905742238902,0.784
-0.0005883953648507476,0.785
-0.0028379565220032635,0.786
-0.005156659477280057,0.787
-0.007034055292324118,0.788
-0.007989775252643558,0.789
-0.007753253843595426,0.79
-0.006352894806996157,0.791
-0.004082645659963031,0.792
-0.0013842091705592884,0.793
0.0012746792382372393,0.794
0.003481002331504829,0.795
0.004932027212403543,0.796
0.005485922116852851,0.797
0.005199110392239368,0.798
0.0043263038838837285,0.799
0.0032605172962875428,0.8
0.002409037923865956,0.801
0.0020370566917447615,0.802
0.002156598277167536,0.803
0.0025331616542269594,0.804
0.002810257643587577,0.805
0.0026854962262235493,0.806
0.0020391243530978056,0.807
0.000952644467515736,0.808
-0.0003558286707280307,0.809
-0.0016218999969134363,0.81
-0.0026246576941121413,0.811
-0.0032654477356773913,0.812
-0.0036046606303512,0.813
-0.0038216261575280096,0.814
-0.004111345294729743,0.815
-0.004585169857485504,0.816
-0.005227103025835852,0.817
-0.005885039674467373,0.818
-0.006270439877135906,0.819
-0.006015071310648245,0.82
-0.004829181796424659,0.821
-0.0026838872882153403,0.822
0.00011645778370391588,0.823
0.0030266632434706453,0.824
0.005473452832808486,0.825
0.007069109959048345,0.826
0.007708121161949293,0.827
0.007532695153523123,0.828
0.006821196299441362,0.829
0.005862364080906222,0.83
0.0048716835270658605,0.831
0.003958109658690749,0.832
0.0031228548749259416,0.833
0.0022899732464826076,0.834
0.0013603862654788883,0.835
0.00026411184068214904,0.836
-0.0009974940699338975,0.837
-0.0023173680420941456,0.838
-0.0034789530591579384,0.839
-0.004208794519219935,0.84
-0.004273772712527555,0.841
-0.0035798234629418496,0.842
-0.0022165179479545776,0.843
-0.0004194162327599354,0.844
0.0015083994206036033,0.845
0.003253700526133815,0.846
0.00451898682671629,0.847
0.005048517455954786,0.848
0.00468921770058347,0.849
0.0034690750767829228,0.85
0.0016102066223934283,0.851
-0.0005507537172858676,0.852
-0.0026595636205633084,0.853
-0.004412025292679924,0.854
-0.005605184939313476,0.855
-0.006158051908263177,0.856
-0.006085460970680209,0.857
-0.005454234446333179,0.858
-0.004357212560850975,0.859
-0.0029116551132410138,0.86
-0.0012557125814050226,0.861
0.00047770799665732217,0.862
0.0021752091399912595,0.863
0.0037126217177803934,0.864
0.0049224460866418435,0.865
0.005617234944128099,0.866
0.005665931363948816,0.867
0.005066904836230892,0.868
0.00396307444029689,0.869
0.002589276005392215,0.87
0.0011827693580285354,0.871
-9.012003892900321e-05,0.872
-0.001147776827471593,0.873
-0.0019524077822147112,0.874
-0.002459277917453117,0.875
-0.002601344165045861,0.876
-0.002325366714000659,0.877
-0.0016466514606274778,0.878
-0.0006649317853834281,0.879
0.00047388545862769773,0.88
0.0016299140795891357,0.881
0.002687348504731418,0.882
0.0035330116130612666,0.883
0.0040382366974032555,0.884
0.0040751236990241935,0.885
0.003566359816109912,0.886
0.00255388748412625,0.887
0.001233558367244036,0.888
-9.389424180557672e-05,0.889
-0.0011233280676828123,0.89
-0.0016307309254969806,0.891
-0.001526675997759153,0.892
-0.0008947023700023622,0.893
4.1570108854565115e-06,0.894
0.0008131018411576097,0.895
0.0012293046963080783,0.896
0.001116526374922345,0.897
0.0005185275977456339,0.898
-0.00039590713711968575,0.899
-0.0014125489138337574,0.9
-0.002347669994954337,0.901
-0.0030885139996939034,0.902
-0.0035916787726271264,0.903
-0.0038651585961660146,0.904
-0.003947663093764361,0.905
-0.0038798580999119267,0.906
-0.0036734225352708675,0.907
-0.0032949778742199735,0.908
-0.002685277029157659,0.909
-0.001811824087171,0.91
-0.0007037433323640065,0.911
0.0005610574632250026,0.912
0.0018817745802119025,0.913
0.003142632425463606,0.914
0.00421186627270805,0.915
0.004959185453171861,0.916
0.005294979318435816,0.917
0.00519609383921011,0.918
0.004698561224911783,0.919
0.0038756991103613392,0.92
0.0028272772892182193,0.921
0.0016901687605620744,0.922
0.0006424310205425401,0.923
-0.00013682313425326877,0.924
-0.0005356279885604803,0.925
-0.0005473282837246024,0.926
-0.0002478670423261382,0.927
0.0002565776105790164,0.928
0.0008636364692699852,0.929
0.0014774575607766189,0.93
0.0019980187983607246,0.931
0.002316983122006322,0.932
0.002327839460481734,0.933
0.0019504043883149702,0.934
0.0011557697609132014,0.935
-2.1574799720418746e-05,0.936
-0.0014729866221152898,0.937
-0.0029910943628848317,0.938
-0.004248558175081561,0.939
-0.004847940034584234,0.94
-0.004490532428051709,0.941
-0.0031702335925999883,0.942
-0.001220259413799856,0.943
0.000830989363048441,0.944
0.002476798129851739,0.945
0.003392321267568356,0.946
0.003495845282657885,0.947
0.002926530512445456,0.948
0.0019539894587226265,0.949
0.0008541464717660512,0.95
-0.00018227734121440385,0.951
-0.0010726479463461724,0.952
-0.00181113734867156,0.953
-0.0024217499286389938,0.954
-0.0029202637900671183,0.955
-0.0032846235398100356,0.956
-0.0034486293266977703,0.957
-0.0033271569390911403,0.958
-0.0028540485996953247,0.959
-0.0020209343939393124,0.96
-0.0009002063800234815,0.961
0.0003609477089867727,0.962
0.0015682527573532027,0.963
0.002530820406580618,0.964
0.003114407076837936,0.965
0.0032580307390058503,0.966
0.0029728704866877668,0.967
0.0023647863063078933,0.968
0.001655745044285614,0.969
0.0011459924536032194,0.97
0.0011139870493662345,0.971
0.0017172840278316236,0.972
0.0029415419167650755,0.973
0.004585354641128691,0.974
0.006269324161444635,0.975
0.0074997344240839954,0.976
0.007805875279726234,0.977
0.006901617668886716,0.978
0.004797357229021589,0.979
0.001825143167561512,0.98
-0.001447736681442541,0.981
-0.004407492095452487,0.982
-0.006591053265748607,0.983
-0.007794993013351743,0.984
-0.008071461473086126,0.985
-0.007644323548129906,0.986
-0.0068092464102970434,0.987
-0.005849520641732965,0.988
-0.004956453163171416,0.989
-0.004167690263786874,0.99
-0.0033682153575531073,0.991
-0.002370492619936451,0.992
-0.001034642054630826,0.993
0.0006331481592995658,0.994
0.002452558539491368,0.995
0.004129177620233596,0.996
0.005373132630297037,0.997
0.006003809006090974,0.998
0.005980468144182021,0.999
0.005372858888571589,1.0
0.004326562345827839,1.001
0.0030365668457744154,1.002
0.0017090019233251446,1.003
0.000517505637659789,1.004
-0.0004192662602458462,1.005
-0.0010351074927340284,1.006
-0.001309013387281511,1.007
-0.0012639268323799452,1.008
-0.000955946103710905,1.009
-0.00045393917947866163,1.01
0.00016555977352120137,1.011
0.0008106961879714897,1.012
0.0013757944093772587,1.013
0.0017556101535106125,1.014
0.0018652500519618052,1.015
0.0016587518851473022,1.016
0.0011420209102161517,1.017
0.0003788892138713713,1.018
-0.0005155567937304197,1.019
-0.0013982656682031106,1.02
-0.0021287486709826112,1.021
-0.002591059651100936,1.022
-0.002705330541346366,1.023
-0.002443802280654209,1.024
-0.001846260470421305,1.025
-0.0010102867562952066,1.026
-6.429019078542787e-05,1.027
0.0008491727272520305,1.028
0.0015924279335566309,1.029
0.002075818095266268,1.03
0.0022882213382929982,1.031
0.0022786918723260146,1.032
0.0021215013511905437,1.033
0.0018965494890234775,1.034
0.0016708020662803257,1.035
0.0014730877550348355,1.036
0.0012842301974861632,1.037
0.0010592095140982837,1.038
0.0007614168416675988,1.039
0.0003789241422611672,1.04
-7.024278488719266e-05,1.041
-0.000532888184243234,1.042
-0.0009329318575846678,1.043
-0.0012022225896169314,1.044
-0.0013046552555846373,1.045
-0.0012438753018418494,1.046
-0.0010604793068392173,1.047
-0.0008130344081015286,1.048
-0.0005475043856264307,1.049
-0.0002872443523430319,1.05
-5.3191983377636224e-05,1.051
0.0001178881910089471,1.052
0.00017880073074212,1.053
9.391639173378973e-05,1.054
-0.00012579724219098144,1.055
-0.00039562420941379394,1.056
-0.0005840559642514157,1.057
-0.0005802044266160323,1.058
-0.0003375124942375815,1.059
0.00012489583880351648,1.06
0.0007435569625874947,1.061
0.0014331389704302176,1.062
0.0020944470661983378,1.063
0.002616296958407364,1.064
0.0028858177073218796,1.065
0.0028070717654596687,1.066
0.002335319672608756,1.067
0.0015230976528888798,1.068
0.0005318719844907594,1.069
-0.0004183396607421437,1.07
-0.0011286768155675374,1.071
-0.001484475743218987,1.072
-0.0014742617705902623,1.073
-0.0011643712048552603,1.074
-0.0006563354540385914,1.075
-5.792145215147788e-05,1.076
0.0005247357589367803,1.077
0.0009970269812677557,1.078
0.001296615336012916,1.079
0.001398376181382682,1.08
0.0013022497039774893,1.081
0.0010239931420672793,1.082
0.0005872491470342875,1.083
2.379897755275148e-05,1.084
-0.0006112157462913521,1.085
-0.001228184860570889,1.086
-0.0017143338730256728,1.087
-0.001967999021523707,1.088
-0.001935595275866849,1.089
-0.0016258073336387923,1.09
-0.001096338175673142,1.091
-0.00042786078343531235,1.092
0.0002973820349980298,1.093
0.0010051289176734694,1.094
0.0016328854120851457,1.095
0.0021314281196610696,1.096
0.0024614273772925336,1.097
0.002592706808357975,1.098
0.0025088186747868157,1.099
0.002207825442438069,1.1
0.0017013126692712165,1.101
0.0010174145410303086,1.102
0.0002087204632455393,1.103
-0.0006362336685182301,1.104
-0.0013915013440242482,1.105
-0.0019154541366121387,1.106
-0.00208966031982727,1.107
-0.0018615958505941044,1.108
-0.001276848029703743,1.109
-0.0004767754846591725,1.11
0.00035051205535382583,1.111
0.0010408523140088026,1.112
0.0015013555274366484,1.113
0.001709942413764157,1.114
0.0016875965500537451,1.115
0.0014752252883723513,1.116
0.001122486190641639,1.117
0.0006834439139928129,1.118
0.0002151888911365661,1.119
-0.00021951852421241066,1.12
-0.0005495929694916141,1.121
-0.0007125351727612472,1.122
-0.0006939222656092308,1.123
-0.0005462597344086046,1.124
-0.00035459843148273433,1.125
-0.000185168047940009,1.126
-6.381751628879067e-05,1.127
2.0533395093665346e-05,1.128
0.0001045554516646068,1.129
0.00022488913713835935,1.13
0.0003876746306412704,1.131
0.0005660739465040675,1.132
0.000723767968347743,1.133
0.0008325668353634776,1.134
0.0008773803526042495,1.135
0.0008637921801329204,1.136
0.0008216468168574827,1.137
0.0007812133969574966,1.138
0.0007435966134161531,1.139
0.0006889944066764632,1.14
0.0006110301508021451,1.141
0.0005292242098467997,1.142
0.0004650721952916333,1.143
0.0004216131851059073,1.144
0.0003917113387615172,1.145
0.0003694183698325033,1.146
0.00034873333637567324,1.147
0.000314762722982841,1.148
0.00023559735543632608,1.149
7.48321926102763e-05,1.15
-0.0001768853306681779,1.151
-0.0004862304514410377,1.152
-0.0007959171198093983,1.153
-0.0010554084493106073,1.154
-0.0012324738182605977,1.155
-0.0013032241763807637,1.156
-0.0012380468056535092,1.157
-0.001000618427575198,1.158
-0.0005664688855363496,1.159
5.497133634971158e-05,1.16
0.0008111030334260479,1.161
0.0016114566231580792,1.162
0.00234369338581011,1.163
0.0028891758307381154,1.164
0.003135793054516627,1.165
0.0029992799591966155,1.166
0.0024524609182940763,1.167
0.0015476134601152716,1.168
0.00041919526133922893,1.169
-0.0007351775748293421,1.17
-0.001692055087564669,1.171
-0.0022601176477748306,1.172
-0.002348118114290046,1.173
-0.0019994356758023875,1.174
-0.0013637631172530498,1.175
-0.0006296680751773054,1.176
4.670826123209679e-05,1.177
0.0005902228808611043,1.178
0.0010015859277872038,1.179
0.001308235718144804,1.18
0.0015268875048657297,1.181
0.0016545117670892727,1.182
0.001662813009856122,1.183
0.0015053230461226593,1.184
0.0011532091989286397,1.185
0.0006256918706980858,1.186
-1.3939240526753222e-05,1.187
-0.0006777328680725085,1.188
-0.0012655906408846028,1.189
-0.001675678852615466,1.19
-0.0018229726726696513,1.191
-0.0016579489443144576,1.192
-0.0011816614820394848,1.193
-0.0004613329625008754,1.194
0.0003731498936459861,1.195
0.0011663824613778154,1.196
0.0017846996295216504,1.197
0.0021388589531267203,1.198
0.0021781675761751037,1.199
0.0018917810993896288,1.2
0.0013348821517285823,1.201
0.0006420993301443031,1.202
-9.552080057867256e-06,1.203
-0.0004701491358847167,1.204
-0.0006679433994505895,1.205
-0.0006141967389695163,1.206
-0.00037371842461387313,1.207
-2.5282467430487498e-05,1.208
0.00037270037040750676,1.209
0.000792249618835433,1.21
0.0012107074802154903,1.211
0.0015782349495319912,1.212
0.0018189999799537431,1.213
0.0018653628220371664,1.214
0.0016860091707665424,1.215
0.0012851013096107692,1.216
0.0006837164979392335,1.217
-9.099138015914788e-05,1.218
-0.0009972027732978337,1.219
-0.001963252921638279,1.22
-0.0028782730824390354,1.221
-0.0035991947033235613,1.222
-0.0039860303167418626,1.223
-0.003948561929283061,1.224
-0.0034703620172797556,1.225
-0.00259856686302654,1.226
-0.001413534752132844,1.227
-2.948333900306397e-06,1.228
0.0015452800159696319,1.229
0.003133292081247902,1.23
0.004636366739403479,1.231
0.005894362143588969,1.232
0.006719349638396613,1.233
0.006924614877174603,1.234
0.00638308631904474,1.235
0.00508874056768424,1.236
0.003183176598550108,1.237
0.0009427231392100666,1.238
-0.0012766977799025842,1.239
-0.0031322974587273678,1.24
-0.004377917006481765,1.241
-0.004894667442410729,1.242
-0.004683257896978061,1.243
-0.0038555324223938413,1.244
-0.002622108102875569,1.245
-0.0012481091418900954,1.246
1.531289716228464e-05,1.247
0.0009837872819496852,1.248
0.0015563462840595056,1.249
0.0017080635718618267,1.25
0.0014817701633519109,1.251
0.0009844323311307508,1.252
0.0003709617606684595,1.253
-0.0001949627845218085,1.254
-0.0005880453177754986,1.255
-0.0007530276046752948,1.256
-0.0007097001544810751,1.257
-0.0005300504317076822,1.258
-0.00029884037041269756,1.259
-7.953811650753369e-05,1.26
0.00010081549902714456,1.261
0.00024618588029039445,1.262
0.0003744276944796939,1.263
0.000498539748611728,1.264
0.0006107027337030828,1.265
0.0006819916792985339,1.266
0.0006858326775447646,1.267
0.0006203581430471324,1.268
0.0005022978797613176,1.269
0.0003504555446434387,1.27
0.0001889971827659516,1.271
5.9517497122519886e-05,1.272
1.8112385994617134e-05,1.273
0.000115985484112646,1.274
0.0003770479593977891,1.275
0.0007943346477193792,1.276
0.0013428536070630207,1.277
0.001978743438831139,1.278
0.002631474121864076,1.279
0.003213029646134564,1.28
0.003627181958267279,1.281
0.00377530535546198,1.282
0.0035830102345388542,1.283
0.0030327145770256384,1.284
0.0021728363428771846,1.285
0.0011057369664312939,1.286
-3.569011068790264e-05,1.287
-0.0011185702219778677,1.288
-0.0020447318365319485,1.289
-0.002773459729267114,1.29
-0.003310560809963596,1.291
-0.0036773278632521705,1.292
-0.0038867953798204817,1.293
-0.003933874820213125,1.294
-0.0038026937624663143,1.295
-0.0034856208863816764,1.296
-0.0029928215155098524,1.297
-0.002348102704859061,1.298
-0.0015923284283290632,1.299
-0.0007958774865680505,1.3
-5.3374449172547106e-05,1.301
0.0005432124427534003,1.302
0.0009373947745749753,1.303
0.0011417535389117036,1.304
0.0012549083024180462,1.305
0.0014307862309359395,1.306
0.0018023104618719904,1.307
0.002402673156211581,1.308
0.0031351918873698116,1.309
0.00381491971197324,1.31
0.0042504098359567154,1.311
0.004313774927307763,1.312
0.0039726445772886405,1.313
0.003277273976264589,1.314
0.002317434900105718,1.315
0.0011885450725565942,1.316
-1.4471151745902577e-06,1.317
-0.0011080644317053314,1.318
-0.0019696441384319512,1.319
-0.002468167505090384,1.32
-0.0025687848437824256,1.321
-0.002319603697010656,1.322
-0.0018272240568933647,1.323
-0.0012089021247735391,1.324
-0.000547107513489259,1.325
0.00011575899043515125,1.326
0.0007507922804843519,1.327
0.001326007281148078,1.328
0.0018199355107099044,1.329
0.0022327586059380047,1.33
0.0025614338756473547,1.331
0.002764416071781396,1.332
0.002762754025796288,1.333
0.0024871028074804485,1.334
0.001933033283887383,1.335
0.0011750704147464684,1.336
0.00033165491995510907,1.337
-0.0004831026939997368,1.338
-0.0011890373293795484,1.339
-0.0017470367820686793,1.34
-0.0021520252706937856,1.341
-0.0024182870166431013,1.342
-0.0025614736929176047,1.343
-0.0025849461266631737,1.344
-0.0024790581599277383,1.345
-0.0022350204966356062,1.346
-0.00186954446336766,1.347
-0.001440517734197136,1.348
-0.0010293132369725527,1.349
-0.0007006488344406326,1.35
-0.00047335357063606285,1.351
-0.00031996257371434635,1.352
-0.00019013526843126162,1.353
-3.798185416085476e-05,1.354
0.00016234140223224885,1.355
0.00041098354427934194,1.356
0.0006855019123648406,1.357
0.000963293267182931,1.358
0.0012506100368917619,1.359
0.0015824522865612095,1.36
0.0019903917177974254,1.361
0.0024737741016659354,1.362
0.0030016400131963735,1.363
0.003529563252404757,1.364
0.0039965852054710364,1.365
0.0043094615051775375,1.366
0.00435356402058403,1.367
0.004033020999929249,1.368
0.0033064733164963347,1.369
0.0022048039962882294,1.37
0.0008369781090249176,1.371
-0.0006197994020336725,1.372
-0.0019506384441959701,1.373
-0.00294793530609851,1.374
-0.003465086312523846,1.375
-0.00346251832039553,1.376
-0.0030123983072400024,1.377
-0.002259502812529178,1.378
-0.0013693223559863867,1.379
-0.0004905791285361762,1.38
0.00025489969025755456,1.381
0.0007684946094263946,1.382
0.0009764626492588211,1.383
0.0008408651683698359,1.384
0.00037342777767141377,1.385
-0.00035922770605153163,1.386
-0.0012332381232232686,1.387
-0.0020707979208072057,1.388
-0.002675453035961017,1.389
-0.002890639304917527,1.39
-0.0026392842662432705,1.391
-0.0019307067494583104,1.392
-0.0008538367310671585,1.393
0.0004389795446674107,1.394
0.0017644339151611324,1.395
0.002942659625301279,1.396
0.0038233145684830284,1.397
0.004309522460490741,1.398
0.004373888563815306,1.399
0.004056586061307494,1.4
0.0034495276715540016,1.401
0.00267238246635133,1.402
0.0018454931697192882,1.403
0.0010677990693174339,1.404
0.0004044626289438439,1.405
-0.0001162881547074447,1.406
-0.0005033696816924545,1.407
-0.00080311231706282,1.408
-0.0010892103327700695,1.409
-0.0014304363073927955,1.41
-0.0018463739295646845,1.411
-0.0022863521336135744,1.412
-0.002652805083891558,1.413
-0.0028476151998292915,1.414
-0.0028077116744422916,1.415
-0.002518743897336402,1.416
-0.0020107737883916445,1.417
-0.001343256699023508,1.418
-0.0005890015614537483,1.419
0.00018318106656014325,1.42
0.0009295440032380555,1.421
0.0016388978789644267,1.422
0.002317609980571925,1.423
0.002971968498298362,1.424
0.0035959210916024897,1.425
0.004151887640405732,1.426
0.004557485655296927,1.427
0.004710073406266086,1.428
0.0045412309157705,1.429
0.004052059122353931,1.43
0.0033005795316832297,1.431
0.0023617312520555892,1.432
0.0012981430582073325,1.433
0.00015746882337738718,1.434
-0.0010169120449348558,1.435
-0.0021732042664673094,1.436
-0.003237903091590511,1.437
-0.0041144703753435525,1.438
-0.0047029193232138375,1.439
-0.004933333726097585,1.44
-0.004791301029140772,1.441
-0.004308919641215266,1.442
-0.0035376724362514264,1.443
-0.002538325345266027,1.444
-0.001383921155001641,1.445
-0.000168073505547737,1.446
0.0009777935005090164,1.447
0.0018870432723019216,1.448
0.002410573253990317,1.449
0.0024884511370641556,1.45
0.002180819884455363,1.451
0.001635533756832681,1.452
0.0010215778879912498,1.453
0.0004780546028947872,1.454
9.591080197829751e-05,1.455
-7.79465331670259e-05,1.456
-2.60873100932531e-05,1.457
0.0002442110594763112,1.458
0.000695420826309464,1.459
0.0012611703118238916,1.46
0.0018586061587687612,1.461
0.0024198607818276077,1.462
0.002924987080217341,1.463
0.003381281147868115,1.464
0.0037577639898232294,1.465
0.003953703008185475,1.466
0.0038329861222685586,1.467
0.0032884067900860784,1.468
0.0023008988109686065,1.469
0.0009758156147284579,1.47
-0.0004677882392654177,1.471
-0.0017695002529214978,1.472
-0.0027275035369134213,1.473
-0.0032577970449150185,1.474
-0.0033864853677559193,1.475
-0.0032051521519054307,1.476
-0.002819675845243449,1.477
-0.0023149991316993917,1.478
-0.0017473473364690317,1.479
-0.0011534801439534283,1.48
-0.0005686960011068404,1.481
-4.801204280656737e-05,1.482
0.0003286416808095451,1.483
0.00047968428172158375,1.484
0.00036080407510124456,1.485
1.530879074940466e-06,1.486
-0.0004861058373312755,1.487
-0.0009481759036999517,1.488
-0.0012471055115050155,1.489
-0.0012903997729759717,1.49
-0.0010318868193498107,1.491
-0.00047738513244146143,1.492
0.0003042418177855346,1.493
0.001193254051255705,1.494
0.002053081315228085,1.495
0.002768031939496209,1.496
0.0032705901895455055,1.497
0.003538738775897414,1.498
0.0035738430152701156,1.499
0.0033833274903955516,1.5
0.002972587409181269,1.501
0.0023540505070029382,1.502
0.0015732016799069495,1.503
0.0007245144341314084,1.504
-6.952339440195027e-05,1.505
-0.0007104203030550129,1.506
-0.0011628838963041281,1.507
-0.0014486573388254615,1.508
-0.0016134185172771574,1.509
-0.0016923844290443728,1.51
-0.001685729464964637,1.511
-0.0015592668095076837,1.512
-0.0012696990780631896,1.513
-0.0007985103527861289,1.514
-0.00018267003176412547,1.515
0.0004767379075095911,1.516
0.001042781552379557,1.517
0.0013947890722093722,1.518
0.0014779533000994815,1.519
0.0013253317154371734,1.52
0.001033976931253869,1.521
0.0007083014623917613,1.522
0.00041152549284432637,1.523
0.0001535240731628331,1.524
-8.524032849424064e-05,1.525
-0.00031106599113950274,1.526
-0.0004841952664239791,1.527
-0.0005270669984929782,1.528
-0.00037687767470886264,1.529
-4.023604662104505e-05,1.53
0.000393816051096363,1.531
0.0007849102497198734,1.532
0.0009981782670165568,1.533
0.000960018737147185,1.534
0.0006780514135744902,1.535
0.00022030618510200764,1.536
-0.00031531907429167686,1.537
-0.0008231985010061076,1.538
-0.0012077008755361019,1.539
-0.0013962871680241432,1.54
-0.0013480136673833625,1.541
-0.0010588943228592939,1.542
-0.0005610688741244284,1.543
8.320312103870221e-05,1.544
0.0007908635454268125,1.545
0.0014701716521102123,1.546
0.0020295370272724665,1.547
0.002378273641924839,1.548
0.002433904867681779,1.549
0.002150964208793429,1.55
0.001549451300783725,1.551
0.0007167272300604377,1.552
-0.000209532032088312,1.553
-0.0010625159434511015,1.554
-0.0016754530065347189,1.555
-0.0019276002986837394,1.556
-0.001785163107315697,1.557
-0.0012974425203060454,1.558
-0.0005586463360365775,1.559
0.0003176535834907754,1.56
0.0012131126240121398,1.561
0.002029035587908888,1.562
0.0026922379320770636,1.563
0.00313166945810604,1.564
0.0032674435513965717,1.565
0.003031216026354696,1.566
0.0023980110273549658,1.567
0.0014091263895090697,1.568
0.00018057984482324076,1.569
-0.0011022083676575814,1.57
-0.002214354542034174,1.571
-0.0029504829176665026,1.572
-0.0031845562196110336,1.573
-0.0029004676720209917,1.574
-0.0021843189653993128,1.575
-0.0011858860548452522,1.576
-7.26130014555835e-05,1.577
0.001004424803715256,1.578
0.0019234385402317356,1.579
0.002587477487550288,1.58
0.002916652159341219,1.581
0.0028465600720071847,1.582
0.002349880561074123,1.583
0.0014768965919727968,1.584
0.0003681858829368784,1.585
-0.0007767797379861671,1.586
-0.0017436689566817532,1.587
-0.0023476530571867786,1.588
-0.002478392521317452,1.589
-0.002124978243053147,1.59
-0.0013707300422518267,1.591
-0.000371509235235828,1.592
0.000673501022512204,1.593
0.0015615973528809667,1.594
0.002132020520408824,1.595
0.0022974280299098418,1.596
0.0020507335210063933,1.597
0.0014581399553675344,1.598
0.0006445631134902845,1.599
-0.00023585919903570832,1.6
-0.00103366125644219,1.601
-0.0016285228073674722,1.602
-0.0019521401343788845,1.603
-0.002000911442657532,1.604
-0.0018176094006241415,1.605
-0.001448904437401738,1.606
-0.0009092453121260997,1.607
-0.00019286095386620287,1.608
0.0006704670382364668,1.609
0.0015902573538306478,1.61
0.0024485088136243956,1.611
0.003137638484630408,1.612
0.00357266343269716,1.613
0.0036951616179108086,1.614
0.0034861661254708236,1.615
0.00297866798704653,1.616
0.0022461540603516935,1.617
0.001376062810854015,1.618
0.0004620641568856909,1.619
-0.0003937814214934406,1.62
-0.0010981798943030543,1.621
-0.001588562620709689,1.622
-0.001832127397384835,1.623
-0.0018081845885408597,1.624
-0.0015134539427714335,1.625
-0.0010052023515780798,1.626
-0.0004221230144393999,1.627
7.077231534275354e-05,1.628
0.0003697441532735198,1.629
0.0004686022230178074,1.63
0.00042570021140104575,1.631
0.00031084666643752435,1.632
0.00016901953023001047,1.633
7.363926438623547e-06,1.634
-0.00018859283156455779,1.635
-0.00042077130093635755,1.636
-0.0006580542879623463,1.637
-0.0008405796274476644,1.638
-0.0009011364896146567,1.639
-0.0007972387563906219,1.64
-0.0005342948370191615,1.641
-0.00016466179713372857,1.642
0.00022824226613499013,1.643
0.0005573490983876322,1.644
0.0007662333874570761,1.645
0.0008493299615428307,1.646
0.0008483231883182746,1.647
0.0008255551089114838,1.648
0.0008286350436246296,1.649
0.0008752244070379213,1.65
0.0009594348060734896,1.651
0.0010545561854709068,1.652
0.0011082182122950312,1.653
0.0010594399814373217,1.654
0.0008834191943955399,1.655
0.0006149964071833962,1.656
0.00032824678216804027,1.657
0.00010461528024895318,1.658
4.191174632068261e-06,1.659
4.354057377202041e-05,1.66
0.00019985415528851652,1.661
0.00043135015444070366,1.662
0.0006880288022821484,1.663
0.0009141638039669277,1.664
0.0010454256092967322,1.665
0.0010145037850415545,1.666
0.0007863471591781105,1.667
0.00039206921160925094,1.668
-8.054966980320717e-05,1.669
-0.0005293114141380504,1.67
-0.0008785065694547968,1.671
-0.0010941686642646923,1.672
-0.0011705714706768283,1.673
-0.0011067878464278598,1.674
-0.0008973290201126999,1.675
-0.0005456915771089999,1.676
-8.219436586056239e-05,1.677
0.0004362752816695853,1.678
0.0009404995185414017,1.679
0.0013592892229581498,1.68
0.0016217934787478077,1.681
0.001663408421654604,1.682
0.0014431765723413531,1.683
0.0009670950982111787,1.684
0.0003038277571201125,1.685
-0.0004210783382330956,1.686
-0.0010531598622741428,1.687
-0.0014471318877639287,1.688
-0.0015053912263649546,1.689
-0.001201823432888441,1.69
-0.0005777555424700804,1.691
0.0002740210104758199,1.692
0.001218869453021239,1.693
0.0020918484147788205,1.694
0.002721011344347053,1.695
0.0029604933298804656,1.696
0.0027292399478789143,1.697
0.002039504797202932,1.698
0.000996064345994574,1.699
-0.00022475099627508057,1.7
-0.001399136205974569,1.701
-0.002292468379048892,1.702
-0.0027227465082070366,1.703
-0.0026294948011603724,1.704
-0.002099126153286746,1.705
-0.0013198125077150701,1.706
-0.0004911593283931904,1.707
0.0002484147789086388,1.708
0.0008358066309839753,1.709
0.0012572146870603678,1.71
0.0015181669411594434,1.711
0.001626544427563872,1.712
0.0015889805686400789,1.713
0.001416713123849864,1.714
0.0011420687749908779,1.715
0.0008286639457341293,1.716
0.0005443113521834334,1.717
0.00032002992780383305,1.718
0.00015392733879056704,1.719
4.5512167318348054e-05,1.72
3.538481599167859e-06,1.721
3.468715713576698e-05,1.722
0.00014420042710423952,1.723
0.00033812658264004386,1.724
0.0006088681666033245,1.725
0.0009138349060809815,1.726
0.001178634856533353,1.727
0.0013356375265039938,1.728
0.0013609967388465202,1.729
0.0012677783400463689,1.73
0.001067652511385043,1.731
0.0007564085117339258,1.732
0.00034235943809974114,1.733
-0.00012424040143913575,1.734
-0.0005604587811339239,1.735
-0.0008929404242854251,1.736
-0.0010969295902686486,1.737
-0.0011989238956598945,1.738
-0.0012460505707646142,1.739
-0.001272159350492113,1.74
-0.0012805768263638778,1.741
-0.0012496312709317256,1.742
-0.0011475368717426791,1.743
-0.0009373801085382395,1.744
-0.0005843574530414144,1.745
-7.81475387968931e-05,1.746
0.0005397906008889021,1.747
0.0011624918884864492,1.748
0.0016440935090226262,1.749
0.0018610018269917834,1.75
0.0017593751609493611,1.751
0.0013666413738773345,1.752
0.000783833655955623,1.753
0.000164383730789026,1.754
-0.00032959749367540583,1.755
-0.0005784083475272268,1.756
-0.000532440874609994,1.757
-0.00021419909482485135,1.758
0.0002866753326243331,1.759
0.0008311524460289341,1.76
0.0012815166636450616,1.761
0.0015617324113665252,1.762
0.001672177045485175,1.763
0.0016575162698659928,1.764
0.001577760980823041,1.765
0.0014952860298832527,1.766
0.0014533863627295245,1.767
0.0014426092732766687,1.768
0.0013825609617660502,1.769
0.0011465275101204438,1.77
0.0006254084995807695,1.771
-0.00019845062570740828,1.772
-0.0012107014095069763,1.773
-0.0021935189289644373,1.774
-0.0029123829382969616,1.775
-0.0031988698712639963,1.776
-0.002981323143926748,1.777
-0.0022789369173267437,1.778
-0.0011889260750012481,1.779
0.00012487687866877907,1.78
0.0014427154608944166,1.781
0.002517230699692437,1.782
0.0031342647568353833,1.783
0.0031828656813261066,1.784
0.002690934376858258,1.785
0.0018014938160787596,1.786
0.0007080657349818513,1.787
-0.0003971169343921136,1.788
-0.001338224094911434,1.789
-0.001971369857619558,1.79
-0.0022174607218726798,1.791
-0.002074081954447864,1.792
-0.0015950612943707375,1.793
-0.0008719348650127573,1.794
-2.856527679901674e-05,1.795
0.0007939901791607561,1.796
0.0014678145293244749,1.797
0.0019011281811768784,1.798
0.0020469587065202154,1.799
0.001909716889320747,1.8
0.0015470094059823968,1.801
0.0010562498286887435,1.802
0.0005503443546356746,1.803
0.00013327857623686526,1.804
-0.00012269614541785218,1.805
-0.00019270119202758316,1.806
-9.4243973942184e-05,1.807
0.00012996234782584719,1.808
0.0004262093190558759,1.809
0.0007432666520947055,1.81
0.0010387154762887007,1.811
0.001271904576093465,1.812
0.0013979157797233215,1.813
0.0013705329755802102,1.814
0.0011538467972831271,1.815
0.0007456805131838407,1.816
0.00020091123603957288,1.817
-0.0003688049250014021,1.818
-0.0008337102954810088,1.819
-0.001111214192499225,1.82
-0.0012089034708621348,1.821
-0.0012020618113572938,1.822
-0.001160978727348709,1.823
-0.0010892692831838877,1.824
-0.0009262909708414527,1.825
-0.0006147259600907707,1.826
-0.00017216451840983767,1.827
0.0003030580495464275,1.828
0.0006941868223604827,1.829
0.0009315583010127058,1.83
0.0010040801172643567,1.831
0.000932825557781248,1.832
0.0007549759420516087,1.833
0.000517795297026033,1.834
0.0002665975282324574,1.835
4.3808160121504676e-05,1.836
-9.916648963471415e-05,1.837
-0.00010913856616990105,1.838
4.1034305962599725e-05,1.839
0.00033466428072226735,1.84
0.0007113224490087452,1.841
0.001078822741943681,1.842
0.0013425649040960156,1.843
0.001449023860561299,1.844
0.0014083691422065439,1.845
0.0012680575131020582,1.846
0.0010725077332883696,1.847
0.0008522549501117576,1.848
0.0006284729198877406,1.849
0.00041034829215118865,1.85
0.0001915560525419011,1.851
-4.406330824399831e-05,1.852
-0.00031196544157188397,1.853
-0.0006188816949960357,1.854
-0.0009472630846226606,1.855
-0.0012327249747080518,1.856
-0.0013686996731297574,1.857
-0.0012579609535703531,1.858
-0.0008802401985719817,1.859
-0.0003165853288705202,1.86
0.0002968454094597259,1.861
0.0008410240631786864,1.862
0.001253759964137186,1.863
0.0015226140417162254,1.864
0.001647850661266923,1.865
0.0016117953241014402,1.866
0.0013828132216918763,1.867
0.000942581817803807,1.868
0.00031141272775818586,1.869
-0.0004385261258626666,1.87
-0.0011845043835956017,1.871
-0.0017746432957436932,1.872
-0.002069550608733667,1.873
-0.001989919487745937,1.874
-0.0015431066660113592,1.875
-0.0008090116707099511,1.876
9.546235240289315e-05,1.877
0.0010419589277933091,1.878
0.0019060205439018364,1.879
0.0025804762825357274,1.88
0.002988145055067599,1.881
0.003094721208738996,1.882
0.0029080694266230825,1.883
0.0024570997616346606,1.884
0.0017779197768332086,1.885
0.0009221381622639525,1.886
-2.993302290728257e-05,1.887
-0.0009553093618233903,1.888
-0.0016899837891513414,1.889
-0.002084094868586483,1.89
-0.0020842469955039346,1.891
-0.001763220287585702,1.892
-0.0012753695159347812,1.893
-0.0007839197143960232,1.894
-0.00039692243838855047,1.895
-0.000135587929029835,1.896
4.186804094235153e-05,1.897
0.0001878724761211873,1.898
0.0003348083742446248,1.899
0.0004898100001350617,1.9
0.0006433048467259553,1.901
0.0007898402085476228,1.902
0.0009399529253467768,1.903
0.0011045390757587535,1.904
0.0012725997606054368,1.905
0.001412943488701438,1.906
0.0014981974574366994,1.907
0.0015231266270342662,1.908
0.0014967240845104564,1.909
0.0014241898578734144,1.91
0.0013117559995363104,1.911
0.0011810316817067543,1.912
0.0010519343386411247,1.913
0.0009069117668357812,1.914
0.0006876328843812609,1.915
0.00033462958722661637,1.916
-0.00016999527635634584,1.917
-0.0007884808164382243,1.918
-0.001439223910015984,1.919
-0.0020198365023105895,1.92
-0.00242775274419517,1.921
-0.002576550983176371,1.922
-0.002415757519496963,1.923
-0.0019501738238120064,1.924
-0.001248451722956053,1.925
-0.00043065894157934086,1.926
0.0003691354762260385,1.927
0.0010430031681645515,1.928
0.0015265585100607852,1.929
0.001792990308660093,1.93
0.0018378170154126437,1.931
0.0016736368613526984,1.932
0.0013353469301921254,1.933
0.0008782313115965895,1.934
0.0003706211339416563,1.935
-0.00011249595146149873,1.936
-0.0004985704343516303,1.937
-0.0007215704806307897,1.938
-0.0007207070909558645,1.939
-0.0004549496453279913,1.94
6.37095572816837e-05,1.941
0.0007480182031078052,1.942
0.0014540350832316163,1.943
0.0020363561180930874,1.944
0.002396753275478815,1.945
0.002494772772144158,1.946
0.0023324224006708873,1.947
0.0019346916165532166,1.948
0.0013410242676893253,1.949
0.0006107376585712115,1.95
-0.00016908374282712912,1.951
-0.000881131648855939,1.952
-0.0013963607615160517,1.953
-0.0016223400324768323,1.954
-0.0015467964613285236,1.955
-0.0012393304694649542,1.956
-0.0008131914023501804,1.957
-0.00037253127374492565,1.958
1.8074887376309996e-05,1.959
0.0003260387901420787,1.96
0.0005320359440735565,1.961
0.0006283275636767486,1.962
0.000631619807605979,1.963
0.0005878869027432119,1.964
0.0005551931184934534,1.965
0.0005777599404678983,1.966
0.0006686532511375035,1.967
0.000803828581307907,1.968
0.0009336366977842137,1.969
0.0010145578813710204,1.97
0.0010360609775352152,1.971
0.0010138057814497933,1.972
0.000957826343876008,1.973
0.0008498873917674288,1.974
0.000648887954918484,1.975
0.0003239206132965917,1.976
-0.00010515354162231875,1.977
-0.0005610834678582523,1.978
-0.000949128662956021,1.979
-0.0012068535887866149,1.98
-0.0013245966383949063,1.981
-0.0013320647865039436,1.982
-0.0012779669703601444,1.983
-0.0012216463741869044,1.984
-0.0012248747687566173,1.985
-0.0013292272819106538,1.986
-0.0015270926736996224,1.987
-0.0017436015841610216,1.988
-0.0018444574771071787,1.989
-0.0016773087587000838,1.99
-0.001130220403833777,1.991
-0.0001809817802683234,1.992
0.00107975726414447,1.993
0.0024673401992202793,1.994
0.0037616213140180795,1.995
0.0047697218417586,1.996
0.005359596760426618,1.997
0.005463728660742411,1.998
0.005077119851772107,1.999
0.004264215395674495,2.0
0.0031464584374939677,2.001
0.0018564908726349098,2.002
0.0005157027050445894,2.003
-0.0007416666377668546,2.004
-0.001764660588535249,2.005
-0.0024350447111614265,2.006
-0.002717133977787655,2.007
-0.002661194161453287,2.008
-0.002367283478252717,2.009
-0.0019411261651324447,2.01
-0.0014674729716847488,2.011
-0.0010042346503381502,2.012
-0.0005916847253276454,2.013
-0.00026831990656639795,2.014
-6.991831760159024e-05,2.015
-8.442618534595502e-06,2.016
-6.876061726227223e-05,2.017
-0.0002272994452436115,2.018
-0.0004503961942839285,2.019
-0.0006760840786298243,2.02
-0.0008133413462190589,2.021
-0.0007609840867254908,2.022
-0.00044041228652790876,2.023
0.0001610254636696467,2.024
0.0009545896200906957,2.025
0.0017599697799894126,2.026
0.0023764160755261315,2.027
0.002664599705614473,2.028
0.002584500777728603,2.029
0.002192052854221802,2.03
0.0016048127095449043,2.031
0.0009471228771438758,2.032
0.0003127120515987371,2.033
-0.00023834734303889598,2.034
-0.0006648508669866016,2.035
-0.000929514172742679,2.036
-0.0010036134806938328,2.037
-0.0008916560225635249,2.038
-0.0006366254860657101,2.039
-0.0002893746958514059,2.04
0.00011570244881856689,2.041
0.0005545754292416076,2.042
0.0009998065611342248,2.043
0.0014211609277258062,2.044
0.0017925425740649686,2.045
0.0020782623933738925,2.046
0.0022090754697953498,2.047
0.0020911677470778576,2.048
0.0016559928015920928,2.049
0.0009156384867981181,2.05
-1.8746350875365532e-05,2.051
-0.0009709792706411143,2.052
-0.0017619769253484825,2.053
-0.0022616494084375426,2.054
-0.002413201622250698,2.055
-0.002235364077797648,2.056
-0.0018053018104366146,2.057
-0.0012269745112107096,2.058
-0.0006044084969975376,2.059
-2.3548279906212004e-05,2.06
0.00046209019729356047,2.061
0.0008256854275996613,2.062
0.001046143147249822,2.063
0.0011065663544997783,2.064
0.0010117606372519183,2.065
0.000795530029777834,2.066
0.0005154789141899926,2.067
0.00024821833379729257,2.068
8.078859131557435e-05,2.069
8.65349782685088e-05,2.07
0.0002891289698688934,2.071
0.000639813841472117,2.072
0.0010316642171755157,2.073
0.0013434889543260786,2.074
0.0014848792830164824,2.075
0.0014184750712887793,2.076
0.0011563612756987779,2.077
0.0007545665995034767,2.078
0.0003068259162388372,2.079
-8.850786254518088e-05,2.08
-0.0003674356429383131,2.081
-0.0005057366182410891,2.082
-0.0005064082126043754,2.083
-0.0003987514489429756,2.084
-0.00023782055160719918,2.085
-8.170473866649287e-05,2.086
3.915281571202582e-05,2.087
0.0001249326899192912,2.088
0.000189456546024285,2.089
0.000258157858984413,2.09
0.00037008991686430864,2.091
0.0005555925990533214,2.092
0.0008065775419529456,2.093
0.001076138511580879,2.094
0.0013019545471941061,2.095
0.0014228831591890701,2.096
0.0013901614866792269,2.097
0.001183217561487831,2.098
0.0008145253491576003,2.099
0.00031970705351381715,2.1
-0.00023961625936981014,2.101
-0.000763204107642732,2.102
-0.0011370388303638974,2.103
-0.0012924348708199759,2.104
-0.001236680366397676,2.105
-0.0010245844534525561,2.106
-0.0007028801927075623,2.107
-0.00028657524221557503,2.108
0.00020982751379725363,2.109
0.0007255707444638047,2.11
0.001150726602502267,2.111
0.001381125961046489,2.112
0.0013708459123704273,2.113
0.001133885730522726,2.114
0.0007223746692054693,2.115
0.0002096939031468981,2.116
-0.0003258875953893911,2.117
-0.0008134261727885853,2.118
-0.0011904776097698333,2.119
-0.001402122813990262,2.12
-0.0014078447106618914,2.121
-0.0011944884112480261,2.122
-0.0007843860346192225,2.123
-0.00023102117850370366,2.124
0.00039209944842390584,2.125
0.0010058096951693417,2.126
0.001541557782608562,2.127
0.0019497721462070094,2.128
0.002203389989740617,2.129
0.002296617543319769,2.13
0.0022260659828988796,2.131
0.001980847718951366,2.132
0.0015687246612098886,2.133
0.001040785035291702,2.134
0.00048094576636666553,2.135
-2.018554900629733e-05,2.136
-0.0003871885583115524,2.137
-0.0005807151862845296,2.138
-0.0006110075395311453,2.139
-0.0005273625688827455,2.14
-0.00038689804195631017,2.141
-0.00022894899890015186,2.142
-7.829495203483873e-05,2.143
3.349162533401102e-05,2.144
6.670945506892902e-05,2.145
3.793318092022214e-06,2.146
-0.00012561924679716874,2.147
-0.0002537489823734427,2.148
-0.0003096440146338847,2.149
-0.00026250620841868533,2.15
-0.00014053031517736927,2.151
-1.1533091933414426e-06,2.152
0.00011620828530177458,2.153
0.00021821878835815697,2.154
0.00035602642846180305,2.155
0.0005846914464784932,2.156
0.0009077982870101395,2.157
0.0012607731651440193,2.158
0.0015392239047271948,2.159
0.0016406078267491072,2.16
0.001502140517821736,2.161
0.0011217020003948116,2.162
0.0005538624428714491,2.163
-0.00010925309276686653,2.164
-0.0007600853602257714,2.165
-0.0012997698409848405,2.166
-0.0016638886722179984,2.167
-0.0018299294468191105,2.168
-0.001806277164892281,2.169
-0.001625650068438064,2.17
-0.0013366877083544567,2.171
-0.0009867193652329251,2.172
-0.0006069302517961052,2.173
-0.00020264238629037399,2.174
0.00024297442854802519,2.175
0.0007429823875865873,2.176
0.0012793966809030626,2.177
0.0018007633539019888,2.178
0.0022448886272293123,2.179
0.0025713972984880333,2.18
0.002780563993487606,2.181
0.002894360489500188,2.182
0.002912875027004991,2.183
0.002797009217477347,2.184
0.0024955313845665115,2.185
0.001982726862766746,2.186
0.0012766010269788255,2.187
0.0004398425829682816,2.188
-0.0004283148585986958,2.189
-0.0012157684848757432,2.19
-0.0018244165695432521,2.191
-0.0021773113514321845,2.192
-0.0022249412170035443,2.193
-0.0019679872016662827,2.194
-0.001468386811097437,2.195
-0.0008361489525848088,2.196
-0.00020750018868112774,2.197
0.00028021217672041625,2.198
0.0005148834731951916,2.199
0.00044025960044610205,2.2
8.617147705027381e-05,2.201
-0.00042811053339044476,2.202
-0.0009310987821547059,2.203
-0.001258416927952537,2.204
-0.0013034770684212113,2.205
-0.0010413530502964828,2.206
-0.0005217648032400941,2.207
0.0001591315742004435,2.208
0.0008883574160116363,2.209
0.0015625451642231757,2.21
0.0021095506187468736,2.211
0.0024864018698564495,2.212
0.0026515546818532583,2.213
0.0025485071954324673,2.214
0.0021304630898186794,2.215
0.0014016343013161015,2.216
0.00043834972134194536,2.217
-0.0006157386222129134,2.218
-0.0015798246160963216,2.219
-0.002282404169096123,2.22
-0.0026007332459494874,2.221
-0.00248255604941324,2.222
-0.0019456788391966186,2.223
-0.0010584994716926368,2.224
7.377559187759752e-05,2.225
0.001307727494515664,2.226
0.0024700729105157893,2.227
0.003387388548285887,2.228
0.003916362897316643,2.229
0.003961371674922697,2.23
0.0035001063771671207,2.231
0.002621181987251521,2.232
0.0015203569428770716,2.233
0.00043512863205419155,2.234
-0.0004301822403654582,2.235
-0.000956189166592794,2.236
-0.0011375651395886537,2.237
-0.0010773762021228416,2.238
-0.0009323140131779968,2.239
-0.0008295200755090711,2.24
-0.0008118059174044163,2.241
-0.0008451165975506347,2.242
-0.0008667966880095674,2.243
-0.0008295602187986907,2.244
-0.0007100086266347464,2.245
-0.0004986540366181868,2.246
-0.00020937397155856011,2.247
0.00010444846576257574,2.248
0.00036211173512782106,2.249
0.0004887843584313518,2.25
0.0004446431641604886,2.251
0.0002454951638932338,2.252
-2.875991547867399e-05,2.253
-0.00025960896417655786,2.254
-0.00034536386679188177,2.255
-0.00024438959363759776,2.256
1.2023202693091535e-05,2.257
0.00033135358443571667,2.258
0.0005941686718726441,2.259
0.0006913593488081882,2.26
0.0005482491908226988,2.261
0.00014332582145959677,2.262
-0.0004866462669873182,2.263
-0.0012695873401138494,2.264
-0.0021231234950885554,2.265
-0.0029392531398564252,2.266
-0.003541923457500903,2.267
-0.003687066876912317,2.268
-0.0031390485502283266,2.269
-0.0017828234163294924,2.27
0.00029604772865535927,2.271
0.0028102061519620376,2.272
0.005345138365710324,2.273
0.007472029667884888,2.274
0.00885485248433949,2.275
0.009305661749795474,2.276
0.008777496293920096,2.277
0.007350867253056605,2.278
0.005255739170278974,2.279
0.002868557441986548,2.28
0.0006073646172121889,2.281
-0.0012271879801936132,2.282
-0.0025381965972298645,2.283
-0.003396207768220048,2.284
-0.003943461018932407,2.285
-0.004315454366466922,2.286
-0.0045930457709581225,2.287
-0.004774097720197855,2.288
-0.004783070856033333,2.289
-0.00453172850252813,2.29
-0.0039873388692575045,2.291
-0.0031877946234500957,2.292
-0.002206959421489583,2.293
-0.001124954054552083,2.294
-2.790655048774465e-05,2.295
0.0009869484473483375,2.296
0.0018189467054732194,2.297
0.0023792876950600476,2.298
0.0026100589212202582,2.299
0.002498635525033037,2.3
0.002078443467245052,2.301
0.001429897288417083,2.302
0.0006889709201531156,2.303
3.347220255235273e-05,2.304
-0.00037000369358748306,2.305
-0.00042742360810985947,2.306
-0.00014801970374151455,2.307
0.0003720460304150325,2.308
0.0010004261417377982,2.309
0.0016190518250018123,2.31
0.002144666236269502,2.311
0.002514210305966652,2.312
0.0026578199457378145,2.313
0.002496615732113695,2.314
0.0019815858870596177,2.315
0.0011423243123384872,2.316
9.694064241906966e-05,2.317
-0.0009853689514914919,2.318
-0.0019350544012491548,2.319
-0.0026129606507390994,2.32
-0.0029128206645798304,2.321
-0.0027585453258349704,2.322
-0.002130430411533521,2.323
-0.0011055401380645532,2.324
0.00013860486156488277,2.325
0.0013677730360053654,2.326
0.002360580088041949,2.327
0.0029770552632190136,2.328
0.0031856340132816493,2.329
0.003032231003383742,2.33
0.002590952024635741,2.331
0.0019401682996365195,2.332
0.0011602692499660908,2.333
0.0003331055068850499,2.334
-0.0004600968146930306,2.335
-0.001144311367520859,2.336
-0.001658336778774808,2.337
-0.0019567886285857543,2.338
-0.002007883352586307,2.339
-0.0017948011226594685,2.34
-0.0013261261971339931,2.341
-0.0006508560824067492,2.342
0.00013487335060384105,2.343
0.0008994561085115571,2.344
0.0015059498705232155,2.345
0.0018430149083833729,2.346
0.0018409058221682396,2.347
0.0014839049798881145,2.348
0.000827606843757137,2.349
-3.5240280652167923e-06,2.35
-0.0008541921357766528,2.351
-0.001583479420498159,2.352
-0.0020833054755814654,2.353
-0.0022702600467009847,2.354
-0.0020803234280621485,2.355
-0.0014914103320654692,2.356
-0.0005582982186355477,2.357
0.0005769588354028034,2.358
0.0017152464456830253,2.359
0.0026616853696035396,2.36
0.003285755820823749,2.361
0.003536591896592599,2.362
0.003412835870942591,2.363
0.0029422110323893014,2.364
0.0021918254306807616,2.365
0.0012704050796569486,2.366
0.0003084251283002297,2.367
-0.0005615970618269145,2.368
-0.0012189591588713006,2.369
-0.0015741876390167032,2.37
-0.0015940489714729345,2.371
-0.0013121333131452563,2.372
-0.0008125611675999124,2.373
-0.00020745665147649077,2.374
0.00037940727186368397,2.375
0.0008416184244007939,2.376
0.0011290077057612782,2.377
0.0012630125090831294,2.378
0.0013092485029097948,2.379
0.001322705080737052,2.38
0.0013041285947490238,2.381
0.001194618895874018,2.382
0.0009042032624974009,2.383
0.0003575021667316003,2.384
-0.0004586011630891379,2.385
-0.0014645180647940943,2.386
-0.0024937274758509613,2.387
-0.0033348704856348966,2.388
-0.003787309253207816,2.389
-0.0037092457238037104,2.39
-0.0030489340285533646,2.391
-0.0018547550748084503,2.392
-0.0002778908447099059,2.393
0.0014277008832431141,2.394
0.002941671997966841,2.395
0.003964862836829377,2.396
0.0043159193469721625,2.397
0.003988786004413175,2.398
0.0031468974501395845,2.399
0.0020489949025982172,2.4
0.0009439771623918291,2.401
-3.72397566016032e-06,2.402
-0.000728517631473126,2.403
-0.0012289658485256584,2.404
-0.0015226927997907566,2.405
-0.0016225482143192227,2.406
-0.0015299879484921642,2.407
-0.0012372116509627102,2.408
-0.0007429001091597143,2.409
-7.714012765430245e-05,2.41
0.0006813629206991009,2.411
0.001413777956951575,2.412
0.0019952265757604564,2.413
0.002330768577059485,2.414
0.0023754631352415185,2.415
0.0021380722745947965,2.416
0.0016715108063477938,2.417
0.0010565249491300995,2.418
0.0003898739585040124,2.419
-0.00022124427524468593,2.42
-0.0006666189051636853,2.421
-0.0008445375534538246,2.422
-0.0006831470002166912,2.423
-0.00018300477221268172,2.424
0.0005444584680276627,2.425
0.0012966401600867429,2.426
0.0018586639537979408,2.427
0.002086165485493483,2.428
0.0019467477593862956,2.429
0.0015012477381829005,2.43
0.000845322097525329,2.431
6.630882658634866e-05,2.432
-0.0007603196757733636,2.433
-0.0015577205567596513,2.434
-0.002241619293824822,2.435
-0.0027242787309705602,2.436
-0.0029265808997609977,2.437
-0.002805886609276801,2.438
-0.002388677935773154,2.439
-0.0017701205109216848,2.44
-0.001075218679335745,2.441
-0.00041762159186731196,2.442
0.00012620650604350557,2.443
0.0005305177388220895,2.444
0.0008111173842325594,2.445
0.0009941343129095635,2.446
0.001097019822261075,2.447
0.0011388192257826965,2.448
0.0011526751424549451,2.449
0.001174317784974143,2.45
0.0012136207212731349,2.451
0.0012402498775804338,2.452
0.0012021961916605648,2.453
0.0010610574189341326,2.454
0.0008220869814202716,2.455
0.0005462052699532918,2.456
0.0003290050914203905,2.457
0.0002557642337784968,2.458
0.00036783366003034074,2.459
0.0006557367470431655,2.46
0.0010713410201994124,2.461
0.0015449552124074733,2.462
0.001987691012252373,2.463
0.0022916649154045956,2.464
0.0023579664855469433,2.465
0.0021325834177742223,2.466
0.0016218329211561125,2.467
0.0008951217856202727,2.468
7.338723659998996e-05,2.469
-0.0007070950959283738,2.47
-0.0013350173076713185,2.471
-0.0017399214896724087,2.472
-0.0018840536578242392,2.473
-0.001750449384731607,2.474
-0.0013461429085875132,2.475
-0.0007263984084686384,2.476
-1.5914820014976613e-05,2.477
0.0006143704044466302,2.478
0.001010426528768107,2.479
0.0010895801406058225,2.48
0.0008626298127965594,2.481
0.00042485567847915656,2.482
-8.594908921531606e-05,2.483
-0.0005515260011272297,2.484
-0.0009155293208874452,2.485
-0.001177004656556394,2.486
-0.0013532570874000408,2.487
-0.0014474446726938377,2.488
-0.0014351873326668733,2.489
-0.0012720230556809106,2.49
-0.000916939839872952,2.491
-0.00035609824311318616,2.492
0.0003890158001969763,2.493
0.0012627501066061683,2.494
0.0021654238159024997,2.495
0.0029472798741663675,2.496
0.0034405195729333335,2.497
0.003516641352026935,2.498
0.003132275499227059,2.499
0.0023444923059245766,2.5
0.0012921317342260937,2.501
0.00016029102215863063,2.502
-0.0008569863544943399,2.503
-0.0015976038945770912,2.504
-0.001969645388332376,2.505
-0.0019689705742958067,2.506
-0.0016636717702398721,2.507
-0.0011575044807289711,2.508
-0.0005594303966369356,2.509
3.278225447612675e-05,2.51
0.0005468248322519544,2.511
0.0009462217350217683,2.512
0.0012167947040368908,2.513
0.001340511583742978,2.514
0.0012918795457039869,2.515
0.0010551989503632783,2.516
0.0006473523260830257,2.517
0.00013885012275024198,2.518
-0.00035234852087617785,2.519
-0.0007027375985167227,2.52
-0.0008260469771241334,2.521
-0.0006891816448230773,2.522
-0.0003152363398251362,2.523
0.00021372785344874715,2.524
0.0007751336791307065,2.525
0.0012489518140612328,2.526
0.0015562335173411267,2.527
0.001672598548293313,2.528
0.0016152443956514622,2.529
0.0014177237957802018,2.53
0.0011082914785630923,2.531
0.0007073332612132328,2.532
0.0002463694811873756,2.533
-0.00022617151814474862,2.534
-0.0006609251926339624,2.535
-0.0010094319604613041,2.536
-0.0012241778491731007,2.537
-0.0012826445374855976,2.538
-0.0012005680676955952,2.539
-0.0010162501373765839,2.54
-0.0007724717539693056,2.541
-0.0005031887054234549,2.542
-0.00021831689233491345,2.543
0.00010014463969222921,2.544
0.00047443773859821826,2.545
0.0008944708381864353,2.546
0.0013005612749096489,2.547
0.0015985587343584338,2.548
0.0017004779870534678,2.549
0.0015699265311254406,2.55
0.0012401278538126843,2.551
0.0007970170057038374,2.552
0.000352864780109553,2.553
1.888643794530957e-05,2.554
-0.0001295656433844554,2.555
-8.210952754087011e-05,2.556
0.00010222744224572727,2.557
0.0003227565928878653,2.558
0.00048340907340251266,2.559
0.0005339974596459792,2.56
0.0004905415860286796,2.561
0.000416272771210963,2.562
0.00037013530068236833,2.563
0.0003679824051799294,2.564
0.00038267738542797935,2.565
0.0003747412142411904,2.566
0.0003278426179952581,2.567
0.00025083462035895953,2.568
0.00014606987425386128,2.569
-6.080231406738982e-06,2.57
-0.00022444843962065957,2.571
-0.0004954469714036342,2.572
-0.0007637041527813652,2.573
-0.0009522628956694542,2.574
-0.0009942726553615225,2.575
-0.0008456361609677675,2.576
-0.00048515855467774944,2.577
6.319920524061552e-05,2.578
0.0007023358481027596,2.579
0.0012752301970572915,2.58
0.0016254702956278472,2.581
0.0016694299662779648,2.582
0.001430695717892571,2.583
0.0010179756423698008,2.584
0.0005742327618569244,2.585
0.00022447821984825057,2.586
3.2435170731209806e-05,2.587
-1.4431268104363388e-05,2.588
2.172823395320107e-05,2.589
7.217833298372254e-05,2.59
8.66024752259235e-05,2.591
4.241451440991582e-05,2.592
-4.458879975764295e-05,2.593
-0.0001228993342784685,2.594
-0.00014196850492656477,2.595
-9.848723612490985e-05,2.596
-4.79439907974101e-05,2.597
-7.015581223883096e-05,2.598
-0.00021588367438978592,2.599
-0.00046845969730757893,2.6
-0.0007365025395913279,2.601
-0.0008878515156520657,2.602
-0.0008176201972703798,2.603
-0.0005047782899722306,2.604
-1.788580961969603e-05,2.605
0.0005263280718548447,2.606
0.001024961108774323,2.607
0.0014398006065071797,2.608
0.001801973196669789,2.609
0.002161633464701268,2.61
0.0025270731858152446,2.611
0.002838081574306567,2.612
0.0029714693319654404,2.613
0.002771348856626882,2.614
0.002109089248693218,2.615
0.0009523521684549386,2.616
-0.0005956194124339208,2.617
-0.002301446947695434,2.618
-0.0038385731918199597,2.619
-0.004847469012233328,2.62
-0.005018503458277464,2.621
-0.0041859840898438505,2.622
-0.002418335019036902,2.623
-6.0073884866038954e-05,2.624
0.0023463340695475377,2.625
0.004258078437706064,2.626
0.005335837651480982,2.627
0.005520742412169776,2.628
0.004962192422250866,2.629
0.0039030974862447002,2.63
0.002610440980380385,2.631
0.0013321180404680124,2.632
0.00024538796952490753,2.633
-0.0005735387210258577,2.634
-0.001126092515150199,2.635
-0.0014436321200403078,2.636
-0.00155750578966531,2.637
-0.0014958772046372534,2.638
-0.001298704894577704,2.639
-0.0010294630665382705,2.64
-0.0007603262837702604,2.641
-0.0005437959707175591,2.642
-0.0004105100516038811,2.643
-0.000392942291275683,2.644
-0.0005323473328896541,2.645
-0.000853827980573152,2.646
-0.0013404635122687331,2.647
-0.0019346341033236493,2.648
-0.0025576480240039547,2.649
-0.003118591811028008,2.65
-0.003510326189366081,2.651
-0.00362239572757122,2.652
-0.003369956835785747,2.653
-0.002703931162335277,2.654
-0.0016042192245011781,2.655
-9.00419331273883e-05,2.656
0.0017459731205364632,2.657
0.0037109763880169913,2.658
0.005531494273559165,2.659
0.006925580259037648,2.66
0.0076879146087373,2.661
0.007738526719994369,2.662
0.007117433116160649,2.663
0.005951809137110604,2.664
0.004427332903763376,2.665
0.002761052232994884,2.666
0.001163417337007372,2.667
-0.0002054597125119963,2.668
-0.0012649745256407695,2.669
-0.0020066192141143004,2.67
-0.0024558440882452774,2.671
-0.0026384614779316556,2.672
-0.002580758352630783,2.673
-0.002334860862278761,2.674
-0.001985803653656342,2.675
-0.0016204866545908823,2.676
-0.0012890954959316374,2.677
-0.000989083587775278,2.678
-0.0006815237452032822,2.679
-0.00033488047655680885,2.68
2.5620023465019738e-05,2.681
0.0002935792474067536,2.682
0.00031434285197006015,2.683
-3.509815730274961e-05,2.684
-0.0007809963481192258,2.685
-0.001841472490894577,2.686
-0.0030498398958344925,2.687
-0.004171584167358825,2.688
-0.004914770410295176,2.689
-0.00498102431125375,2.69
-0.004172742304237919,2.691
-0.002499575462115283,2.692
-0.00021471820037101972,2.693
0.0022428563583728163,2.694
0.004387156774447941,2.695
0.005850969501694245,2.696
0.006488400963621486,2.697
0.006365899257632609,2.698
0.005675910735094661,2.699
0.00464099802749024,2.7
0.0034602611975203083,2.701
0.002301621879950532,2.702
0.0012993783368346365,2.703
0.0005417805613947401,2.704
6.708024203724123e-05,2.705
-0.00013752000337137102,2.706
-0.00013185787766668334,2.707
6.734765955045477e-06,2.708
0.00021475513951647524,2.709
0.00045076744345166973,2.71
0.0006957186239233309,2.711
0.0009478194149128938,2.712
0.0012043108698770438,2.713
0.0014384141228621517,2.714
0.0015897499945179416,2.715
0.0015823179272731937,2.716
0.0013546548151376408,2.717
0.0008762888922147447,2.718
0.00015312547234156657,2.719
-0.000763898433048673,2.72
-0.0017767035237318727,2.721
-0.0027693420854819906,2.722
-0.003663018231369725,2.723
-0.004460516375697873,2.724
-0.005258488692001393,2.725
-0.0062194127682853,2.726
-0.007488090055053469,2.727
-0.009046532294359484,2.728
-0.010560418637468658,2.729
-0.011355240356603905,2.73
-0.01062481197705562,2.731
-0.007800747142501221,2.732
-0.002878878540068956,2.733
0.003473439770327549,2.734
0.010077539281120224,2.735
0.0156246443441738,2.736
0.01912899518000958,2.737
0.02020932700487006,2.738
0.019061158092624035,2.739
0.01621898501233557,2.74
0.012319822814089169,2.741
0.00797897381797267,2.742
0.003735723234573996,2.743
9.89859861670752e-06,2.744
-0.0029353469614675897,2.745
-0.005004301647211678,2.746
-0.006240382265118992,2.747
-0.006777277316717886,2.748
-0.006792473347585687,2.749
-0.006472599786561617,2.75
-0.005990932956959662,2.751
-0.005484149211852199,2.752
-0.005029848324630753,2.753
-0.004636749042098219,2.754
-0.004246425927376736,2.755
-0.0037570191744057705,2.756
-0.0030738955570860935,2.757
-0.002159525380380217,2.758
-0.0010575848572420181,2.759
0.00011547232827753198,2.76
0.0012076740883133648,2.761
0.0020832941301152774,2.762
0.0026630803548617446,2.763
0.0029264275504855566,2.764
0.002885823389042786,2.765
0.002569303325396156,2.766
0.0020188520618846855,2.767
0.0012936348844106603,2.768
0.00047328048167182403,2.769
-0.0003462525462416925,2.77
-0.0010621895627184667,2.771
-0.0015714636990275723,2.772
-0.0017837194925291464,2.773
-0.0016394738067672388,2.774
-0.0011184479839908726,2.775
-0.0002444750340793736,2.776
0.0009056229168133621,2.777
0.0021891068549882518,2.778
0.0033887494635111456,2.779
0.0042503379016799086,2.78
0.004575993144185107,2.781
0.004304385806001067,2.782
0.003519586725549003,2.783
0.0024034521353845555,2.784
0.0011793838279475538,2.785
6.728094615898319e-05,2.786
-0.0007561361328127179,2.787
-0.0011875394684737698,2.788
-0.001214189074784267,2.789
-0.0009157683103427099,2.79
-0.0004341734099394738,2.791
8.340557747450343e-05,2.792
0.000532401521793936,2.793
0.0008691688113148564,2.794
0.0010962809513864432,2.795
0.001223829448409252,2.796
0.0012349116745429783,2.797
0.0010721142605561007,2.798
0.0006444494830109527,2.799
-0.00013635454932157352,2.8
-0.0012974107025303101,2.801
-0.0027707583666583976,2.802
-0.004402303307099412,2.803
-0.005968887326288858,2.804
-0.0071925279097829805,2.805
-0.0077774314537367335,2.806
-0.007479305060713477,2.807
-0.006179060718233278,2.808
-0.0039210451274,2.809
-0.0009121572161646254,2.81
0.002503395425076044,2.811
0.0058946826279003455,2.812
0.008808209612418605,2.813
0.010833535952251205,2.814
0.011678542987907546,2.815
0.011239910643994997,2.816
0.009631619083498001,2.817
0.007165398681419858,2.818
0.004294938908312026,2.819
0.0015120643285185817,2.82
-0.0007818297505222403,2.821
-0.0023636361182123814,2.822
-0.0032149079902893483,2.823
-0.0034871489179274075,2.824
-0.003408956544043796,2.825
-0.0031871007121130612,2.826
-0.0029535270114762397,2.827
-0.002757576190015398,2.828
-0.002586042600269901,2.829
-0.002401389565509695,2.83
-0.0021801848396014317,2.831
-0.0019306247680125669,2.832
-0.0016838289229860757,2.833
-0.0014695812678824447,2.834
-0.0012975379087597346,2.835
-0.0011553102516830907,2.836
-0.0010177870867449546,2.837
-0.0008565795934764665,2.838
-0.0006370087015805881,2.839
-0.00031223720424282354,2.84
0.00016257721598971896,2.841
0.0008018580399794061,2.842
0.0015724863047984162,2.843
0.002403563381012301,2.844
0.003207132553319731,2.845
0.0038758540551409354,2.846
0.004263895188769506,2.847
0.00419716285461321,2.848
0.0035319396337128222,2.849
0.002229622684668757,2.85
0.000408997535656488,2.851
-0.0016343994348522414,2.852
-0.00345669801460732,2.853
-0.004570834861482575,2.854
-0.004618864184377847,2.855
-0.0035432960099813482,2.856
-0.0016637563418090782,2.857
0.0004125721638792366,2.858
0.0020486427123674786,2.859
0.002884607116996615,2.86
0.0029827926200060827,2.861
0.0027033108002082707,2.862
0.0024371309104800373,2.863
0.002400630673670357,2.864
0.0025732551569327697,2.865
0.0027526213563463437,2.866
0.002691982949254231,2.867
0.0022600208685131236,2.868
0.0015195553915561709,2.869
0.0006751033322732088,2.87
-4.64445102907422e-05,2.871
-0.00048670247721646046,2.872
-0.0005938404399565276,2.873
-0.00043081570245370455,2.874
-0.00015739186414813299,2.875
2.027068742204677e-05,2.876
-8.447341725445365e-05,2.877
-0.0005918185067431323,2.878
-0.00154299551579794,2.879
-0.0029081992608546376,2.88
-0.004601430479953641,2.881
-0.006481490453940303,2.882
-0.008320195253951758,2.883
-0.009780066824487258,2.884
-0.010454567960869498,2.885
-0.009947648484089213,2.886
-0.007954321455184245,2.887
-0.004364336867734276,2.888
0.0006062635141050434,2.889
0.006352243611893885,2.89
0.01196615798957185,2.891
0.016436523376686933,2.892
0.018906859425582425,2.893
0.018943481819290515,2.894
0.01667644950913317,2.895
0.012723435393396498,2.896
0.007957819083357779,2.897
0.003246775607174129,2.898
-0.0007426134614434524,2.899
-0.0036370521155531486,2.9
-0.005365073169779518,2.901
-0.006093626756440642,2.902
-0.006116527147931185,2.903
-0.005744978093374931,2.904
-0.005235394536704464,2.905
-0.004754298227601517,2.906
-0.004372494007130929,2.907
-0.004078161749603801,2.908
-0.0038012745440062024,2.909
-0.0034525609015038376,2.91
-0.0029684297150707603,2.911
-0.002345697023771712,2.912
-0.0016549967505932331,2.913
-0.0010146573360361039,2.914
-0.0005250461898772483,2.915
-0.00021125253239522458,2.916
-2.4304316155777722e-05,2.917
0.00011180768419952368,2.918
0.00025525271434379286,2.919
0.0004253084264904314,2.92
0.0006059155914153366,2.921
0.0007695737858597771,2.922
0.0009098036637641867,2.923
0.0010596005969408819,2.924
0.0012781185904896667,2.925
0.0016224292744345856,2.926
0.0021216518882511953,2.927
0.0027421578926370245,2.928
0.003357969572847302,2.929
0.003769198650574532,2.93
0.0037728199110448556,2.931
0.0032438444290630417,2.932
0.0021844532669590766,2.933
0.0007198968621631163,2.934
-0.0009461224519225036,2.935
-0.0025822668557098916,2.936
-0.0039725425384950636,2.937
-0.004939733180134643,2.938
-0.0053360204198752955,2.939
-0.005036462211632844,2.94
-0.0039712979063053705,2.941
-0.002165206850806887,2.942
0.00024653252331361417,2.943
0.00300782491289197,2.944
0.005743767308833917,2.945
0.008013274688719903,2.946
0.009415444664958578,2.947
0.009702362726831549,2.948
0.008839059178575331,2.949
0.0069834304977364325,2.95
0.004419863961446984,2.951
0.001508699287468193,2.952
-0.0013429726925543559,2.953
-0.003736300959809486,2.954
-0.005368469784836484,2.955
-0.006100494761667614,2.956
-0.005961900260210371,2.957
-0.005110727260989986,2.958
-0.003791939566932227,2.959
-0.0023034225419179813,2.96
-0.0009604765832222135,2.961
-6.042273636812666e-05,2.962
0.00015616862968293184,2.963
-0.00043945295824009665,2.964
-0.0017979614517258731,2.965
-0.0036463716512176157,2.966
-0.0054980525976744046,2.967
-0.006744167455276208,2.968
-0.006833529182863711,2.969
-0.005487714995917719,2.97
-0.0028385745205403547,2.971
0.0006109955224698131,2.972
0.0041991071314058225,2.973
0.00734207096984047,2.974
0.009643992371995086,2.975
0.010896857625997569,2.976
0.011061821867204785,2.977
0.010237998278465367,2.978
0.00860775972846763,2.979
0.006394641808700966,2.98
0.0038496586676300794,2.981
0.001241768991274436,2.982
-0.0011591552428036112,2.983
-0.0031012114157964645,2.984
-0.004380493374078943,2.985
-0.004880728196578134,2.986
-0.0045883961986773565,2.987
-0.003578059411497584,2.988
-0.0020053585634223843,2.989
-0.00012439804731142757,2.99
0.0016852089593398902,2.991
0.0029224886068113143,2.992
0.003071846526926197,2.993
0.001828935459431248,2.994
-0.0006815456424912713,2.995
-0.0038788179601795788,2.996
-0.0069310385173565,2.997
-0.009054505634276231,2.998
-0.009750071860175005,2.999
-0.008906943107413431,3.0
-0.006784011246856218,3.001
-0.003917194731160263,3.002
-0.000978389213450859,3.003
0.00140293556392862,3.004
0.002816561088201871,3.005
0.0031906322234662174,3.006
0.002794730694648759,3.007
0.0021187208664977066,3.008
0.0016983208701957866,3.009
0.001952442208020354,3.01
0.003056972919668422,3.011
0.004884063394081525,3.012
0.007037279461558941,3.013
0.008972408929598498,3.014
0.010148703755747352,3.015
0.010170051616696573,3.016
0.008902459615809979,3.017
0.006526506222635956,3.018
0.0034840148762036675,3.019
0.00034206050654050067,3.02
-0.002373144899046074,3.021
-0.004323978485133118,3.022
-0.0054262429427791425,3.023
-0.005790764492851135,3.024
-0.005590041141071868,3.025
-0.004953860903052613,3.026
-0.003961107983773467,3.027
-0.0027044509078985187,3.028
-0.0013412892768151705,3.029
-7.535249177231947e-05,3.03
0.0009096919287736769,3.031
0.0015155683576367454,3.032
0.001757149235380998,3.033
0.001733230709095666,3.034
0.0015530864757871527,3.035
0.00126906425202589,3.036
0.0008647434366966251,3.037
0.00029875824831201466,3.038
-0.00044603405973818087,3.039
-0.0013473758866738407,3.04
-0.0023432787426540752,3.041
-0.0033216334595848962,3.042
-0.004123078828134138,3.043
-0.004588460801005736,3.044
-0.004639974567249682,3.045
-0.004325606988541924,3.046
-0.0037491730571620405,3.047
-0.002933247526154229,3.048
-0.0017789259303519255,3.049
-0.00017802222732098968,3.05
0.0018527285352849354,3.051
0.0041281574105662844,3.052
0.006335363428325093,3.053
0.008126678448349032,3.054
0.009228295258673873,3.055
0.009505196266728667,3.056
0.008960527552204481,3.057
0.0077094474114709505,3.058
0.005967508106444897,3.059
0.004032919649892139,3.06
0.0022104907968718114,3.061
0.0006958672592791426,3.062
-0.0004924554740177476,3.063
-0.001495636465119,3.064
-0.002545003094422219,3.065
-0.003872479809582211,3.066
-0.005615190166678616,3.067
-0.0077428189955135295,3.068
-0.010039798190283826,3.069
-0.012133086252151488,3.07
-0.013532302507737981,3.071
-0.013691223046127955,3.072
-0.01214002157269235,3.073
-0.00868200807927898,3.074
-0.003560922564100406,3.075
0.0024983105899175533,3.076
0.00843992722794386,3.077
0.013209257797578134,3.078
0.016105669427974836,3.079
0.016960398246609346,3.08
0.016076886651344633,3.081
0.013986774875727206,3.082
0.011152935819992537,3.083
0.00780570291558768,3.084
0.004025753389799989,3.085
-2.527262035323559e-06,3.086
-0.0038093200159646564,3.087
-0.006733189941324394,3.088
-0.008239085074230336,3.089
-0.008199938554008171,3.09
-0.006930031135483666,3.091
-0.004987938699809818,3.092
-0.0029216490754289002,3.093
-0.0011030826560509393,3.094
0.0002930803105776962,3.095
0.0012177937156952596,3.096
0.0016913089853215547,3.097
0.0017887746891702121,3.098
0.001615628717890616,3.099
0.0012685875187275464,3.1
0.0008239063691177625,3.101
0.00035010024373165996,3.102
-9.190104000682188e-05,3.103
-0.00046603372555114664,3.104
-0.0007833257199803962,3.105
-0.001126300949412995,3.106
-0.001642494611259203,3.107
-0.002462798190124045,3.108
-0.0035824733988129996,3.109
-0.004801065675779308,3.11
-0.00575843686375084,3.111
-0.006034468187938992,3.112
-0.0052799835877658935,3.113
-0.003365026348569386,3.114
-0.0005034557115354781,3.115
0.0027433630567149227,3.116
0.005652749499180634,3.117
0.007629566038955745,3.118
0.008406754617204975,3.119
0.008076182291116776,3.12
0.007005788276139806,3.121
0.005689644646213082,3.122
0.00456655396958988,3.123
0.003870562749105521,3.124
0.003553899297870925,3.125
0.003301750753478373,3.126
0.0026612853358719173,3.127
0.001263898171882927,3.128
-0.0009613365660253336,3.129
-0.0037074644729656837,3.13
-0.0063887962197485704,3.131
-0.008349402027134556,3.132
-0.009071205786557455,3.133
-0.008326065345865531,3.134
-0.006251674154378069,3.135
-0.00332734745917184,3.136
-0.00024469002152510764,3.137
0.002277490132988942,3.138
0.003654854437811421,3.139
0.0035805388322521677,3.14
0.002192628436708835,3.141
0.0001398283977618137,3.142
-0.0016319441429756823,3.143
-0.0022853947172432865,3.144
-0.0014181573580485654,3.145
0.0008509044744436739,3.146
0.004003567360276517,3.147
0.007315637153458199,3.148
0.01001913427055218,3.149
0.011450720099031524,3.15
0.011224233248613087,3.151
0.009352269842174665,3.152
0.006212983143265428,3.153
0.00238649416504124,3.154
-0.0015140297420344938,3.155
-0.004925993572627862,3.156
-0.007360825739902717,3.157
-0.008452525986193211,3.158
-0.008051782889325159,3.159
-0.006311769797249561,3.16
-0.0037144361888682437,3.161
-0.0010145658425825587,3.162
0.000918660890365254,3.163
0.0013661680985389362,3.164
4.7648745276900864e-05,3.165
-0.0027318417256696056,3.166
-0.006187322103078005,3.167
-0.009342445482807679,3.168
-0.01133471976596793,3.169
-0.011621601747071128,3.17
-0.010058521844462969,3.171
-0.006884548154677127,3.172
-0.002653276212896071,3.173
0.0019024790491569354,3.174
0.006062791119567882,3.175
0.00928131196129396,3.176
0.011259044072877977,3.177
0.011981736677920645,3.178
0.011730485045761543,3.179
0.010962437968435447,3.18
0.01006341766590831,3.181
0.009183221778203328,3.182
0.008273324587187722,3.183
0.007193840263598088,3.184
0.005784980388987142,3.185
0.003948359872249886,3.186
0.0017443307706604418,3.187
-0.0005706379103743459,3.188
-0.0026279105544769654,3.189
-0.004125836118309781,3.19
-0.004959986414194713,3.191
-0.00519189584080933,3.192
-0.004942368832190769,3.193
-0.004357718402187438,3.194
-0.003635548625741057,3.195
-0.002999020140775858,3.196
-0.00261941675430041,3.197
-0.002571667864450318,3.198
-0.0028340841786192237,3.199
-0.003291539656897165,3.2
-0.003745139108294236,3.201
-0.003956164998836125,3.202
-0.003718508669198279,3.203
-0.002929362843183068,3.204
-0.0016304162060495498,3.205
4.428765235891586e-06,3.206
0.0017374710037717112,3.207
0.003348541460095238,3.208
0.004661236464217371,3.209
0.005502135870644753,3.21
0.005660425715179692,3.211
0.004918108117756965,3.212
0.0031746859730865037,3.213
0.0006001349552713395,3.214
-0.002338277094621935,3.215
-0.005041391579024364,3.216
-0.0069974700685209775,3.217
-0.00788248711834345,3.218
-0.007538245950509867,3.219
-0.005946656804989071,3.22
-0.0032650339288196515,3.221
0.00010946055559715156,3.222
0.003529668186403369,3.223
0.0062490529063306535,3.224
0.007732336492267341,3.225
0.007909764948718286,3.226
0.0071452205977695,3.227
0.005960979147082051,3.228
0.004782611324532662,3.229
0.0038624463745614837,3.23
0.0033102933015424158,3.231
0.003125891695002052,3.232
0.0032090732142591215,3.233
0.0033801693793448716,3.234
0.0034574577629531205,3.235
0.003344681359119073,3.236
0.003026481364158248,3.237
0.0024884328823143865,3.238
0.0016691636889484334,3.239
0.000497786572515778,3.24
-0.0010264046490063494,3.241
-0.002799070066688395,3.242
-0.0046473286531464745,3.243
-0.006379739325406753,3.244
-0.00781508951211363,3.245
-0.008804273024772474,3.246
-0.009253254944576008,3.247
-0.00916174584013494,3.248
-0.00866402413704591,3.249
-0.007995836925036623,3.25
-0.007342423693552853,3.251
-0.006642205358539272,3.252
-0.005534222213030421,3.253
-0.003576700682591609,3.254
-0.0005909169527924805,3.255
0.0031695044603377454,3.256
0.007142797151781455,3.257
0.0107342106936395,3.258
0.013535627646460822,3.259
0.015366602028200903,3.26
0.016138859200422635,3.261
0.015698238237771604,3.262
0.013828420800759963,3.263
0.010436015053153577,3.264
0.0057737038787278325,3.265
0.0005118728993545468,3.266
-0.0044348011374747255,3.267
-0.008218020466013345,3.268
-0.010315703849959732,3.269
-0.010634230014367184,3.27
-0.009441127307713527,3.271
-0.007198945033936987,3.272
-0.004401792537505847,3.273
-0.0014732395990004494,3.274
0.0012573826396931787,3.275
0.0035285487811688573,3.276
0.005122060890638926,3.277
0.005850951031669339,3.278
0.005567970348890199,3.279
0.004218427447018175,3.28
0.0019008170935101189,3.281
-0.0011151297920663637,3.282
-0.004396691028568233,3.283
-0.0073609158494560315,3.284
-0.00933580682540635,3.285
-0.009733831532214238,3.286
-0.008291470816967706,3.287
-0.005210430684420245,3.288
-0.0011024690749596466,3.289
0.0032111937002263476,3.29
0.006921370948259765,3.291
0.009376750598406938,3.292
0.010185166958147562,3.293
0.009341302763766195,3.294
0.007299081866351235,3.295
0.004832064167888218,3.296
0.0026845810108669602,3.297
0.0011824154757178289,3.298
2.3838885349869356e-05,3.299
-0.0015335332518126238,3.3
-0.0041166432357690776,3.301
-0.007740487556362079,3.302
-0.011760961984071156,3.303
-0.015197296486834891,3.304
-0.017110670227993594,3.305
-0.01685614539501177,3.306
-0.01420812597918633,3.307
-0.009400281217096523,3.308
-0.0030626535893228035,3.309
0.003924101107201774,3.31
0.010588411097873927,3.311
0.016040962245446825,3.312
0.019651357510617667,3.313
0.021115894737935233,3.314
0.020393880201983967,3.315
0.017678218017016696,3.316
0.013458393513011169,3.317
0.008492853051942044,3.318
0.003603895226565181,3.319
-0.000547747519741139,3.32
-0.0035741486011401273,3.321
-0.005346013442092087,3.322
-0.005891560393848165,3.323
-0.005308468496842145,3.324
-0.003768294250669789,3.325
-0.0015700369141802228,3.326
0.0008533624634855774,3.327
0.0030125822936677314,3.328
0.004482871462937041,3.329
0.005007169509213777,3.33
0.004536887402330422,3.331
0.003185485679107391,3.332
0.001120356909365358,3.333
-0.0014982331992240104,3.334
-0.004433459629596869,3.335
-0.007244079653236977,3.336
-0.00933970046977762,3.337
-0.010248411079763618,3.338
-0.00987582103959915,3.339
-0.008553070327367357,3.34
-0.006879928803572496,3.341
-0.00551647497162301,3.342
-0.005010495659492511,3.343
-0.005647409585919709,3.344
-0.00735896532078187,3.345
-0.009731563014991992,3.346
-0.01207423908087098,3.347
-0.01354062586859781,3.348
-0.013330226124285622,3.349
-0.0109060995504478,3.35
-0.0061445602517384585,3.351
0.0006109117350867653,3.352
0.008597124304609046,3.353
0.016760229209664298,3.354
0.023943032223545872,3.355
0.029120781704720076,3.356
0.03160736669651725,3.357
0.03113439876110147,3.358
0.027836297374612164,3.359
0.022225287125330517,3.36
0.015115772139555587,3.361
0.007433272952945379,3.362
5.479927229006432e-06,3.363
-0.006528920980573018,3.364
-0.0117099768948474,3.365
-0.015238881790664759,3.366
-0.016974624172218893,3.367
-0.016911892048589533,3.368
-0.015163733340821451,3.369
-0.012002005642897816,3.37
-0.007936214818958287,3.371
-0.0037465583367444835,3.372
-0.00039710492565574326,3.373
0.001204941802197589,3.374
0.000581408445696738,3.375
-0.0020009546648173996,3.376
-0.005569896068404631,3.377
-0.008876037712574858,3.378
-0.010880298818701234,3.379
-0.011004315216706575,3.38
-0.009135382978975985,3.381
-0.0055428038498174775,3.382
-0.0008131492161106442,3.383
0.004213076078470873,3.384
0.008557637634242955,3.385
0.011315189409287626,3.386
0.011960328456968837,3.387
0.010603514735828585,3.388
0.007991403255505678,3.389
0.005260873690526582,3.39
0.003608212112361625,3.391
0.003950222602237782,3.392
0.00660198721183893,3.393
0.011034574759799255,3.394
0.015829107588457403,3.395
0.018999603894398875,3.396
0.018732169126364644,3.397
0.014218666158930996,3.398
0.006048554404857097,3.399
-0.004069247232012102,3.4
-0.013985622187441772,3.401
-0.021779617696114133,3.402
-0.02619374626569607,3.403
-0.02680873356042913,3.404
-0.023987073379049678,3.405
-0.018646177034961072,3.406
-0.01196484696575419,3.407
-0.005108625770384956,3.408
0.0009708273168769327,3.409
0.0056354158261039304,3.41
0.008571458256409394,3.411
0.009744362791972003,3.412
0.009347538375326902,3.413
0.007775420770385156,3.414
0.0055611361343989585,3.415
0.003226730310712178,3.416
0.0011446017686442059,3.417
-0.0004886420199149827,3.418
-0.0016232356587918984,3.419
-0.0023441612081931637,3.42
-0.0028468347320043494,3.421
-0.00334800776397636,3.422
-0.003930768997597235,3.423
-0.004389778746396718,3.424
-0.00420147298410599,3.425
-0.0027368140004194004,3.426
0.0003373627791803754,3.427
0.0047563778038822585,3.428
0.00970464206815081,3.429
0.014147807358026348,3.43
0.017200044209686512,3.431
0.018352625752307727,3.432
0.0175260805034223,3.433
0.014976857125303446,3.434
0.011124957530183194,3.435
0.006442626637064803,3.436
0.0015115197708481308,3.437
-0.002932839785873835,3.438
-0.006237073467379073,3.439
-0.008183077700402025,3.44
-0.009053766174061324,3.441
-0.009359895359778157,3.442
-0.009508922549650356,3.443
-0.00965030906409138,3.444
-0.00972439114159921,3.445
-0.009598423965217104,3.446
-0.009170693463591246,3.447
-0.008396150930589054,3.448
-0.007263195078789398,3.449
-0.005780800852512581,3.45
-0.0039903275444677245,3.451
-0.001982471094114728,3.452
0.00010347450215797237,3.453
0.002126871713703332,3.454
0.00398982501986994,3.455
0.00558858336462088,3.456
0.006742938609509643,3.457
0.007238668093253475,3.458
0.0069437007174431055,3.459
0.005870784702912246,3.46
0.0041639536467667805,3.461
0.00205770419583608,3.462
-0.0001780086843246736,3.463
-0.002302835041971306,3.464
-0.004132139157345572,3.465
-0.005497790465138973,3.466
-0.006199738788912427,3.467
-0.0060040118705563545,3.468
-0.004697258383402758,3.469
-0.0022000849358086425,3.47
0.001313986596837072,3.471
0.005392193563128245,3.472
0.009378761468347969,3.473
0.012534959897520723,3.474
0.014222512326065525,3.475
0.014161318774111791,3.476
0.012565762749522355,3.477
0.00996166082750664,3.478
0.006824444394690745,3.479
0.0033530210168039054,3.48
-0.00048178927645928,3.481
-0.004682835579651624,3.482
-0.008970896633354018,3.483
-0.012761734261252777,3.484
-0.015401720721429028,3.485
-0.01643092940446979,3.486
-0.015668694034772324,3.487
-0.013161401207693992,3.488
-0.009133662004499813,3.489
-0.003976240051882512,3.49
0.0017581843208925928,3.491
0.007364701850130151,3.492
0.012044872899181061,3.493
0.015058727994664772,3.494
0.01592355591079636,3.495
0.014546617770151362,3.496
0.011229449773374835,3.497
0.006595831700036081,3.498
0.0015153245863437064,3.499
-0.003005837063666823,3.5
-0.006041023375532217,3.501
-0.007042311017546914,3.502
-0.0060802611101499066,3.503
-0.0038929194811568157,3.504
-0.0016749766455047416,3.505
-0.0006040373787548999,3.506
-0.0013114774388222786,3.507
-0.003655218515239949,3.508
-0.006885194323910146,3.509
-0.00996052603497597,3.51
-0.011864349581155656,3.511
-0.011919562985975683,3.512
-0.010004972329315463,3.513
-0.006540923723609489,3.514
-0.0022640379582468035,3.515
0.0020750001130424535,3.516
0.00593249451759354,3.517
0.009032409270373874,3.518
0.011292638918147097,3.519
0.012691928456448467,3.52
0.013171383083130655,3.521
0.012631938530098773,3.522
0.011046466036579553,3.523
0.008642054978478926,3.524
0.005978001527324838,3.525
0.003771936413665183,3.526
0.002562171828128519,3.527
0.0024298693618535166,3.528
0.0029256858109526886,3.529
0.003224505571649254,3.53
0.00248637855297564,3.531
0.0003041663839258217,3.532
-0.0030378839528863904,3.533
-0.006702038259674802,3.534
-0.009732330073352119,3.535
-0.01146278869108619,3.536
-0.011657319907847703,3.537
-0.010421281193434757,3.538
-0.008076576392563055,3.539
-0.005098167338522964,3.54
-0.002037370630581666,3.541
0.0006289350635470479,3.542
0.002612900162429461,3.543
0.003795380346571375,3.544
0.004140801010245199,3.545
0.0036785370062552753,3.546
0.002568813817194797,3.547
0.0011185240117069228,3.548
-0.00032617546872812776,3.549
-0.001496493211957728,3.55
-0.0022171067764148312,3.551
-0.0023631047502097138,3.552
-0.0018481458287339541,3.553
-0.0006512293751354793,3.554
0.0011631497741475573,3.555
0.003441271151956988,3.556
0.005928138584556753,3.557
0.008255486068792242,3.558
0.009982500299428662,3.559
0.010705492626673193,3.56
0.01018255431358837,3.561
0.008406711349993882,3.562
0.005609494124734208,3.563
0.002228185016308059,3.564
-0.0011468381489694104,3.565
-0.00390114103388068,3.566
-0.005613454431814775,3.567
-0.006209166360186749,3.568
-0.005936548388042032,3.569
-0.00525125587844566,3.57
-0.004714362940078616,3.571
-0.004909567722596242,3.572
-0.006344929966549469,3.573
-0.009285114839591173,3.574
-0.013499241296792867,3.575
-0.018090231820965006,3.576
-0.021632763471735882,3.577
-0.022599604545494548,3.578
-0.019868963991069882,3.579
-0.013163132265883877,3.58
-0.0032667954539091068,3.581
0.00816345999323862,3.582
0.019177299902691188,3.583
0.028175740914645402,3.584
0.03423233448032787,3.585
0.036963896017978434,3.586
0.03622248881339943,3.587
0.03202260710612961,3.588
0.02483808049963955,3.589
0.015856286575751607,3.59
0.006693041623590792,3.591
-0.0012236465847545149,3.592
-0.007035720849709877,3.593
-0.010493654457403346,3.594
-0.011866735424021729,3.595
-0.011832601483166756,3.596
-0.011303269717998807,3.597
-0.0111445135479534,3.598
-0.01186415894955643,3.599
-0.013420330413665854,3.6
-0.015258493487890473,3.601
-0.016574608314754328,3.602
-0.016684936677528243,3.603
-0.015322900416525245,3.604
-0.012680911663793154,3.605
-0.009148502424581673,3.606
-0.004995239138721222,3.607
-0.0003223382386569318,3.608
0.004713754951939328,3.609
0.009687481093936296,3.61
0.013931636707841089,3.611
0.016757048740266605,3.612
0.017657922661255526,3.613
0.016442554254325864,3.614
0.013335858300012313,3.615
0.008981425860660423,3.616
0.0042242663808987726,3.617
-0.00024253250222028148,3.618
-0.004116337555033852,3.619
-0.007477502717691164,3.62
-0.010577028079356739,3.621
-0.013529903269951647,3.622
-0.01608300883254061,3.623
-0.017587751927951895,3.624
-0.0171767047271945,3.625
-0.014062373892605614,3.626
-0.00787133103020303,3.627
0.0010535781120988245,3.628
0.011494329343898052,3.629
0.02152156104569664,3.63
0.02906074200429863,3.631
0.03260502443680891,3.632
0.03161942179285909,3.633
0.026498485222592887,3.634
0.018312712359588788,3.635
0.008497612021360327,3.636
-0.0014891849574448584,3.637
-0.010431946790131881,3.638
-0.017461946614685805,3.639
-0.022067968280882432,3.64
-0.02408646100908775,3.641
-0.02366883129231496,3.642
-0.02120092820284741,3.643
-0.017203411113668108,3.644
-0.012285222672891047,3.645
-0.0071319946611133845,3.646
-0.0024015810627405912,3.647
0.00150892361603691,3.648
0.004633197423575926,3.649
0.007295905932228823,3.65
0.009738282524487977,3.651
0.011885209015273759,3.652
0.013443875928711494,3.653
0.014176812546362605,3.654
0.014081011715241676,3.655
0.01333388819425466,3.656
0.012094620170818204,3.657
0.010346331152935258,3.658
0.007897412824220044,3.659
0.004539438224619609,3.66
0.00026864250004814827,3.661
-0.004554265172699666,3.662
-0.009222390897113984,3.663
-0.012895465541141824,3.664
-0.01490173817497603,3.665
-0.01498483384741694,3.666
-0.013360861288130518,3.667
-0.01055191880050393,3.668
-0.007117979628175473,3.669
-0.003456618767364423,3.67
0.0002027012982203441,3.671
0.0036167262663091655,3.672
0.006387097770792909,3.673
0.008091672691479056,3.674
0.008564174363794714,3.675
0.007959737384931767,3.676
0.006528655816459955,3.677
0.004379299540073581,3.678
0.0014934369755447126,3.679
-0.0019923655066235923,3.68
-0.005556510080620554,3.681
-0.008445498814457983,3.682
-0.010060818094302884,3.683
-0.010191281267656827,3.684
-0.008981571719489363,3.685
-0.0067563932712615725,3.686
-0.003832171767420238,3.687
-0.00042485517865029304,3.688
0.0032961243190708835,3.689
0.007075429552764279,3.69
0.010501581074986636,3.691
0.013056394591713412,3.692
0.014237096761286474,3.693
0.01372036759556068,3.694
0.011523142547040087,3.695
0.008039262159702075,3.696
0.003882291373886641,3.697
-0.00034939351335542125,3.698
-0.004160157058544991,3.699
-0.007062166710711767,3.7
-0.008545054708255678,3.701
-0.008237673002540798,3.702
-0.006090101383773725,3.703
-0.002437485260763036,3.704
0.0020378584058493615,3.705
0.006414720910534838,3.706
0.00970614603521282,3.707
0.011097997534153381,3.708
0.010209571494141638,3.709
0.007279483338290965,3.71
0.0031586816730372913,3.711
-0.0009782080322338531,3.712
-0.004102306387374045,3.713
-0.005710968793160119,3.714
-0.005950060184996507,3.715
-0.005477122565779043,3.716
-0.005154495701006766,3.717
-0.005693937566216382,3.718
-0.007354393747414571,3.719
-0.009827149508415576,3.72
-0.012387639429602106,3.721
-0.014161294356974153,3.722
-0.014320702856113462,3.723
-0.01225809873311591,3.724
-0.007816853217063581,3.725
-0.0014676991804407672,3.726
0.0057462046933765614,3.727
0.01248546884434097,3.728
0.017440364166624464,3.729
0.019605570197666053,3.73
0.018539338449726304,3.731
0.01458063179983118,3.732
0.008837786780878825,3.733
0.00283261608959101,3.734
-0.002046755005245602,3.735
-0.004990075958143386,3.736
-0.005905847827058468,3.737
-0.005268255642788953,3.738
-0.0038102247164118197,3.739
-0.002180557723421946,3.74
-0.0006831832432601337,3.741
0.000743828253958181,3.742
0.0023001232945689624,3.743
0.004070448766442131,3.744
0.00592453079696988,3.745
0.0075086467123050196,3.746
0.008255321215465794,3.747
0.007503483214180008,3.748
0.004776537719156431,3.749
5.6744860754133616e-05,3.75
-0.0060984290930666705,3.751
-0.01258246293303718,3.752
-0.01791547481300511,3.753
-0.020660255219809177,3.754
-0.019966394562203206,3.755
-0.015899601777554253,3.756
-0.009364249915851365,3.757
-0.001747074335302596,3.758
0.005488485104599727,3.759
0.011101838373151365,3.76
0.014243210281111179,3.761
0.014610237688623462,3.762
0.012585199534979698,3.763
0.00909609081694889,3.764
0.005184157007141315,3.765
0.0016596630764128448,3.766
-0.0009285515003992082,3.767
-0.0021992859047778274,3.768
-0.0019529627139911847,3.769
-0.0002580651145429471,3.77
0.002527148102861038,3.771
0.005821951218648579,3.772
0.008969015266042202,3.773
0.011408287903133973,3.774
0.012743686757296712,3.775
0.012697779073870315,3.776
0.011094935128563025,3.777
0.007919472439548174,3.778
0.00341255529849833,3.779
-0.001847607140869345,3.78
-0.007004756199150418,3.781
-0.01116665775585907,3.782
-0.013668583865202262,3.783
-0.014187630613140103,3.784
-0.01274201500629891,3.785
-0.009709876634244323,3.786
-0.005841599797954105,3.787
-0.0021146399580304876,3.788
0.0005463120411375595,3.789
0.0014893880360469236,3.79
0.0004291452557759101,3.791
-0.002487685308029602,3.792
-0.006629025519488335,3.793
-0.010958152945043435,3.794
-0.014284184926493873,3.795
-0.015569189886328487,3.796
-0.014191034189980212,3.797
-0.010115557784685975,3.798
-0.003936671589762189,3.799
0.0032451523930962394,3.8
0.010071031498192044,3.801
0.015200150443543798,3.802
0.017621839847288448,3.803
0.017020951497856263,3.804
0.013935501170753761,3.805
0.00950820601861735,3.806
0.005054774611216787,3.807
0.0017018773921845913,3.808
9.73734085734703e-05,3.809
0.00020481447062417412,3.81
0.0013738403817109878,3.811
0.002765093845479838,3.812
0.0038290100266857303,3.813
0.0044912879095216785,3.814
0.005052505966665278,3.815
0.005957381751122912,3.816
0.007444238239816208,3.817
0.0091835098387936,3.818
0.01027099297814259,3.819
0.009710373107807764,3.82
0.0069793973688548555,3.821
0.0022539271797578594,3.822
-0.003680914782181575,3.823
-0.009620586401215792,3.824
-0.014173335391723234,3.825
-0.01609792124364848,3.826
-0.014776096681967839,3.827
-0.010612682848924611,3.828
-0.005002246467013668,3.829
0.00023904977625813781,3.83
0.0036835685692408176,3.831
0.004839154375674772,3.832
0.004062821610272406,3.833
0.0020289459683580013,3.834
-0.0007207826209984356,3.835
-0.0038919935416311183,3.836
-0.007290662333996502,3.837
-0.010607524936550951,3.838
-0.01333766418777472,3.839
-0.014864889631798398,3.84
-0.014545912063483882,3.841
-0.011806657719217102,3.842
-0.006491528236283036,3.843
0.0006914090907578908,3.844
0.008148158447121245,3.845
0.013912866317656756,3.846
0.016430189137207507,3.847
0.015280091478011388,3.848
0.011403037454254313,3.849
0.006622406229237286,3.85
0.0028378205616611434,3.851
0.0013755941933675112,3.852
0.002628447159921399,3.853
0.00595757585728757,3.854
0.009900932344247364,3.855
0.012670023001635142,3.856
0.012786090141743074,3.857
0.009621107483919073,3.858
0.0035836515906437624,3.859
-0.004103140824344671,3.86
-0.011787052157129337,3.861
-0.01773383341253728,3.862
-0.02047542622042928,3.863
-0.019165441573128494,3.864
-0.013802183223945979,3.865
-0.005264065922558002,3.866
0.004782462395541096,3.867
0.01414199737178719,3.868
0.020684974834659135,3.869
0.02315947064464111,3.87
0.02164405869889432,3.871
0.01728111544154379,3.872
0.011551413599282936,3.873
0.005595542922509159,3.874
-4.928503311715457e-05,3.875
-0.005276431786512954,3.876
-0.010058824600538642,3.877
-0.014180145594167796,3.878
-0.017218400041007192,3.879
-0.018771316289854578,3.88
-0.018689074010372914,3.881
-0.01710831295307414,3.882
-0.014334576089753174,3.883
-0.010770958269172513,3.884
-0.0069368533898330476,3.885
-0.003419900759442138,3.886
-0.0006956985857002382,3.887
0.0010861025297386813,3.888
0.002240122172008612,3.889
0.0034785041919695465,3.89
0.005536315484228175,3.891
0.008660119812744251,3.892
0.012354909164476294,3.893
0.015601193520913974,3.894
0.01736611184141903,3.895
0.01705085171033457,3.896
0.014699828397575608,3.897
0.010998299331020752,3.898
0.007020898474227039,3.899
0.0037565351609677175,3.9
0.001691368305252061,3.901
0.0006965473727291156,3.902
0.00020613505388143228,3.903
-0.00046731511717127674,3.904
-0.0018362338445811577,3.905
-0.004100860517030771,3.906
-0.007215971403309578,3.907
-0.010987559978659711,3.908
-0.01502359993064709,3.909
-0.018626304471867743,3.91
-0.020848392925585848,3.911
-0.020857742276774262,3.912
-0.01844136520254505,3.913
-0.014170634796572873,3.914
-0.009015610455421558,3.915
-0.003740257023258433,3.916
0.0014847083956024288,3.917
0.007035130036607103,3.918
0.013370174222756135,3.919
0.020478136709708196,3.92
0.02767099636646391,3.921
0.03374462636305657,3.922
0.03723024629035279,3.923
0.036771632171088996,3.924
0.03171691622737218,3.925
0.02256751134465765,3.926
0.010838863289239485,3.927
-0.0016100749107241922,3.928
-0.013257139969046726,3.929
-0.0231648525287759,3.93
-0.030805031275482474,3.931
-0.035768171326140755,3.932
-0.03762216967636422,3.933
-0.03604615102372827,3.934
-0.03118124246281453,3.935
-0.023844578953564857,3.936
-0.01528829074653343,3.937
-0.006699599516342501,3.938
0.0011052671756911886,3.939
0.007661467965182758,3.94
0.01267990646064666,3.941
0.01589657776346794,3.942
0.017079532702082765,3.943
0.01620662630701776,3.944
0.013651936749511193,3.945
0.010204587492891586,3.946
0.0068988779663542565,3.947
0.004776723845551585,3.948
0.004684619977804118,3.949
0.007089418155703404,3.95
0.01188690332666845,3.951
0.01825910981728842,3.952
0.024682605878310105,3.953
0.02920366050363521,3.954
0.030021579872585042,3.955
0.02617341533988338,3.956
0.01790444209765558,3.957
0.006508194821285365,3.958
-0.006144325500750035,3.959
-0.018082162634886146,3.96
-0.027655078779693136,3.961
-0.03387928893471794,3.962
-0.03655362016371454,3.963
-0.036071731053713973,3.964
-0.03308654132955944,3.965
-0.02823466684846536,3.966
-0.022040093963424046,3.967
-0.015017730482802232,3.968
-0.007853177654160983,3.969
-0.0014650235082776172,3.97
0.003120122851466975,3.971
0.005033472027912041,3.972
0.003948987682027965,3.973
0.000511973961435736,3.974
-0.0034810833752001035,3.975
-0.005517139835272959,3.976
-0.0034945736170163173,3.977
0.0029383654623144316,3.978
0.01183139964809695,3.979
0.019870480588899366,3.98
0.02424877373397913,3.981
0.02406392921767654,3.982
0.020397663977074175,3.983
0.01541908774248203,3.984
0.011354101263748216,3.985
0.00973218966916689,3.986
0.010942724404930344,3.987
0.014186387355578834,3.988
0.017829594072958813,3.989
0.01999692150912057,3.99
0.019219562618457448,3.991
0.014959042277587825,3.992
0.007791544517290575,3.993
-0.0008510244207081786,3.994
-0.009190629397139116,3.995
-0.015579319443387894,3.996
-0.018876263453921946,3.997
-0.018773309958120418,3.998
-0.0159865178470714,3.999
-0.012144238622981491,4.0
-0.009331754012421234,4.001
-0.009394036335922269,4.002
-0.013185711404149,4.003
-0.020079762351451216,4.004
-0.02799564377355994,4.005
-0.033966520339863804,4.006
-0.035109821347792405,4.007
-0.029740576471481376,4.008
-0.01814784022564259,4.009
-0.0025643591873745607,4.01
0.013668942396581504,4.011
0.027260319590111683,4.012
0.03592842667911402,4.013
0.038865276454445555,4.014
0.03661234357628206,4.015
0.030549615205379313,4.016
0.022403662138948323,4.017
0.014020984625709287,4.018
0.007262154497193388,4.019
0.0036276001037910963,4.02
0.0035125657459649717,4.021
0.0056756824238046715,4.022
0.007638725231782036,4.023
0.006897584780943906,4.024
0.0020747123048959273,4.025
-0.006639065628859417,4.026
-0.01774013108088082,4.027
-0.028949570473665122,4.028
-0.0376701222821849,4.029
-0.04145167143680881,4.03
-0.03880572201612583,4.031
-0.03003430510849432,4.032
-0.017145236852176195,4.033
-0.002840428540755199,4.034
0.0104684922127502,4.035
0.02108519432532019,4.036
0.028032676328902096,4.037
0.03096524592967273,4.038
0.03018636978498388,4.039
0.026628423904393867,4.04
0.0215822519881264,4.041
0.01628194999567901,4.042
0.011604852727566258,4.043
0.007974719800702808,4.044
0.005390394253950561,4.045
0.0034743119758388103,4.046
0.001550484604284059,4.047
-0.0011090374877711067,4.048
-0.004860476319119306,4.049
-0.009323356133206546,4.05
-0.01337371119112532,4.051
-0.015631525543411986,4.052
-0.015185551117776086,4.053
-0.012036441664896938,4.054
-0.007030915638941443,4.055
-0.0014871584440532626,4.056
0.003275101224357239,4.057
0.006377262243305957,4.058
0.007565758225720214,4.059
0.007042895345906528,4.06
0.005188860523109196,4.061
0.002365148366454482,4.062
-0.001178012737682151,4.063
-0.00525308448452666,4.064
-0.009634062882546797,4.065
-0.01406822466401981,4.066
-0.018355510219690976,4.067
-0.022332730364997822,4.068
-0.025719510670420463,4.069
-0.02789818463561626,4.07
-0.027756972407357583,4.071
-0.023813682089703497,4.072
-0.014845763800031662,4.073
-0.0008540839541751685,4.074
0.016327876816149237,4.075
0.03329881430309378,4.076
0.04615205981256163,4.077
0.05191021399386618,4.078
0.04964724923910286,4.079
0.040651882504463895,4.08
0.02770232064921868,4.081
0.014067763584215978,4.082
0.0026129947012358376,4.083
-0.0048962871838431786,4.084
-0.008117287719651124,4.085
-0.007926100060053523,4.086
-0.005820754568250948,4.087
-0.0033536885849353663,4.088
-0.001870207130621014,4.089
-0.002378910512386577,4.09
-0.005293138023998826,4.091
-0.010180929342011185,4.092
-0.015876774586895303,4.093
-0.02095836971799614,4.094
-0.024207565178792377,4.095
-0.024793839488011747,4.096
-0.022317406517012913,4.097
-0.016918361260179482,4.098
-0.00933221346459195,4.099
-0.0007380902178989092,4.1
0.0074796912631238405,4.101
0.013955454526751222,4.102
0.017585205001232403,4.103
0.017791164001795198,4.104
0.014737320586837471,4.105
0.009343672512945614,4.106
0.0030127119664120263,4.107
-0.0027804984007571854,4.108
-0.0068394363672493064,4.109
-0.008472530737229622,4.11
-0.007541645394835135,4.111
-0.004341301106342843,4.112
0.0005350868147406442,4.113
0.0062251663208657895,4.114
0.011570608150647099,4.115
0.015204641059204353,4.116
0.015933255196628693,4.117
0.013340952688390242,4.118
0.008214901354522608,4.119
0.002390577381585119,4.12
-0.002019573147963703,4.121
-0.0036285478226705556,4.122
-0.0023439690185984045,4.123
0.0008655018119409794,4.124
0.004643286849800778,4.125
0.007751690032173588,4.126
0.00921929592817216,4.127
0.008342305044218292,4.128
0.004797623771892177,4.129
-0.001139816745669754,4.13
-0.008543110460678616,4.131
-0.01611073555789164,4.132
-0.022644521039455218,4.133
-0.02747168245933459,4.134
-0.030597859281148835,4.135
-0.032449112350654195,4.136
-0.03322415860006058,4.137
-0.032270168157620335,4.138
-0.028104582681134648,4.139
-0.01922698569679088,4.14
-0.005210912010148768,4.141
0.012488006403844764,4.142
0.030369189745674933,4.143
0.0437774848605257,4.144
0.04880380830906366,4.145
0.0441648190355347,4.146
0.03181455946035594,4.147
0.015928481060060815,4.148
0.0010723481044988695,4.149
-0.009269818456673445,4.15
-0.013302462380374039,4.151
-0.010845716456869499,4.152
-0.0029628522372393195,4.153
0.008419338220156693,4.154
0.020829683693546874,4.155
0.03161970394248127,4.156
0.038448457704882304,4.157
0.039780567031027156,4.158
0.03520289406791516,4.159
0.025491746839085127,4.16
0.0124160021492629,4.161
-0.0017835145932075039,4.162
-0.015083576174466368,4.163
-0.02622404875062088,4.164
-0.03490221604054906,4.165
-0.041526742613267595,4.166
-0.046657291090704975,4.167
-0.050446958437512714,4.168
-0.05238106434865027,4.169
-0.051450981313770475,4.17
-0.04659346958550401,4.171
-0.037123918937837085,4.172
-0.023134540171275104,4.173
-0.005767644595377541,4.174
0.012900282852525133,4.175
0.03036265524687628,4.176
0.04434759876297265,4.177
0.053405711781721696,4.178
0.05710277993382689,4.179
0.05566655192307759,4.18
0.049476323413536284,4.181
0.039032503472917784,4.182
0.025447624979289183,4.183
0.010708451168819648,4.184
-0.002822814098860621,4.185
-0.013297120722150162,4.186
-0.019980527991582703,4.187
-0.02325696747930548,4.188
-0.02416861579679486,4.189
-0.02390201795518938,4.19
-0.023479667670559957,4.191
-0.023558094994394856,4.192
-0.024248679257935724,4.193
-0.02511553979587325,4.194
-0.0254544021941754,4.195
-0.024675063732641767,4.196
-0.02252319110807859,4.197
-0.019096505258249942,4.198
-0.014684501288652809,4.199
-0.009415945976651883,4.2
-0.002943234643824999,4.201
0.0054414486152282865,4.202
0.01617240235040317,4.203
0.02866552603469546,4.204
0.04102195308741863,4.205
0.050476597960551255,4.206
0.05445834135610663,4.207
0.05167688373629469,4.208
0.04264755888582765,4.209
0.029491982618339876,4.21
0.015108098142701127,4.211
0.0020881786591539606,4.212
-0.00797675423059752,4.213
-0.014505437175169892,4.214
-0.017541007489270996,4.215
-0.017461140098235094,4.216
-0.014921253651038397,4.217
-0.010801401532167593,4.218
-0.006081406204843198,4.219
-0.001718511623201433,4.22
0.0015330574537889032,4.221
0.0033492054570969563,4.222
0.003965775648658797,4.223
0.004145134846993282,4.224
0.004926121935342081,4.225
0.007120848769841444,4.226
0.01080826325076502,4.227
0.015252027534307044,4.228
0.019382687096572107,4.229
0.022521811394221238,4.23
0.024781057054087913,4.231
0.02678780429425963,4.232
0.02892743815634109,4.233
0.030566313404765174,4.234
0.02959253144813908,4.235
0.0224793384869535,4.236
0.005074842160511935,4.237
-0.025769336499648604,4.238
-0.07011403346672382,4.239
-0.12339365282054487,4.24
-0.1763167545618578,4.241
-0.21662318496614552,4.242
-0.23275916480989833,4.243
-0.2181449120559864,4.244
-0.17336875266701762,4.245
-0.10526291582709386,4.246
-0.024475610029347117,4.247
