VaMe,time
0.005703939115198423,0.001
0.0065102718973478815,0.002
0.007321291584167575,0.003
0.008136124494472393,0.004
0.008953977210129355,0.005
0.009774162032994351,0.006
0.010596104653180092,0.007
0.011419333360453768,0.008
0.0122434528389888,0.009
0.013068111400280729,0.01
0.013892978002094688,0.011
0.014717740675477077,0.012
0.015542119133669954,0.013
0.01636587545364626,0.014
0.017188815058468098,0.015
0.018010779115487152,0.016
0.01883163209898636,0.017
0.019651248129010056,0.018
0.02046949873928863,0.019
0.0212862439783467,0.02
0.02210132816077847,0.021
0.022914579776613524,0.022
0.023725813280431596,0.023
0.024534831211647526,0.024
0.025341426847380402,0.025
0.026145388066748827,0.026
0.026946502625352232,0.027
0.027744564241926662,0.028
0.028539378037689415,0.029
0.029330763353306803,0.03
0.03011855211653516,0.031
0.030902581749567448,0.032
0.03168268415898008,0.033
0.032458677147124956,0.034
0.033230365411668024,0.035
0.03399755076819866,0.036
0.034760044468103234,0.037
0.03551767584028453,0.038
0.03627029554774657,0.039
0.037017773602895,0.04
0.037759992664117184,0.041
0.0384968370680558,0.042
0.03922817954322731,0.043
0.03995387176476501,0.044
0.040673745010647015,0.045
0.04138761873372391,0.046
0.042095308013693496,0.047
0.04279662286567583,0.048
0.04349135959932881,0.049
0.04417929321498078,0.05
0.044860181031584644,0.051
0.04553377583225399,0.052
0.04619983645383191,0.053
0.046858125926101335,0.054
0.04750839860870346,0.055
0.04815039223520028,0.056
0.0487838402880102,0.057
0.04940849994939693,0.058
0.050024178549694494,0.059
0.05063074705989123,0.06
0.05122813686308221,0.061
0.0518163200436201,0.062
0.05239527973675118,0.063
0.052964987391616106,0.064
0.05352540310302479,0.065
0.054076495720178606,0.066
0.05461826522435093,0.067
0.055150755696084505,0.068
0.05567405750415578,0.069
0.056188301209711626,0.07
0.05669364607856755,0.071
0.05719026565366043,0.072
0.057678332020094966,0.073
0.05815799956541933,0.074
0.05862938976355519,0.075
0.05909258151266786,0.076
0.05954761143189967,0.077
0.0599944824378849,0.078
0.0604331749896652,0.079
0.06086365789343214,0.08
0.06128589873232967,0.081
0.061699874434172776,0.082
0.06210558152165163,0.083
0.06250304439914267,0.084
0.06289231922185486,0.085
0.06327349088293377,0.086
0.06364666150348862,0.087
0.06401193025007601,0.088
0.06436937015009976,0.089
0.06471901715235268,0.09
0.06506088201653096,0.091
0.06539497671274062,0.092
0.06572134106093624,0.093
0.06604006341896632,0.094
0.06635129354504046,0.095
0.06665524571707031,0.096
0.06695219056007079,0.097
0.06724243530304973,0.098
0.06752629441505427,0.099
0.06780405912946726,0.1
0.06807598232961462,0.101
0.0683422864883502,0.102
0.06860318161599102,0.103
0.06885887691570251,0.104
0.06910958153870712,0.105
0.06935549634402739,0.106
0.06959679978599662,0.107
0.06983363170762123,0.108
0.07006607900404806,0.109
0.07029416679939282,0.11
0.07051785780285696,0.111
0.07073706080381958,0.112
0.07095164704478638,0.113
0.07116147102750428,0.114
0.07136639084229483,0.115
0.07156628281973045,0.116
0.07176104620588605,0.117
0.07195059531197415,0.118
0.07213483943054193,0.119
0.07231365927825623,0.12
0.0724868992258307,0.121
0.07265438590829404,0.122
0.07281595999408329,0.123
0.07297150123825163,0.124
0.07312093733446483,0.125
0.07326423451364159,0.126
0.07340137142604165,0.127
0.07353230613575752,0.128
0.07365695632824594,0.129
0.07377520265353402,0.13
0.0738868984856304,0.131
0.07399186757640987,0.132
0.07408989757733482,0.133
0.07418075008860067,0.134
0.07426418849919977,0.135
0.07434000268911317,0.136
0.07440801128154101,0.137
0.07446804006540168,0.138
0.0745198966196385,0.139
0.07456336876471298,0.14
0.07459825171961215,0.141
0.07462438188553794,0.142
0.07464165655750854,0.143
0.07465003411831302,0.144
0.07464951690174369,0.145
0.0746401208171578,0.146
0.07462184147276113,0.147
0.07459463634586978,0.148
0.07455843614370063,0.149
0.07451317467975513,0.15
0.07445881761551178,0.151
0.07439538027149138,0.152
0.07432293229025813,0.153
0.07424158895007642,0.154
0.07415148985135216,0.155
0.07405276939702965,0.156
0.0739455338678574,0.157
0.07382986380841022,0.158
0.07370584282479768,0.159
0.07357359405104004,0.16
0.07343330671373027,0.161
0.07328524648212177,0.162
0.07312974979441446,0.163
0.07296720521129565,0.164
0.0727980261935651,0.165
0.07262261993668455,0.166
0.07244136071052305,0.167
0.07225458176314571,0.168
0.0720625916160204,0.169
0.07186570227951057,0.17
0.07166425288331273,0.171
0.0714586212606172,0.172
0.07124922250934801,0.173
0.07103649642017656,0.174
0.07082088726390842,0.175
0.07060281979264187,0.176
0.07038267763778319,0.177
0.0701607936426134,0.178
0.06993745542983998,0.179
0.06971291668781543,0.18
0.06948740256484817,0.181
0.0692611050776785,0.182
0.06903417370664132,0.183
0.068806715133853,0.184
0.06857881112064222,0.185
0.06835054597237958,0.186
0.06812202779816567,0.187
0.06789339331513813,0.188
0.0676647924056917,0.189
0.06743636131200025,0.19
0.06720821030346091,0.191
0.06698044194007478,0.192
0.06675318341411704,0.193
0.0665266079594737,0.194
0.0663009371091306,0.195
0.06607642719233402,0.196
0.06585334666103335,0.197
0.06563195122597536,0.198
0.0654124621790013,0.199
0.06519505208649168,0.2
0.06497984142660378,0.201
0.06476690646423844,0.202
0.06455629413084531,0.203
0.06434803844723,0.204
0.06414217350845437,0.205
0.06393873784963813,0.206
0.0637377659467279,0.207
0.06353927052082949,0.208
0.06334323321371825,0.209
0.06314961868791247,0.21
0.06295840434321012,0.211
0.06276960677805453,0.212
0.06258329438954403,0.213
0.06239958344425445,0.214
0.062218617856974114,0.215
0.062040539925580784,0.216
0.06186547236065666,0.217
0.061693529385743254,0.218
0.06152484941412933,0.219
0.061359626911902526,0.22
0.06119812928568612,0.221
0.06104069565099639,0.222
0.060887719643255955,0.223
0.06073962140447296,0.224
0.060596816031231765,0.225
0.06045968814197574,0.226
0.060328581073354925,0.227
0.0602037994262944,0.228
0.06008561446889817,0.229
0.05997426471726574,0.23
0.05986995162939098,0.231
0.059772833132120104,0.232
0.059683017407604406,0.233
0.05960055897325907,0.234
0.05952545781925201,0.235
0.059457659943934024,0.236
0.05939705769814738,0.237
0.059343492127585454,0.238
0.05929676064800718,0.239
0.0592566296853333,0.24
0.059222849484483246,0.241
0.05919516891094567,0.242
0.05917334858831387,0.243
0.059157170527219125,0.244
0.05914644222901616,0.245
0.05914099326040398,0.246
0.059140662627737185,0.247
0.05914527919133306,0.248
0.05915464722451205,0.249
0.05916855199595923,0.25
0.059186785012669565,0.251
0.05920917356736525,0.252
0.05923560105047931,0.253
0.05926601289148155,0.254
0.059300407886031956,0.255
0.0593388174431105,0.256
0.059381277271709554,0.257
0.05942779971842415,0.258
0.05947835953493597,0.259
0.05953289904078575,0.26
0.059591343903703166,0.261
0.059653619160099404,0.262
0.059719663578784055,0.263
0.05978944347525816,0.264
0.05986296511989758,0.265
0.05994028247217268,0.266
0.06002149537268858,0.267
0.06010673366096385,0.268
0.060196130616728794,0.269
0.060289805531785964,0.27
0.06038787553503713,0.271
0.060490490186830254,0.272
0.060597863744871694,0.273
0.060710287634267966,0.274
0.060828119441660396,0.275
0.060951752857246945,0.276
0.06108158053545454,0.277
0.061217968956169426,0.278
0.06136125636814925,0.279
0.061511763586581336,0.28
0.06166980009646646,0.281
0.0618356581722138,0.282
0.06200959917279707,0.283
0.06219184409236727,0.284
0.062382577038798334,0.285
0.06258195553243447,0.286
0.06279011540142242,0.287
0.06300716527420923,0.288
0.06323317467651808,0.289
0.06346816527924745,0.29
0.06371211107434366,0.291
0.06396494270476208,0.292
0.06422654859186128,0.293
0.06449677142222325,0.294
0.06477540259457742,0.295
0.0650621776482464,0.296
0.0653567749851277,0.297
0.06565881916361246,0.298
0.06596788909810822,0.299
0.06628353086255623,0.3
0.06660527429567392,0.301
0.06693265170097538,0.302
0.06726521525584954,0.303
0.06760254772789184,0.304
0.06794426005718618,0.305
0.06828997279918501,0.306
0.0686392925023335,0.307
0.0689918077864212,0.308
0.069347114581536,0.309
0.06970484820729413,0.31
0.07006469501647535,0.311
0.07042637513268793,0.312
0.07078960745774063,0.313
0.07115408259358592,0.314
0.07151945986406519,0.315
0.0718853748787327,0.316
0.07225143661989152,0.317
0.07261721519562236,0.318
0.07298223730077054,0.319
0.0733459954337611,0.32
0.0737079578979529,0.321
0.07406756626472259,0.322
0.07442422183508089,0.323
0.0747772748137978,0.324
0.07512602616353795,0.325
0.07546973577065934,0.326
0.07580762350785748,0.327
0.07613886143243669,0.328
0.07646257285293385,0.329
0.07677785366668084,0.33
0.07708381102134036,0.331
0.07737960210695168,0.332
0.07766445873552015,0.333
0.07793768712956184,0.334
0.0781986392422959,0.335
0.07844667453794718,0.336
0.07868115348634454,0.337
0.07890148160928821,0.338
0.07910717365475334,0.339
0.07929789760208475,0.34
0.07947348196749968,0.341
0.07963388596231562,0.342
0.07977914180732414,0.343
0.07990929744857439,0.344
0.08002439956221351,0.345
0.0801245260754813,0.346
0.08020983153176514,0.347
0.08028056661068521,0.348
0.0803370607905321,0.349
0.08037967824019197,0.35
0.08040877447679394,0.351
0.08042468440469193,0.352
0.08042774301995825,0.353
0.08041831074283881,0.354
0.08039678147481266,0.355
0.08036357228128153,0.356
0.08031910266003082,0.357
0.08026377156560945,0.358
0.08019793778871881,0.359
0.08012190534548531,0.36
0.08003591360256489,0.361
0.07994013433978121,0.362
0.07983467933138322,0.363
0.07971961755508557,0.364
0.07959499666629878,0.365
0.07946086322912639,0.366
0.07931727778720964,0.367
0.07916432281778142,0.368
0.07900210386534863,0.369
0.07883074566397748,0.37
0.07865038502629518,0.371
0.07846116086315373,0.372
0.07826319992945883,0.373
0.07805659843732664,0.374
0.07784140815775079,0.375
0.077617640930394,0.376
0.07738529389281198,0.377
0.07714438183067573,0.378
0.07689496203910863,0.379
0.07663714478834739,0.38
0.07637108756992055,0.381
0.07609697416762534,0.382
0.0758149838708935,0.383
0.07552526461352614,0.384
0.07522792768634372,0.385
0.07492306702532497,0.386
0.07461078689823207,0.387
0.0742912212297858,0.388
0.07396453807744748,0.389
0.07363092929355618,0.39
0.07329058918519833,0.391
0.07294368852984263,0.392
0.0725903519040066,0.393
0.0722306470122243,0.394
0.07186458898752296,0.395
0.07149215347401641,0.396
0.0711132913630743,0.397
0.07072794257503705,0.398
0.0703360477916958,0.399
0.06993755695682498,0.4
0.0695324340408642,0.401
0.06912065844711145,0.402
0.06870222400638362,0.403
0.06827713651565197,0.404
0.06784541016379682,0.405
0.06740706206343541,0.406
0.06696210283423935,0.407
0.06651052221782443,0.408
0.06605227679363862,0.409
0.06558729541308721,0.41
0.06511550961610621,0.411
0.06463689737416833,0.412
0.06415152235605458,0.413
0.06365955685053383,0.414
0.06316128245834451,0.415
0.06265706807235129,0.416
0.06214733035436464,0.417
0.06163248956262165,0.418
0.06111294078687445,0.419
0.06058905061111909,0.42
0.06006116613252533,0.421
0.059529618494284994,0.422
0.05899471724078243,0.423
0.0584567413483878,0.424
0.05791593349597291,0.425
0.0573725019407424,0.426
0.05682663136139177,0.427
0.05627850103610472,0.428
0.05572830619263415,0.429
0.05517627662996663,0.43
0.054622686206614944,0.431
0.05406784799736375,0.432
0.053512094163811315,0.433
0.05295575100549861,0.434
0.052399130632530835,0.435
0.05184254829423969,0.436
0.05128634826077907,0.437
0.050730917328755,0.438
0.05017667979776316,0.439
0.049624077461437224,0.44
0.049073543878616704,0.441
0.048525487434410444,0.442
0.047980290811614895,0.443
0.04743831818246507,0.444
0.04689991757614226,0.445
0.04636541536028317,0.446
0.045835107003972454,0.447
0.04530924949293761,0.448
0.04478805842511714,0.449
0.04427171047408474,0.45
0.04376035091120534,0.451
0.043254103389715165,0.452
0.04275307674745587,0.453
0.04225736434991414,0.454
0.04176703757975987,0.455
0.041282144244576,0.456
0.0408027202159393,0.457
0.04032880772527035,0.458
0.03986046780807144,0.459
0.039397780709647306,0.46
0.038940834255840225,0.461
0.03848970689860491,0.462
0.0380444591318673,0.463
0.037605140294202484,0.464
0.03717180131890652,0.465
0.036744500813780466,0.466
0.03632330077972285,0.467
0.03590825541442454,0.468
0.03549940160670598,0.469
0.03509675920686395,0.47
0.0347003393439115,0.471
0.03431015155382035,0.472
0.03392620309411677,0.473
0.033548491255852436,0.474
0.03317699662253622,0.475
0.03281168530734703,0.476
0.03245251871214228,0.477
0.032099462493435434,0.478
0.031752489211441484,0.479
0.031411574229938184,0.48
0.031076686830206122,0.481
0.03074778027279028,0.482
0.030424786432852922,0.483
0.030107618171182175,0.484
0.029796176369675846,0.485
0.029490356491385497,0.486
0.029190051932154255,0.487
0.028895153086393923,0.488
0.028605542115550192,0.489
0.02832108670981555,0.49
0.0280416394124715,0.491
0.02776704515053682,0.492
0.027497151138462506,0.493
0.02723181123371411,0.494
0.026970881681557392,0.495
0.026714212974514158,0.496
0.026461648801705265,0.497
0.02621303741635035,0.498
0.025968247885077556,0.499
0.025727181135507916,0.5
0.02548977216668882,0.501
0.02525598417181626,0.502
0.025025796668159375,0.503
0.024799191282675735,0.504
0.02457614193323844,0.505
0.02435661591074196,0.506
0.024140584967525774,0.507
0.02392803914868719,0.508
0.023718997216700812,0.509
0.02351351098367347,0.51
0.02331166255583539,0.511
0.023113554641431677,0.512
0.02291929653955316,0.513
0.02272899235914413,0.514
0.02254273779454585,0.515
0.02236062383683522,0.516
0.022182739591306865,0.517
0.022009169483825034,0.518
0.021839986902496136,0.519
0.021675249450450983,0.52
0.021514997890443092,0.521
0.021359257168142572,0.522
0.02120803985812998,0.523
0.0210613530627914,0.524
0.020919205385932695,0.525
0.020781609084006086,0.526
0.020648575963910332,0.527
0.020520110534101035,0.528
0.020396206927955445,0.529
0.02027685211304467,0.53
0.02016203063556742,0.531
0.020051725520561208,0.532
0.019945914592298806,0.533
0.01984456545558379,0.534
0.019747633933987107,0.535
0.01965506773791079,0.536
0.019566812278008276,0.537
0.01948281493805292,0.538
0.019403026362795093,0.539
0.019327398513286815,0.54
0.01925587976480036,0.541
0.01918840899878131,0.542
0.019124912842571194,0.543
0.01906530844775945,0.544
0.019009509250617968,0.545
0.018957430037350485,0.546
0.018908990021005382,0.547
0.018864113845736354,0.548
0.018822730480438213,0.549
0.018784770063586816,0.55
0.0187501589811273,0.551
0.018718814327972073,0.552
0.018690640275605873,0.553
0.018665528072435544,0.554
0.018643358217586503,0.555
0.018624002184487596,0.556
0.01860732292540043,0.557
0.01859317510413187,0.558
0.01858140635925889,0.559
0.01857186043965537,0.56
0.01856438221617852,0.561
0.018558823711873423,0.562
0.018555049590025872,0.563
0.018552940062097012,0.564
0.018552389151303028,0.565
0.01855329775455941,0.566
0.018555565654594482,0.567
0.018559090529588762,0.568
0.01856377680606085,0.569
0.01856954778704786,0.57
0.018576353371107957,0.571
0.01858417079856475,0.572
0.018592999249712187,0.573
0.018602850325279228,0.574
0.018613737094973843,0.575
0.018625665313008737,0.576
0.018638630376178723,0.577
0.018652620090557636,0.578
0.018667619273398602,0.579
0.018683612432768563,0.58
0.018700583162122305,0.581
0.018718510401177932,0.582
0.018737363800067446,0.583
0.0187571022663562,0.584
0.01877767692132643,0.585
0.01879903434149948,0.586
0.018821116037136626,0.587
0.018843856368097565,0.588
0.018867185446621977,0.589
0.01889103930545,0.59
0.018915371906292208,0.591
0.018940162114502276,0.592
0.018965412575538024,0.593
0.018991140969604147,0.594
0.019017367648455973,0.595
0.019044107199409358,0.596
0.01907136891514874,0.597
0.019099162952519278,0.598
0.01912750604568187,0.599
0.019156424507167893,0.6
0.0191859551481466,0.601
0.019216144754672176,0.602
0.019247047949328664,0.603
0.01927872273597412,0.604
0.01931122396703212,0.605
0.019344597877917608,0.606
0.019378881782022402,0.607
0.019414108601436327,0.608
0.01945031152437148,0.609
0.01948752520094598,0.61
0.01952578326379447,0.611
0.019565113722884823,0.612
0.01960553413635644,0.613
0.019647048034021838,0.614
0.019689643102421533,0.615
0.01973329063281758,0.616
0.019777945209451912,0.617
0.019823544161113087,0.618
0.019870007623907043,0.619
0.019917240055834496,0.62
0.019965132311681413,0.621
0.020013562563171862,0.622
0.020062395309841996,0.623
0.020111479302333216,0.624
0.02016064601437884,0.625
0.020209709366830617,0.626
0.02025846693336396,0.627
0.02030670397055772,0.628
0.020354200892639226,0.629
0.020400742100579874,0.63
0.020446122759215413,0.631
0.0204901505539883,0.632
0.0205326407490295,0.633
0.02057340750742861,0.634
0.020612261176410594,0.635
0.020649018157721105,0.636
0.020683517475585913,0.637
0.02071563374320535,0.638
0.02074528154431902,0.639
0.02077241074049918,0.64
0.020796994426595317,0.641
0.02081901352793653,0.642
0.020838444621033413,0.643
0.02085525668957668,0.644
0.020869415876684286,0.645
0.020880892335560067,0.646
0.020889665416427505,0.647
0.020895727103552513,0.648
0.02089908436892896,0.649
0.02089976046205704,0.65
0.020897794616555013,0.651
0.020893239428847157,0.652
0.0208861552361287,0.653
0.020876602026280562,0.654
0.0208646329107449,0.655
0.020850295167761736,0.656
0.020833639989842466,0.657
0.02081473537212376,0.658
0.02079367587958752,0.659
0.02077058595237091,0.66
0.020745615555990343,0.661
0.020718928840444698,0.662
0.020690690498009683,0.663
0.020661058810206034,0.664
0.020630189674403995,0.665
0.020598245058425932,0.666
0.020565397621480016,0.667
0.020531829331173687,0.668
0.020497725431274687,0.669
0.020463266193681648,0.67
0.020428619861249327,0.671
0.020393939226043507,0.672
0.020359360928160288,0.673
0.020325005456865178,0.674
0.020290978454130658,0.675
0.020257374272332807,0.676
0.020224279668295854,0.677
0.02019177434946152,0.678
0.02015992815984211,0.679
0.02012879954883287,0.68
0.020098439713194655,0.681
0.02006890034831226,0.682
0.020040239647766796,0.683
0.020012523731330983,0.684
0.019985823456786875,0.685
0.01996020780191881,0.686
0.019935736435236752,0.687
0.01991245559440763,0.688
0.019890399203054614,0.689
0.01986959236389973,0.69
0.019850053590964506,0.691
0.01983179478452924,0.692
0.0198148193759274,0.693
0.019799119254980867,0.694
0.019784671530680278,0.695
0.019771436846645157,0.696
0.019759360259943293,0.697
0.019748373734986314,0.698
0.019738398741404817,0.699
0.019729348259870258,0.7
0.019721127855283457,0.701
0.019713635299436077,0.702
0.019706758436646578,0.703
0.01970037273840829,0.704
0.01969434199033565,0.705
0.019688523710866875,0.706
0.019682776500670917,0.707
0.019676965300559467,0.708
0.019670962449556857,0.709
0.019664644208425185,0.71
0.019657884020045244,0.711
0.019650546068342534,0.712
0.019642483361225396,0.713
0.019633540898900077,0.714
0.019623560455112928,0.715
0.01961238414705629,0.716
0.019599856571125042,0.717
0.019585825970766052,0.718
0.019570144232221198,0.719
0.019552664790802234,0.72
0.01953323797934232,0.721
0.019511706458940906,0.722
0.019487906197067917,0.723
0.019461674931241783,0.724
0.019432863268515874,0.725
0.01940134200318068,0.726
0.019367002055489996,0.727
0.01932974673015035,0.728
0.019289481802195436,0.729
0.01924611408251406,0.73
0.019199562933388346,0.731
0.01914977665894095,0.732
0.01909674310982105,0.733
0.01904048973748952,0.734
0.01898107282863826,0.735
0.018918560871234457,0.736
0.018853024007227156,0.737
0.018784537850935073,0.738
0.018713195366290097,0.739
0.018639115018885627,0.74
0.018562440254667426,0.741
0.018483331345660076,0.742
0.01840195335639581,0.743
0.01831846618001122,0.744
0.01823302125396772,0.745
0.018145763394128593,0.746
0.01805683226585036,0.747
0.01796636050856495,0.748
0.017874469955549685,0.749
0.01778126963291406,0.75
0.017686857395322404,0.751
0.017591323137161295,0.752
0.017494750765062156,0.753
0.017397218097548194,0.754
0.017298795027693513,0.755
0.017199540684062778,0.756
0.017099500899552034,0.757
0.016998707426383566,0.758
0.016897179198428015,0.759
0.016794924768579536,0.76
0.01669194537643841,0.761
0.016588238865363696,0.762
0.016483804514667008,0.763
0.016378648086502766,0.764
0.016272785660801356,0.765
0.016166244565969445,0.766
0.01605906017049987,0.767
0.015951269267903093,0.768
0.015842904413631287,0.769
0.01573399437218429,0.77
0.015624570533919723,0.771
0.015514674176288672,0.772
0.01540436036251149,0.773
0.01529369732813902,0.774
0.015182761732969903,0.775
0.015071631377641332,0.776
0.014960379104122701,0.777
0.01484907182291594,0.778
0.014737774390483736,0.779
0.014626554009987186,0.78
0.014515481629265763,0.781
0.014404629621398515,0.782
0.01429406707175193,0.783
0.014183855818220858,0.784
0.01407405014348309,0.785
0.013964699486849167,0.786
0.013855850991535352,0.787
0.013747549808624568,0.788
0.013639837060598436,0.789
0.0135327466595331,0.79
0.013426303356956524,0.791
0.013320523817593194,0.792
0.013215419818229122,0.793
0.013111001318866571,0.794
0.013007278043272334,0.795
0.012904259131315494,0.796
0.012801950776169043,0.797
0.0127003528280564,0.798
0.012599457133751888,0.799
0.012499249466702335,0.8
0.012399713183777422,0.801
0.012300831425664778,0.802
0.012202586393947572,0.803
0.012104956376735134,0.804
0.012007913323113675,0.805
0.011911423584927036,0.806
0.011815451011540462,0.807
0.011719959457806864,0.808
0.011624913039862952,0.809
0.01153027429519656,0.81
0.0114360011482781,0.811
0.011342043928197501,0.812
0.01124834390674397,0.813
0.01115483401544859,0.814
0.011061441039900232,0.815
0.010968088498091753,0.816
0.010874700057102156,0.817
0.010781203287554407,0.818
0.01068753304072584,0.819
0.010593633354814771,0.82
0.01049945677592594,0.821
0.010404960584485734,0.822
0.01031010174703946,0.823
0.010214835363995896,0.824
0.010119119453213511,0.825
0.0100229230417139,0.826
0.009926232909141576,0.827
0.009829056963245675,0.828
0.009731424020349497,0.829
0.00963338034382304,0.83
0.009534983603702987,0.831
0.00943629575156587,0.832
0.009337378304183387,0.833
0.009238293472649468,0.834
0.009139110231153562,0.835
0.009039910814275359,0.836
0.00894079399280137,0.837
0.008841873938817312,0.838
0.008743275155961032,0.839
0.008645125579173369,0.84
0.008547551576260666,0.841
0.008450677359934102,0.842
0.008354627210856528,0.843
0.008259527098329963,0.844
0.008165504100897121,0.845
0.008072684042106952,0.846
0.007981188883328135,0.847
0.007891135601155532,0.848
0.007802636628436634,0.849
0.007715800165996491,0.85
0.0076307295640804474,0.851
0.007547523143175956,0.852
0.007466275580869233,0.853
0.0073870797929283995,0.854
0.007310027558632601,0.855
0.0072352084665447194,0.856
0.007162708395053971,0.857
0.007092609194660537,0.858
0.007024989651699466,0.859
0.00695992613729082,0.86
0.006897491943290509,0.861
0.006837756106668921,0.862
0.0067807830508568034,0.863
0.006726633090919014,0.864
0.006675362694287224,0.865
0.006627023929590631,0.866
0.006581663709143587,0.867
0.006539323528431018,0.868
0.006500039523810782,0.869
0.0064638423763343205,0.87
0.006430757342672412,0.871
0.006400804949554676,0.872
0.0063740021483738914,0.873
0.00635036332760366,0.874
0.006329900859260695,0.875
0.006312625123917619,0.876
0.006298544069797292,0.877
0.006287662423421883,0.878
0.0062799807254922575,0.879
0.006275494513239305,0.88
0.006274194043748663,0.881
0.006276064596206382,0.882
0.006281086914035694,0.883
0.00628923736499568,0.884
0.006300487726589999,0.885
0.00631480472238759,0.886
0.006332149537189992,0.887
0.006352477566833527,0.888
0.006375738584589305,0.889
0.006401877363689803,0.89
0.006430834657032604,0.891
0.006462548354408218,0.892
0.00649695461369091,0.893
0.00653398876120109,0.894
0.00657358575890451,0.895
0.006615680060612698,0.896
0.006660204759833431,0.897
0.006707090142974946,0.898
0.006756262249389649,0.899
0.006807642411596852,0.9
0.0068611481444452015,0.901
0.00691669473874811,0.902
0.006974196858346812,0.903
0.007033569970306389,0.904
0.00709473160856131,0.905
0.007157602360745138,0.906
0.007222106342297986,0.907
0.007288170826172231,0.908
0.0073557246796238885,0.909
0.007424695832749476,0.91
0.007495009448901246,0.911
0.0075665887806676225,0.912
0.007639358417986841,0.913
0.0077132475097848804,0.914
0.007788190815767994,0.915
0.007864126738317491,0.916
0.007940993504452981,0.917
0.008018727245177947,0.918
0.008097264521994154,0.919
0.008176547045938109,0.92
0.008256524806825991,0.921
0.008337156046868495,0.922
0.008418404182157347,0.923
0.008500233082685014,0.924
0.008582603754442983,0.925
0.008665474555906372,0.926
0.008748803544853356,0.927
0.008832550163692119,0.928
0.008916675148469534,0.929
0.00900113901767269,0.93
0.009085899821033508,0.931
0.009170910750226925,0.932
0.009256118169915215,0.933
0.009341460647549885,0.934
0.00942686909436095,0.935
0.009512267380518915,0.936
0.009597572713819169,0.937
0.009682695461942208,0.938
0.009767538532798669,0.939
0.009851997171762928,0.94
0.009935960267630013,0.941
0.010019313282405245,0.942
0.010101941940987406,0.943
0.010183735605655546,0.944
0.01026458925955828,0.945
0.010344403060272409,0.946
0.01042307920739936,0.947
0.010500518340309075,0.948
0.010576619716110519,0.949
0.010651286726299362,0.95
0.010724434402792731,0.951
0.010795994751570111,0.952
0.0108659180849421,0.953
0.010934170209904465,0.954
0.011000726233074944,0.955
0.011065563034385965,0.956
0.011128654015963071,0.957
0.011189968684114133,0.958
0.011249475637568312,0.959
0.011307145649386218,0.96
0.011362953142888672,0.961
0.01141687590611109,0.962
0.01146889312182279,0.963
0.01151898200578325,0.964
0.011567114614788564,0.965
0.011613257498834286,0.966
0.01165737505798355,0.967
0.01169943424344433,0.968
0.011739407685006203,0.969
0.011777273802831022,0.97
0.011813013598980486,0.971
0.011846605859339747,0.972
0.011878025432240003,0.973
0.011907247731724567,0.974
0.011934256874427243,0.975
0.011959052830268015,0.976
0.011981655160193118,0.977
0.012002102542892305,0.978
0.012020448056438432,0.979
0.012036751454936817,0.98
0.012051072056556575,0.981
0.012063466976304503,0.982
0.012073995595717833,0.983
0.012082726153978905,0.984
0.01208974046156499,0.985
0.0120951356665887,0.986
0.012099023413396758,0.987
0.01210152697120359,0.988
0.012102776978888286,0.989
0.012102906432608217,0.99
0.012102045566235772,0.991
0.012100317682284518,0.992
0.012097837356743716,0.993
0.01209471130243293,0.994
0.012091040398911608,0.995
0.012086921429527244,0.996
0.012082448200427197,0.997
0.01207771215602893,0.998
0.012072802530723533,0.999
0.012067805977638629,1.0
0.012062805551954952,1.001
0.012057878963530895,1.002
0.012053096400290647,1.003
0.012048518981060217,1.004
0.012044198863703273,1.005
0.01204018066101106,1.006
0.012036502830454583,1.007
0.012033198108092079,1.008
0.012030292786404278,1.009
