VaMe,time
0.0026633834073419593,0.001
0.0027778976816805858,0.002
0.0028932051411374535,0.003
0.003009234098185,0.004
0.003125911424844262,0.005
0.003243162663648894,0.006
0.003360911771882818,0.007
0.003479080599756539,0.008
0.003597588476414216,0.009
0.0037163522449130794,0.01
0.0038352865856264773,0.011
0.003954304128893959,0.012
0.00407331513640117,0.013
0.004192227168577958,0.014
0.004310945409263255,0.015
0.004429373754400929,0.016
0.004547416133435414,0.017
0.004664977545743867,0.018
0.004781964591350815,0.019
0.004898285408209879,0.02
0.005013848932403045,0.021
0.005128563485025456,0.022
0.005242335264213383,0.023
0.005355068040128905,0.024
0.0054666647430326905,0.025
0.0055770300454690966,0.026
0.005686072582133132,0.027
0.005793706103442734,0.028
0.005899849369678832,0.029
0.006004424864963127,0.03
0.0061073566125094784,0.031
0.006208567590094578,0.032
0.006307977712157051,0.033
0.006405503540492891,0.034
0.0065010600016489235,0.035
0.006594563303342182,0.036
0.006685934168966231,0.037
0.006775100789384214,0.038
0.006862000746511155,0.039
0.00694658097992126,0.04
0.007028795082429562,0.041
0.007108598843299481,0.042
0.007185947752931751,0.043
0.007260799465340089,0.044
0.007333119371614989,0.045
0.007402885267088033,0.046
0.007470088987231139,0.047
0.007534734697569765,0.048
0.0075968343628702,0.049
0.007656402044786607,0.05
0.007713450025977939,0.051
0.007767988912197571,0.052
0.007820030692152159,0.053
0.007869592371741127,0.054
0.007916699063614923,0.055
0.007961386321895842,0.056
0.008003701306637665,0.057
0.0080437020721441,0.058
0.008081454410598314,0.059
0.00811702695567772,0.06
0.008150487632135257,0.061
0.00818190456323128,0.062
0.00821135066201967,0.063
0.008238908337838214,0.064
0.008264671827939682,0.065
0.008288746615218452,0.066
0.00831124638377571,0.067
0.008332288469875847,0.068
0.008351989098792551,0.069
0.008370459827981742,0.07
0.008387806025278522,0.071
0.008404126868219728,0.072
0.008419515728967292,0.073
0.00843406053971853,0.074
0.008447844466977125,0.075
0.008460947162355075,0.076
0.008473446461662065,0.077
0.008485420082267253,0.078
0.008496946747852578,0.079
0.008508106291466673,0.08
0.00851897859103371,0.081
0.008529641537675743,0.082
0.008540168648327698,0.083
0.008550627368435577,0.084
0.00856107882377995,0.085
0.00857157862984989,0.086
0.00858217773377823,0.087
0.008592922674386338,0.088
0.008603855136384266,0.089
0.008615010999177618,0.09
0.008626419649088621,0.091
0.008638104492657304,0.092
0.008650084690968694,0.093
0.00866237716198375,0.094
0.008674997876582208,0.095
0.00868796192094507,0.096
0.008701282190007171,0.097
0.008714967263804146,0.098
0.008729019970381094,0.099
0.008743437810380863,0.1
0.008758214642577904,0.101
0.008773342241125847,0.102
0.00878881110508645,0.103
0.008804610598144155,0.104
0.008820728621346875,0.105
0.008837150969085938,0.106
0.008853860476130999,0.107
0.008870836065162752,0.108
0.008888051817407917,0.109
0.00890547618079318,0.11
0.008923071389112225,0.111
0.008940793087285617,0.112
0.008958590056385917,0.113
0.008976403852791007,0.114
0.008994168351406694,0.115
0.009011809687651912,0.116
0.00902924718337876,0.117
0.009046395215537493,0.118
0.009063165546822417,0.119
0.009079469661507758,0.12
0.00909522064268355,0.121
0.009110334058372001,0.122
0.009124727377488775,0.123
0.009138317700861629,0.124
0.009151018738358227,0.125
0.009162739622712223,0.126
0.009173387200326786,0.127
0.009182870111862565,0.128
0.009191101949372447,0.129
0.009198002290958013,0.13
0.00920349556459106,0.131
0.009207508191836718,0.132
0.00920996487077597,0.133
0.009210785338048878,0.134
0.009209883080661925,0.135
0.00920716632179658,0.136
0.009202540240884776,0.137
0.009195909609663742,0.138
0.009187181920196482,0.139
0.009176271166393805,0.14
0.009163101957760603,0.141
0.009147613128503018,0.142
0.009129759690392276,0.143
0.009109512042001264,0.144
0.009086851801894297,0.145
0.00906176543660418,0.146
0.009034240135851232,0.147
0.009004266242800783,0.148
0.008971845026027504,0.149
0.00893699688034927,0.15
0.008899766549582779,0.151
0.008860224376402309,0.152
0.008818463760520848,0.153
0.008774595650124471,0.154
0.008728741221466779,0.155
0.008681024457232765,0.156
0.008631567371601536,0.157
0.00858048983511529,0.158
0.008527912665955532,0.159
0.008473960932135429,0.16
0.008418765759046183,0.161
0.008362464508085119,0.162
0.008305199708233712,0.163
0.008247117211001638,0.164
0.00818836400916778,0.165
0.008129086066223172,0.166
0.00806942640604611,0.167
0.008009523630164203,0.168
0.007949510952368382,0.169
0.007889515760366523,0.17
0.007829659638249097,0.171
0.0077700587218885305,0.172
0.007710824215514224,0.173
0.007652062870319889,0.174
0.007593877220577041,0.175
0.007536365402809542,0.176
0.007479620523774091,0.177
0.007423729967004525,0.178
0.007368775427055642,0.179
0.007314834015463305,0.18
0.007261979836628933,0.181
0.007210285198350687,0.182
0.0071598210352592255,0.183
0.007110656490556694,0.184
0.007062857851512317,0.185
0.007016487201164911,0.186
0.00697160119003604,0.187
0.00692825023722622,0.188
0.00688647822187999,0.189
0.006846322548385242,0.19
0.006807814516009829,0.191
0.00677097992278102,0.192
0.006735839709962512,0.193
0.006702410427077264,0.194
0.00667070437098189,0.195
0.006640729336864904,0.196
0.006612488068294471,0.197
0.0065859777396401545,0.198
0.006561189840356863,0.199
0.0065381104246227,0.2
0.006516720343429156,0.201
0.0064969952370712005,0.202
0.006478905388018399,0.203
0.006462415650795068,0.204
0.006447485639546318,0.205
0.00643407027316333,0.206
0.006422120685788375,0.207
0.006411585414498702,0.208
0.006402411677022849,0.209
0.006394546470627,0.21
0.006387937191577013,0.211
0.006382531514881131,0.212
0.006378276388702153,0.213
0.0063751163908379194,0.214
0.006372992464773399,0.215
0.006371842183791238,0.216
0.006371601467077661,0.217
0.006372206573322724,0.218
0.00637359540848508,0.219
0.006375707831820523,0.22
0.006378484957760882,0.221
0.006381867563922134,0.222
0.006385794077956126,0.223
0.00639019937730269,0.224
0.006395015558509761,0.225
0.00640017434282328,0.226
0.006405609714335796,0.227
0.006411259638967582,0.228
0.006417066243480098,0.229
0.006422974182017116,0.23
0.006428927839260194,0.231
0.006434869585351628,0.232
0.006440741030579997,0.233
0.006446486485669721,0.234
0.006452056301517491,0.235
0.006457408698188398,0.236
0.006462509828847271,0.237
0.0064673322851848914,0.238
0.006471852426736974,0.239
0.006476047079989478,0.24
0.006479890661135148,0.241
0.006483354090348382,0.242
0.006486405701105741,0.243
0.006489012731290385,0.244
0.006491142108102858,0.245
0.0064927604432869915,0.246
0.006493833848025452,0.247
0.006494328339962519,0.248
0.006494211478420635,0.249
0.006493455381807218,0.25
0.006492040556416647,0.251
0.006489959278004434,0.252
0.006487216982640321,0.253
0.006483830484227612,0.254
0.0064798233321038245,0.255
0.006475221353603591,0.256
0.006470052290900888,0.257
0.006464349715695899,0.258
0.006458157510565603,0.259
0.006451531834799947,0.26
0.006444540043002135,0.261
0.006437257290632114,0.262
0.006429761900498491,0.263
0.006422130937028665,0.264
0.006414437635830873,0.265
0.006406751000134072,0.266
0.00639913597286716,0.267
0.006391653110027192,0.268
0.006384358592943622,0.269
0.006377305398633443,0.27
0.006370544968870512,0.271
0.00636412826562364,0.272
0.006358105734947475,0.273
0.0063525262350188705,0.274
0.006347435432625684,0.275
0.006342874725740556,0.276
0.006338881554398823,0.277
0.006335490878816768,0.278
0.006332737031261323,0.279
0.006330655465886707,0.28
0.006329284211978542,0.281
0.006328664835533858,0.282
0.006328842714350378,0.283
0.006329866510741983,0.284
0.006331786848234531,0.285
0.006334654326810851,0.286
0.006338517284658874,0.287
0.0063434201843975396,0.288
0.006349403397224541,0.289
0.006356504092654051,0.29
0.006364757204247322,0.291
0.006374195815971426,0.292
0.006384850931895578,0.293
0.006396750851801454,0.294
0.006409920434094594,0.295
0.006424380496747699,0.296
0.006440147502580249,0.297
0.006457233550667145,0.298
0.006475646600864737,0.299
0.006495390812123769,0.3
0.00651646687155936,0.301
0.006538872214566878,0.302
0.006562601068783901,0.303
0.0065876442825045164,0.304
0.006613988918524307,0.305
0.006641617614710352,0.306
0.00667050784446233,0.307
0.006700631479795265,0.308
0.006731955024774677,0.309
0.006764440403813193,0.31
0.006798045907703639,0.311
0.006832727043253383,0.312
0.0068684371846386766,0.313
0.006905127952736979,0.314
0.0069427492634802,0.315
0.0069812490216343065,0.316
0.0070205724791293335,0.317
0.007060661309759036,0.318
0.007101452524626612,0.319
0.007142877586682044,0.32
0.007184862249856217,0.321
0.007227327267802741,0.322
0.0072701895305842465,0.323
0.0073133631240515674,0.324
0.007356760066043539,0.325
0.0074002905960704815,0.326
0.007443862936749438,0.327
0.007487382512205964,0.328
0.007530750713415389,0.329
0.007573863664256607,0.33
0.007616611929539298,0.331
0.007658881758136159,0.332
0.0077005574045618625,0.333
0.007741523709543109,0.334
0.007781668407470079,0.335
0.00782088371298901,0.336
0.007859066679000198,0.337
0.007896117894145802,0.338
0.007931938634542881,0.339
0.007966428064781405,0.34
0.007999483082286601,0.341
0.008031001546672214,0.342
0.008060886798393773,0.343
0.008089051162458677,0.344
0.008115417601650925,0.345
0.008139919521332457,0.346
0.008162498987608074,0.347
0.00818310376788839,0.348
0.008201683665492735,0.349
0.00821818676555406,0.35
0.008232556623426137,0.351
0.00824473146495403,0.352
0.00825464538120306,0.353
0.008262230473099987,0.354
0.00826741924802846,0.355
0.00827014733487438,0.356
0.00827035669556859,0.357
0.00826799921417011,0.358
0.008263040187502227,0.359
0.00825546093494004,0.36
0.008245259616523518,0.361
0.008232449509819315,0.362
0.00821705446140457,0.363
0.00819910267558776,0.364
0.008178622470723368,0.365
0.008155643420847061,0.366
0.008130201946517812,0.367
0.008102347523785107,0.368
0.008072146930030222,0.369
0.008039685806939853,0.37
0.008005067493541743,0.371
0.007968409376215051,0.372
0.007929837333604061,0.373
0.007889479590113475,0.374
0.007847462389356609,0.375
0.007803909293919017,0.376
0.0077589430645089545,0.377
0.0077126875296202185,0.378
0.0076652680948392235,0.379
0.007616811015265765,0.38
0.007567441961546103,0.381
0.007517284353767046,0.382
0.007466457806186107,0.383
0.007415076879991845,0.384
0.007363250212348278,0.385
0.007311079994446681,0.386
0.007258661717696196,0.387
0.007206084089496258,0.388
0.00715342902453034,0.389
0.007100771639914141,0.39
0.00704818022847517,0.391
0.0069957162388712265,0.392
0.006943434317155121,0.393
0.006891382456995273,0.394
0.0068396022768281274,0.395
0.006788129391622243,0.396
0.006736993803241068,0.397
0.006686220225963587,0.398
0.006635828288673251,0.399
0.006585832603013364,0.4
0.00653624273932087,0.401
0.006487063178765698,0.402
0.006438293291930036,0.403
0.006389927341315978,0.404
0.00634195445104595,0.405
0.006294358462508647,0.406
0.006247117696538059,0.407
0.006200204885342842,0.408
0.006153587553046961,0.409
0.006107228774172117,0.41
0.006061088003952536,0.411
0.006015121724090644,0.412
0.005969283704459174,0.413
0.005923524674120674,0.414
0.0058777915743340094,0.415
0.00583202746251439,0.416
0.005786173109245979,0.417
0.005740169912390724,0.418
0.005693962872764174,0.419
0.00564750262298533,0.42
0.005600745868192879,0.421
0.00555365391508899,0.422
0.005506189796929962,0.423
0.005458315995362157,0.424
0.005409995029820359,0.425
0.005361192902262131,0.426
0.005311883300115077,0.427
0.005262050771415449,0.428
0.005211692158230563,0.429
0.005160816028050962,0.43
0.005109440053136828,0.431
0.005057586881689815,0.432
0.005005280423414784,0.433
0.004952545113371124,0.434
0.004899408464218616,0.435
0.0048459043785915815,0.436
0.004792074848922928,0.437
0.0047379694710368275,0.438
0.004683643187736774,0.439
0.004629153066497123,0.44
0.0045745554121878465,0.441
0.00451990462089616,0.442
0.004465253926062692,0.443
0.004410656694892738,0.444
0.0043561670752239314,0.445
0.004301839768234504,0.446
0.004247729118927676,0.447
0.004193887862972264,0.448
0.004140366172997968,0.449
0.004087211634233751,0.45
0.0040344700976653585,0.451
0.003982186781309486,0.452
0.003930407124949544,0.453
0.003879177232176705,0.454
0.0038285438371782696,0.455
0.003778553762796362,0.456
0.0037292529287934525,0.457
0.0036806852665553034,0.458
0.003632892234360155,0.459
0.0035859132441041536,0.46
0.0035397864328051416,0.461
0.0034945490574849773,0.462
0.0034502372643948286,0.463
0.0034068854375598353,0.464
0.003364525770329356,0.465
0.003323188600131293,0.466
0.0032829032372505354,0.467
0.003243698599504238,0.468
0.0032056032946151725,0.469
0.0031686451817606377,0.47
0.003132850626154531,0.471
0.003098243769757368,0.472
0.003064846120630225,0.473
0.003032676463900266,0.474
0.0030017508523074487,0.475
0.0029720826146872707,0.476
0.0029436824609454415,0.477
0.002916558588569259,0.478
0.0028907167436514926,0.479
0.002866160488082093,0.48
0.0028428918895446326,0.481
0.002820912499291097,0.482
0.0028002243080211806,0.483
0.0027808304362457706,0.484
0.0027627354156014856,0.485
0.0027459450171386556,0.486
0.0027304656897260728,0.487
0.0027163037508713926,0.488
0.0027034645011447395,0.489
0.0026919514621796593,0.49
0.0026817659704296147,0.491
0.002672907202488743,0.492
0.002665372436157697,0.493
0.0026591573294406706,0.494
0.0026542561604958608,0.495
0.0026506620380167337,0.496
0.0026483670843750287,0.497
0.002647362593192904,0.498
0.0026476391621388356,0.499
0.002649186791241382,0.5
0.0026519949218232466,0.501
0.002656052384966107,0.502
0.0026613472416796968,0.503
0.002667866527424404,0.504
0.0026755959439569606,0.505
0.002684519551258167,0.506
0.002694619497749751,0.507
0.0027058758038098368,0.508
0.002718266200539963,0.509
0.002731766029993385,0.51
0.0027463482255116983,0.511
0.002761983391313342,0.512
0.002778639975972768,0.513
0.0027962844952789286,0.514
0.002814881733297137,0.515
0.002834394856266024,0.516
0.0028547854094317783,0.517
0.0028760132107664214,0.518
0.0028980361830074665,0.519
0.0029208101618448095,0.52
0.0029442886855306507,0.521
0.0029684227927519744,0.522
0.002993160987464655,0.523
0.0030184495515284495,0.524
0.0030442331766802415,0.525
0.0030704557127656153,0.526
0.0030970608040880184,0.527
0.0031239921979083103,0.528
0.003151193556185841,0.529
0.0031786077749249657,0.53
0.0032061762434866677,0.531
0.0032338388150063052,0.532
0.0032615347681339726,0.533
0.0032892041380825905,0.534
0.00331678860968968,0.535
0.0033442315589291803,0.536
0.003371477136858556,0.537
0.0033984688393225494,0.538
0.0034251488560872534,0.539
0.0034514591122272527,0.54
0.003477343283682907,0.541
0.003502748496450549,0.542
0.0035276261027504235,0.543
0.003551931436822156,0.544
0.0035756226528566248,0.545
0.0035986588987028337,0.546
0.0036209984042530952,0.547
0.0036425975199285963,0.548
0.003663411264996454,0.549
0.003683394701401197,0.55
0.003702504189496538,0.551
0.00372069822524297,0.552
0.0037379379103507104,0.553
0.003754187153861753,0.554
0.0037694127141255545,0.555
0.003783584155754444,0.556
0.0037966737305585325,0.557
0.003808656124687729,0.558
0.003819507977101506,0.559
0.0038292070800829982,0.56
0.003837731208588402,0.561
0.003845056796747809,0.562
0.0038511582549337112,0.563
0.0038560086990951695,0.564
0.003859581909938335,0.565
0.0038618547270251238,0.566
0.003862809270125646,0.567
0.0038624346030135055,0.568
0.0038607275125538006,0.569
0.0038576921924755652,0.57
0.003853338833332893,0.571
0.0038476813525623464,0.572
0.003840734761290195,0.573
0.0038325130608059285,0.574
0.003823028611810365,0.575
0.003812292996832295,0.576
0.003800318433557457,0.577
0.003787118977688285,0.578
0.003772711398620665,0.579
0.003757115823016133,0.58
0.003740356184108311,0.581
0.003722460444372847,0.582
0.0037034605118715204,0.583
0.003683391767567447,0.584
0.0036622921633930965,0.585
0.003640200921578469,0.586
0.003617156983128759,0.587
0.003593197654316495,0.588
0.0035683581556657526,0.589
0.003542672303014685,0.59
0.003516173723437628,0.591
0.0034888969359427873,0.592
0.003460878068687297,0.593
0.003432155192410027,0.594
0.003402768275860663,0.595
0.0033727587976871685,0.596
0.0033421690784584362,0.597
0.00331104142074017,0.598
0.003279417159070424,0.599
0.0032473357678654063,0.6
0.0032148342756698326,0.601
0.0031819471884476655,0.602
0.0031487068333730865,0.603
0.0031151438499045603,0.604
0.003081287670519415,0.605
0.003047166980814431,0.606
0.0030128101675124773,0.607
0.0029782457339190974,0.608
0.002943502639749137,0.609
0.0029086105077209194,0.61
0.0028735996369872096,0.611
0.0028385007814676214,0.612
0.0028033446919702005,0.613
0.0027681614742909515,0.614
0.002732979873999987,0.615
0.0026978266925622536,0.616
0.0026627265933113985,0.617
0.0026277023716395694,0.618
0.0025927754961911193,0.619
0.0025579667197066663,0.62
0.00252329668205219,0.621
0.002488786441270321,0.622
0.0024544578350231393,0.623
0.002420333582673023,0.624
0.002386437082628925,0.625
0.002352791920499134,0.626
0.002319421159858712,0.627
0.002286346614342012,0.628
0.0022535884712727512,0.629
0.002221165461247913,0.63
0.0021890952991999975,0.631
0.002157395012218204,0.632
0.0021260810182565882,0.633
0.0020951689865635376,0.634
0.0020646735632124727,0.635
0.0020346080753339893,0.636
0.002004984330233736,0.637
0.001975812595022178,0.638
0.0019471017811697842,0.639
0.0019188597824130646,0.64
0.0018910938511587168,0.641
0.001863810874384502,0.642
0.001837017437015998,0.643
0.001810719629441195,0.644
0.001784922673727987,0.645
0.0017596306036540795,0.646
0.001734846250211611,0.647
0.0017105715261841918,0.648
0.001686807769522214,0.649
0.0016635559579442458,0.65
0.0016408167643405832,0.651
0.0016185904949085313,0.652
0.001596876959318061,0.653
0.001575675297469295,0.654
0.001554983763121786,0.655
0.001534799541346065,0.656
0.001515118818237855,0.657
0.0014959372422135165,0.658
0.0014772506267219077,0.659
0.0014590556180000098,0.66
0.0014413501340700089,0.661
0.0014241334789792187,0.662
0.0014074061204984714,0.663
0.0013911691984058274,0.664
0.0013754238774096432,0.665
0.001360170730798548,0.666
0.0013454094241816433,0.667
0.0013311388071173302,0.668
0.00131735720050266,0.669
0.0013040626393432974,0.67
0.001291253015606097,0.671
0.001278926134028928,0.672
0.0012670796736694893,0.673
0.0012557110452355808,0.674
0.0012448171587364153,0.675
0.0012343941552469268,0.676
0.0012244371847060813,0.677
0.0012149402886253433,0.678
0.0012058963717006886,0.679
0.0011972972157213119,0.68
0.0011891335373240902,0.681
0.0011813951123808006,0.682
0.001174070953573703,0.683
0.001167149500567217,0.684
0.0011606187781992487,0.685
0.0011544664852510787,0.686
0.0011486799968766933,0.687
0.0011432462885219965,0.688
0.0011381518023903929,0.689
0.0011333822802057423,0.69
0.0011289226214363447,0.691
0.001124756885427873,0.692
0.0011208685041103512,0.693
0.0011172406195255392,0.694
0.0011138564049915716,0.695
0.0011106992883210156,0.696
0.0011077530562739757,0.697
0.0011050018602062324,0.698
0.0011024301695482914,0.699
0.0011000227227917618,0.7
0.0010977645078820045,0.701
0.0010956407767375032,0.702
0.0010936370751264053,0.703
0.0010917392571644883,0.704
0.0010899334522553657,0.705
0.0010882059545446962,0.706
0.001086543007971674,0.707
0.0010849305089136478,0.708
0.0010833537891143535,0.709
0.0010817977117471439,0.71
0.0010802471313851657,0.711
0.0010786875427737687,0.712
0.0010771057181731818,0.713
0.0010754901936287815,0.714
0.001073831485838493,0.715
0.0010721219516901795,0.716
0.0010703552726528112,0.717
0.0010685256994833713,0.718
0.001066627446531309,0.719
0.0010646546452689832,0.72
0.0010626018154064121,0.721
0.001060464418367819,0.722
0.0010582391623471048,0.723
0.0010559239956444725,0.724
0.0010535178448376284,0.725
0.001051020192577193,0.726
0.0010484306170460665,0.727
0.0010457484241557,0.728
0.0010429724792479424,0.729
0.0010401012836886046,0.73
0.0010371332595940077,0.731
0.0010340671300555272,0.732
0.0010309022392824445,0.733
0.0010276386644003425,0.734
0.0010242770272456978,0.735
0.0010208180656807125,0.736
0.001017262278007538,0.737
0.0010136099974464542,0.738
0.001009861886444981,0.739
0.001006019521283809,0.74
0.0010020858099940363,0.741
0.000998065174112487,0.742
0.000993963499917645,0.743
0.0009897878826037204,0.744
0.0009855462001573472,0.745
0.000981246573693761,0.746
0.000976896861332534,0.747
0.0009725044446227004,0.748
0.0009680764166506392,0.749
0.0009636199513864051,0.75
0.0009591425776373191,0.751
0.0009546522572689088,0.752
0.000950157274389622,0.753
0.0009456659765863164,0.754
0.0009411864421485154,0.755
0.0009367261930677569,0.756
0.0009322920758189199,0.757
0.0009278903023830867,0.758
0.0009235265049346936,0.759
0.0009192057006804067,0.76
0.0009149322200356719,0.761
0.0009107097212834106,0.762
0.000906541324222604,0.763
0.00090242977275916,0.764
0.0008983775349421432,0.765
0.0008943868277422924,0.766
0.0008904596143613808,0.767
0.0008865976476823282,0.768
0.0008828026237870865,0.769
0.0008790764625947926,0.77
0.000875421665437687,0.771
0.0008718416381205362,0.772
0.0008683408406617351,0.773
0.0008649246534844365,0.774
0.0008615989526714767,0.775
0.0008583695962497723,0.776
0.0008552421780496318,0.777
0.0008522221679792954,0.778
0.0008493151572957862,0.779
0.000846526933285199,0.78
0.0008438633776285357,0.781
0.0008413303039017739,0.782
0.0008389333269343262,0.783
0.0008366777986774901,0.784
0.0008345687913136503,0.785
0.0008326110898111942,0.786
0.0008308091728480161,0.787
0.0008291671843475694,0.788
0.0008276888996411758,0.789
0.0008263776700888168,0.79
0.0008252363325679544,0.791
0.0008242671364601366,0.792
0.0008234717821436931,0.793
0.0008228515696464174,0.794
0.0008224075334574652,0.795
0.0008221404456356232,0.796
0.0008220506854846366,0.797
0.0008221381050485981,0.798
0.0008224020109872119,0.799
0.0008228412040159269,0.8
0.0008234539573220396,0.801
0.0008242379972195864,0.802
0.0008251906255623804,0.803
0.0008263089422393349,0.804
0.0008275900000886917,0.805
0.0008290307947054873,0.806
0.0008306280980132309,0.807
0.0008323782250389892,0.808
0.0008342768755650443,0.809
0.0008363191213772147,0.81
0.0008384994633820231,0.811
0.0008408118556612897,0.812
0.0008432496665740372,0.813
0.0008458056054158227,0.814
0.0008484716931526437,0.815
0.0008512393468281436,0.816
0.0008540995560578579,0.817
0.0008570430815325792,0.818
0.0008600606318409812,0.819
0.0008631429975994616,0.82
0.0008662811255176391,0.821
0.0008694661192367871,0.822
0.0008726891592585988,0.823
0.0008759413361283965,0.824
0.0008792134242580127,0.825
0.0008824957304471114,0.826
0.0008857781979335304,0.827
0.0008890507815881365,0.828
0.0008923039077512184,0.829
0.0008955288091938474,0.83
0.0008987176094246062,0.831
0.0009018631110565307,0.832
0.0009049583569460984,0.833
0.0009079962192544059,0.834
0.0009109693258019798,0.835
0.0009138703400606909,0.836
0.0009166922904859733,0.837
0.0009194286881259529,0.838
0.0009220733962784575,0.839
0.0009246203469379379,0.84
0.0009270632361955196,0.841
0.000929395316271062,0.842
0.0009316093516801413,0.843
0.0009336977510997366,0.844
0.0009356528422906805,0.845
0.00093746722394208,0.846
0.0009391341034123296,0.847
0.0009406475216988759,0.848
0.000942002384355281,0.849
0.0009431942528166026,0.85
0.0009442189320370704,0.851
0.000945072083934982,0.852
0.0009457492246424189,0.853
0.0009462462028134777,0.854
0.000946559853499643,0.855
0.0009466884796289767,0.856
0.0009466320137815036,0.857
0.0009463918427468352,0.858
0.0009459703385524331,0.859
0.0009453702263829163,0.86
0.0009445940631383642,0.861
0.0009436441164475473,0.862
0.000942522643819293,0.863
0.000941232288756217,0.864
0.0009397763578758461,0.865
0.0009381589058121285,0.866
0.0009363846074538156,0.867
0.0009344584106965206,0.868
0.0009323850920052296,0.869
0.0009301690367878985,0.87
0.0009278144265507034,0.871
0.000925325575578665,0.872
0.0009227070516896077,0.873
0.0009199634857980917,0.874
0.0009170992750944035,0.875
0.0009141185304446686,0.876
0.0009110253983468162,0.877
0.0009078245219847644,0.878
0.0009045213723372119,0.879
0.0009011223646778086,0.88
0.0008976347651567636,0.881
0.0008940664022632305,0.882
0.0008904252419836284,0.883
0.0008867190200877067,0.884
0.000882955194522733,0.885
0.0008791412463391165,0.886
0.0008752850458690925,0.887
0.0008713949961044959,0.888
0.0008674798535867625,0.889
0.0008635483428426543,0.89
0.000859608908608719,0.891
0.0008556698553666244,0.892
0.0008517396861755111,0.893
0.000847827277901157,0.894
0.0008439417348954524,0.895
0.0008400920381504267,0.896
0.0008362868233256436,0.897
0.0008325344994956855,0.898
0.0008288435096325539,0.899
0.0008252224118826842,0.9
0.0008216797056951398,0.901
0.0008182235919921763,0.902
0.0008148619191266637,0.903
0.0008116023342062907,0.904
0.0008084524132281827,0.905
0.000805419599377509,0.906
0.0008025109926292534,0.907
0.0007997331602031191,0.908
0.000797092082046734,0.909
0.0007945931829273627,0.91
0.0007922413501151087,0.911
0.0007900409159935974,0.912
0.0007879956386846653,0.913
0.0007861087033100209,0.914
0.0007843827437649934,0.915
0.0007828198732450442,0.916
0.0007814217104994749,0.917
0.0007801893877147705,0.918
0.0007791235184402908,0.919
0.0007782241335978719,0.92
0.0007774906777638516,0.921
0.0007769221520560927,0.922
0.0007765173542954064,0.923
0.0007762751042988677,0.924
0.0007761944016908642,0.925
0.0007762745186687284,0.926
0.0007765150425285911,0.927
0.000776915869535661,0.928
0.0007774771277972394,0.929
0.0007781989973039617,0.93
0.0007790814498314991,0.931
0.0007801240456949538,0.932
0.0007813259156795679,0.933
0.0007826858602233913,0.934
0.0007842023834977395,0.935
0.0007858735980495863,0.936
0.0007876971166170243,0.937
0.0007896700814074711,0.938
0.0007917893385803723,0.939
0.0007940516420742417,0.94
0.0007964537928667198,0.941
0.0007989926890336581,0.942
0.0008016652938018287,0.943
0.0008044685334913754,0.944
0.0008073991310004763,0.945
0.0008104534085717496,0.946
0.0008136271806331229,0.947
0.0008169158638489301,0.948
0.0008203147811876699,0.949
0.0008238195181318325,0.95
0.0008274262021238924,0.951
0.0008311316198346896,0.952
0.0008349331193207631,0.953
0.0008388282946109503,0.954
0.0008428145875425656,0.955
0.0008468891056815039,0.956
0.000851048811088465,0.957
0.0008552908533635054,0.958
0.0008596127355540214,0.959
0.0008640122113965424,0.96
0.00086848697943884,0.961
0.0008730343392146773,0.962
0.000877650988486084,0.963
0.0008823329751298338,0.964
0.0008870756976860471,0.965
0.0008918739858048711,0.966
0.0008967223662923311,0.967
0.0009016154501951582,0.968
0.0009065482710768953,0.969
0.0009115164629252399,0.97
0.0009165162342665479,0.971
0.0009215441378266205,0.972
0.0009265966997961332,0.973
0.0009316700962847641,0.974
0.0009367601169195641,0.975
0.0009418624572895705,0.976
0.0009469731327984854,0.977
0.0009520887982574728,0.978
0.0009572068772782467,0.979
0.0009623254688603608,0.98
0.0009674430291721174,0.981
0.0009725579276957462,0.982
0.0009776681498292934,0.983
0.0009827713717925227,0.984
0.0009878652914756213,0.985
0.0009929479094148846,0.986
0.000998017577319786,0.987
0.0010030727843244672,0.988
0.0010081117869157482,0.989
0.0010131323602895672,0.99
0.0010181318781969496,0.991
0.0010231075757897638,0.992
0.001028056689269776,0.993
0.0010329763316024177,0.994
0.0010378632354713856,0.995
0.0010427137085308707,0.996
0.001047524004723229,0.997
0.0010522909102885854,0.998
0.0010570122089487819,0.999
0.0010616868386014377,1.0
0.0010663146781580975,1.001
0.001070896018308797,1.002
0.0010754309671838136,1.003
0.0010799191452436796,1.004
0.0010843597456497848,1.005
0.0010887516610150485,1.006
0.0010930934257599352,1.007
0.001097383002773499,1.008
0.0011016175606769455,1.009
0.0011057933647875236,1.01
0.0011099058366398017,1.011
0.0011139497476331836,1.012
0.0011179194370400853,1.013
0.0011218089147558656,1.014
0.001125611775581361,1.015
0.0011293210647423746,1.016
0.0011329294013317816,1.017
0.0011364294727776282,1.018
0.0011398146531777624,1.019
0.001143079417371863,1.02
0.00114621937876048,1.021
0.0011492309287084437,1.022
0.0011521106277294986,1.023
0.0011548547263052998,1.024
0.0011574591620881053,1.025
0.0011599199603302655,1.026
0.0011622336720679746,1.027
0.0011643976121046495,1.028
0.0011664098770763078,1.029
0.0011682692165319681,1.03
0.0011699748523878524,1.031
0.00117152632707399,1.032
0.0011729234081514427,1.033
0.0011741660101418426,1.034
0.0011752540491193732,1.035
0.0011761871764836083,1.036
0.0011769645129290564,1.037
0.0011775846777310522,1.038
0.0011780462535399747,1.039
0.001178348479479031,1.04
0.0011784918783612475,1.041
0.0011784786551826633,1.042
0.0011783127943759922,1.043
0.0011779998364399372,1.044
0.001177546380560115,1.045
0.0011769594174128736,1.046
0.0011762456699196083,1.047
0.0011754111925614365,1.048
0.0011744613475586803,1.049
0.0011734009838107935,1.05
0.001172234581568054,1.051
0.0011709662988790127,1.052
0.0011695999699832362,1.053
0.0011681391108633015,1.054
0.0011665869573871577,1.055
0.0011649465226934441,1.056
0.0011632206265634218,1.057
0.0011614118344878946,1.058
0.0011595222710279606,1.059
0.0011575533912901483,1.06
0.0011555059307340738,1.061
0.0011533801577245273,1.062
0.001151176296681138,1.063
0.0011488949314259463,1.064
0.001146537312578422,1.065
0.0011441055532101694,1.066
0.0011416027029371553,1.067
0.0011390326962870373,1.068
0.0011364001775671095,1.069
0.001133710208840259,1.07
0.0011309678693339567,1.071
0.0011281778283868881,1.072
0.001125344130495236,1.073
0.0011224703770923103,1.074
0.001119560176432969,1.075
0.0011166175963318145,1.076
0.0011136474765735523,1.077
0.0011106555619290791,1.078
0.0011076484544935228,1.079
0.0011046334161044001,1.08
0.0011016180767132702,1.081
0.0010986101126304979,1.082
0.001095616946194555,1.083
0.0010926454907835964,1.084
0.0010897019430092727,1.085
0.0010867916441749171,1.086
0.0010839190707738484,1.087
0.0010810879728859874,1.088
0.001078301585113283,1.089
0.0010755628107698252,1.09
0.0010728743208342647,1.091
0.0010702385508013677,1.092
0.001067657618804408,1.093
0.0010651332204414672,1.094
0.0010626665579221112,1.095
0.0010602583332340316,1.096
0.001057908796066258,1.097
0.0010556178099870976,1.098
0.0010533848964197476,1.099
0.0010512092318179303,1.1
0.0010490895978403816,1.101
0.001047024306468654,1.102
0.0010450111346094987,1.103
0.00104304730206678,1.104
0.00104112951439645,1.105
0.0010392540753271652,1.106
0.0010374170588674494,1.107
0.0010356145178601283,1.108
0.0010338426867394826,1.109
0.0010320981101625613,1.11
0.0010303776101316285,1.111
0.0010286780415938604,1.112
0.001026995977609332,1.113
0.0010253276790837366,1.114
0.0010236695271878548,1.115
0.001022018652736364,1.116
0.0010203733791687823,1.117
0.0010187332915775585,1.118
0.0010170989060733664,1.119
0.001015471075588694,1.12
0.0010138505034380742,1.121
0.0010122377305610158,1.122
0.0010106335441002576,1.123
0.0010090394179164829,1.124
0.0010074576857704012,1.125
0.0010058913713323844,1.126
0.0010043437444345838,1.127
0.0010028178337504593,1.128
0.0010013162096182064,1.129
0.000999841101238973,1.13
0.0009983945668263345,1.131
0.0009969784571525107,1.132
0.0009955941895072914,1.133
0.0009942425320078677,1.134
0.0009929235393014639,1.135
0.000991636562313876,1.136
0.0009903802077989125,1.137
0.0009891523069429293,1.138
0.0009879500025568465,1.139
0.000986769908963988,1.14
0.0009856082364188674,1.141
0.0009844608516719887,1.142
0.0009833232992842566,1.143
0.000982190801157683,1.144
0.0009810582265439168,1.145
0.0009799200027488515,1.146
0.000978769973750868,1.147
0.000977601335360329,1.148
0.0009764068072825594,1.149
0.0009751790377638777,1.15
0.0009739110951497403,1.151
0.0009725969167653079,1.152
0.0009712316413475093,1.153
0.0009698117806178847,1.154
0.0009683352079716325,1.155
0.0009668009640966376,1.156
0.0009652088993783493,1.157
0.000963559190901884,1.158
0.0009618518415049081,1.159
0.0009600863892322242,1.16
0.0009582619858573854,1.161
0.0009563777150830518,1.162
0.0009544329017987191,1.163
0.0009524272899383095,1.164
0.0009503610728135429,1.165
0.0009482347752900318,1.166
0.000946048978149137,1.167
0.0009438039645654078,1.168
0.0009414995604691838,1.169
0.0009391353471925365,1.17
0.0009367110193379446,1.171
0.0009342265217351167,1.172
0.0009316818651343656,1.173
0.0009290768890980056,1.174
0.0009264113701609985,1.175
0.0009236855306860481,1.176
0.0009209005961065117,1.177
0.0009180590555202834,1.178
0.0009151645020506297,1.179
0.0009122211273837951,1.18
0.0009092332033061208,1.181
0.0009062049982376628,1.182
0.0009031412006188289,1.183
0.0009000474448703943,1.184
0.000896930552781633,1.185
0.0008937984020091497,1.186
0.0008906595130132829,1.187
0.000887522511658092,1.188
0.0008843956611959358,1.189
0.0008812866252810049,1.19
0.0008782024534796723,1.191
0.0008751496204958166,1.192
0.0008721339950998266,1.193
0.0008691607620368895,1.194
0.0008662344057616941,1.195
0.0008633588326323708,1.196
0.0008605375963995806,1.197
0.0008577741358502574,1.198
0.0008550719524917654,1.199
0.0008524346764737882,1.2
0.0008498659933645445,1.201
0.0008473694476935169,1.202
0.0008449481907943599,1.203
0.0008426047814825882,1.204
0.00084034112289402,1.205
0.0008381585188180093,1.206
0.0008360577714492388,1.207
0.0008340392768827168,1.208
0.0008321031194056758,1.209
0.000830249166498111,1.21
0.0008284771510535481,1.211
0.0008267867216747184,1.212
0.0008251774486962998,1.213
0.0008236487824599065,1.214
0.0008221999626276551,1.215
0.0008208298769832402,1.216
0.0008195369010416345,1.217
0.000818318824900057,1.218
0.0008171729731664507,1.219
0.0008160965059363667,1.22
0.0008150868084042488,1.221
0.0008141418778059152,1.222
0.0008132606100381969,1.223
0.0008124428786540673,1.224
0.0008116893365732319,1.225
0.0008110009820333782,1.226
0.0008103787138563528,1.227
0.0008098231738081575,1.228
0.0008093349234428042,1.229
0.0008089146982130941,1.23
0.000808563504689642,1.231
0.0008082825140835899,1.232
0.0008080728060476328,1.233
0.0008079350952845129,1.234
0.0008078696250488835,1.235
0.0008078762819734859,1.236
0.0008079547891932482,1.237
0.0008081048290362661,1.238
0.0008083260628902198,1.239
0.0008086180775426108,1.24
0.0008089803049358532,1.241
0.0008094119663607962,1.242
0.0008099120716184942,1.243
0.0008104794672843922,1.244
0.0008111128996819583,1.245
0.0008118110521656851,1.246
0.0008125725286745034,1.247
0.0008133957750686218,1.248
0.0008142789476710836,1.249
0.0008152197522880707,1.25
0.0008162153060604942,1.251
0.0008172621076501613,1.252
0.0008183561584674766,1.253
0.0008194931786342509,1.254
0.000820668831822579,1.255
0.000821878911746691,1.256
0.0008231194769946178,1.257
0.0008243869456078217,1.258
0.0008256781779681697,1.259
0.0008269905691638555,1.26
0.0008283221380126906,1.261
0.0008296715583013645,1.262
0.0008310380569700259,1.263
0.0008324211255112774,1.264
0.0008338201390474712,1.265
0.0008352342008268196,1.266
0.0008366624189377888,1.267
0.0008381044005341515,1.268
0.0008395606262548608,1.269
0.0008410325779457849,1.27
0.0008425226482976448,1.271
0.000844033914283887,1.272
0.0008455698755788036,1.273
0.0008471342477375119,1.274
0.0008487308667543478,1.275
0.0008503637132391139,1.276
0.0008520370123951604,1.277
0.0008537553310860334,1.278
0.0008555235920838755,1.279
0.0008573469574297634,1.28
0.0008592305821295072,1.281
0.0008611793085638709,1.282
0.0008631974467153485,1.283
0.000865288750915128,1.284
0.0008674565433212063,1.285
0.0008697038517289491,1.286
0.0008720334973539341,1.287
0.0008744481425342948,1.288
0.0008769503190170343,1.289
0.0008795424389204202,1.29
0.0008822267710509929,1.291
0.0008850053577119635,1.292
0.000887879859219175,1.293
0.0008908513760087456,1.294
0.0008939203823111971,1.295
0.0008970868483250448,1.296
0.0009003504516740083,1.297
0.0009037107255079176,1.298
0.000907167067040602,1.299
0.0009107185947970017,1.3
0.0009143639313430287,1.301
0.0009181010980386447,1.302
0.0009219276305446697,1.303
0.0009258408004050742,1.304
0.0009298377853455833,1.305
0.0009339157560802969,1.306
0.0009380719138430167,1.307
0.0009423034989921734,1.308
0.0009466077507514347,1.309
0.0009509817607040473,1.31
0.0009554222396683578,1.311
0.0009599254290849225,1.312
0.0009644873783380988,1.313
0.000969104472741379,1.314
0.0009737739151165875,1.315
0.0009784939853993188,1.316
0.0009832640486088875,1.317
0.0009880843628931229,1.318
0.0009929557844882322,1.319
0.0009978794682212744,1.32
0.001002856624633489,1.321
0.0010078883382036137,1.322
0.0010129754055799673,1.323
0.0010181181478601364,1.324
0.0010233162254416265,1.325
0.001028568583278428,1.326
0.0010338735894475904,1.327
0.0010392292414804058,1.328
0.0010446332757717179,1.329
0.0010500831281917923,1.33
0.0010555757859298512,1.331
0.001061107607917895,1.332
0.0010666741906931378,1.333
0.0010722703265175723,1.334
0.0010778900639457848,1.335
0.0010835268536080933,1.336
0.001089173746597277,1.337
0.0010948236077443344,1.338
0.0011004693085522336,1.339
0.0011061038685442016,1.34
0.0011117205132645993,1.341
0.0011173126153837423,1.342
0.001122873494408476,1.343
0.0011283961069172214,1.344
0.001133872786750514,1.345
0.001139295248795183,1.346
0.0011446548965656088,1.347
0.001149943266487915,1.348
0.001155152435188114,1.349
0.0011602753039444585,1.35
0.0011653057248315081,1.351
0.0011702384747121443,1.352
0.0011750691285301136,1.353
0.0011797939013566767,1.354
0.0011844095060485563,1.355
0.0011889130265402737,1.356
0.0011933017688485832,1.357
0.001197573045112195,1.358
0.0012017238674841195,1.359
0.0012057506115262136,1.36
0.0012096488358575193,1.361
0.001213413391176763,1.362
0.001217038703458623,1.363
0.0012205190178620844,1.364
0.0012238484963694122,1.365
0.0012270211608779605,1.366
0.0012300307264802982,1.367
0.0012328704068665494,1.368
0.0012355327779165527,1.369
0.001238009752638576,1.37
0.001240292673116549,1.371
0.0012423724916968354,1.372
0.001244240003309854,1.373
0.0012458860918257027,1.374
0.0012473019518678989,1.375
0.0012484792406540356,1.376
0.0012494101088480886,1.377
0.0012500870626028387,1.378
0.0012505026236513813,1.379
0.0012506488888123668,1.38
0.0012505173455056777,1.381
0.0012500992195498553,1.382
0.001249386164139457,1.383
0.0012483709125749001,1.384
0.0012470477072868283,1.385
0.0012454124731134028,1.386
0.001243462764229036,1.387
0.0012411975528642894,1.388
0.0012386169417564895,1.389
0.0012357218757545409,1.39
0.0012325139016085317,1.391
0.0012289949782883101,1.392
0.0012251672845361126,1.393
0.001221032931344803,1.394
0.0012165935978637869,1.395
0.001211850389030468,1.396
0.0012068041952223928,1.397
0.0012014563970039146,1.398
0.0011958095415678615,1.399
0.0011898677834172795,1.4
0.001183637039872581,1.401
0.0011771248674406012,1.402
0.001170340091012653,1.403
0.0011632922313213252,1.404
0.0011559908489949102,1.405
0.0011484450795672197,1.406
0.0011406636039811178,1.407
0.0011326549575110681,1.408
0.0011244278556403198,1.409
0.0011159913473532867,1.41
0.0011073548056480394,1.411
0.0010985278423632295,1.412
0.001089520236791773,1.413
0.0010803419358751277,1.414
0.0010710031370741188,1.415
0.0010615144231436353,1.416
0.0010518868878708276,1.417
0.001042132174307036,1.418
0.0010322623483220944,1.419
0.0010222895759705887,1.42
0.001012225741676469,1.421
0.0010020823326884274,1.422
0.0009918707454279103,1.423
0.0009816027541697905,1.424
0.0009712907936146396,1.425
0.0009609479201915096,1.426
0.0009505874763904963,1.427
0.000940222621029531,1.428
0.0009298660274735031,1.429
0.0009195298950734946,1.43
0.0009092260524114032,1.431
0.0008989659141092936,1.432
0.0008887603828984268,1.433
0.0008786199114880995,1.434
0.0008685547171805252,1.435
0.0008585749562826691,1.436
0.000848690726864126,1.437
0.0008389119025675472,1.438
0.0008292479004203572,1.439
0.00081970756139615,1.44
0.0008102992446311221,1.441
0.000801031048142538,1.442
0.0007919110332898001,1.443
0.0007829474195242272,1.444
0.0007741487495541149,1.445
0.0007655240117127173,1.446
0.0007570826957602683,1.447
0.0007488347566268827,1.448
0.000740790473042966,1.449
0.0007329602085133226,1.45
0.0007253541330478723,1.451
0.0007179820594753306,1.452
0.0007108535429689763,1.453
0.0007039782056519725,1.454
0.000697366098563933,1.455
0.0006910279339164102,1.456
0.000684975091904462,1.457
0.0006792193719414501,1.458
0.0006737726290672696,1.459
0.0006686466499396061,1.46
0.0006638534761395801,1.461
0.000659405947705687,1.462
0.0006553181222196407,1.463
0.0006516054241867428,1.464
0.0006482845170266393,1.465
0.0006453729436789328,1.466
0.0006428886326130379,1.467
0.0006408494338642236,1.468
0.0006392728741684797,1.469
0.0006381761623584389,1.47
0.0006375762784189329,1.471
0.0006374900151765868,1.472
0.000637933991654753,1.473
0.0006389247038608571,1.474
0.0006404786495605813,1.475
0.0006426125156469821,1.476
0.0006453433605008404,1.477
0.0006486886882682931,1.478
0.0006526663279270377,1.479
0.0006572941511367865,1.48
0.0006625898561101763,1.481
0.0006685710221749732,1.482
0.0006752553325257545,1.483
0.0006826606922398119,1.484
0.0006908051040518375,1.485
0.0006997063964379344,1.486
0.0007093820592917109,1.487
0.0007198493261788473,1.488
0.0007311253446122059,1.489
0.000743227214523371,1.49
0.000756171855388703,1.491
0.000769975845824482,1.492
0.0007846554451246768,1.493
0.0008002268596726742,1.494
0.0008167066185149002,1.495
0.000834111909416181,1.496
0.000852460810778719,1.497
0.0008717723895326023,1.498
0.0008920666433483712,1.499
0.0009133642846152768,1.5
0.0009356863903339547,1.501
0.0009590539733195346,1.502
0.0009834875878182408,1.503
0.0010090071240124853,1.504
0.0010356318322751466,1.505
0.0010633804405446624,1.506
0.0010922712344715764,1.507
0.001122322089847685,1.508
0.0011535504962847615,1.509
0.001185973604100594,1.51
0.0012196083076480952,1.511
0.0012544713497233324,1.512
0.0012905794045397654,1.513
0.001327949088730818,1.514
0.0013665968709367746,1.515
0.0014065388917568992,1.516
0.0014477907429012176,1.517
0.0014903672639948117,1.518
0.0015342823903488497,1.519
0.0015795490391814133,1.52
0.0016261789841858442,1.521
0.0016741827059991543,1.522
0.0017235693261160511,1.523
0.0017743467380164158,1.524
0.0018265218837378544,1.525
0.0018801010398994413,1.526
0.0019350900491919936,1.527
0.0019914945132179377,1.528
0.0020493199933491035,1.529
0.0021085722524312833,1.53
0.002169257523608215,1.531
0.002231382746359788,1.532
0.00229495568860501,1.533
0.0023599848825041287,1.534
0.0024264793334574978,1.535
0.0024944480042526124,1.536
0.002563899113493892,1.537
0.0026348394110790566,1.538
0.0027072738046699856,1.539
0.0027812055936969693,1.54
0.0028566371079620885,1.541
0.0029335703833412593,1.542
0.0030120076784570337,1.543
0.0030919517447624543,1.544
0.0031734058048672456,1.545
0.003256373258400171,1.546
0.003340857182691499,1.547
0.0034268597013387635,1.548
0.003514381272818441,1.549
0.003603419990648627,1.55
0.003693971115703771,1.551
0.0037860270305756444,1.552
0.003879577512628211,1.553
0.003974610040909095,1.554
0.004071109950022704,1.555
0.004169060376483364,1.556
0.004268441996647201,1.557
0.004369232587210315,1.558
0.004471406508116045,1.559
0.00457493431413105,1.56
0.00467978266828725,1.561
0.004785914500421128,1.562
0.004893289215553213,1.563
0.005001862833401819,1.564
0.005111588036096015,1.565
0.005222414122174885,1.566
0.0053342868606202675,1.567
0.0054471482355700354,1.568
0.005560936072171585,1.569
0.005675583592595467,1.57
0.005791019106661137,1.571
0.005907166086214182,1.572
0.00602394366530241,1.573
0.006141267438821414,1.574
0.006259050485970647,1.575
0.006377204624635017,1.576
0.006495641874958686,1.577
0.00661427601347606,1.578
0.006733023980086323,1.579
0.006851806800292638,1.58
0.006970549651231263,1.581
0.007089180762578018,1.582
0.007207629044064076,1.583
0.007325821244234616,1.584
0.007443680819788054,1.585
0.007561129940348248,1.586
0.007678093323542078,1.587
0.007794501744754106,1.588
0.007910294246468311,1.589
0.008025418870350654,1.59
0.00813983200184495,1.591
0.00825349662895309,1.592
0.008366379915394294,1.593
0.00847845045966507,1.594
0.00858967549455647,1.595
0.008700018260057191,1.596
0.008809436106945526,1.597
0.008917880105599166,1.598
0.009025296241127677,1.599
0.009131627349836122,1.6
0.00923681496755794,1.601
0.009340800767892917,1.602
0.009443527492566444,1.603
0.009544939325178943,1.604
0.009644981725652119,1.605
0.009743600828850792,1.606
0.009840742602288701,1.607
0.009936352011848261,1.608
0.010030372416784564,1.609
0.010122745297294322,1.61
0.010213410247766123,1.611
0.010302305009464326,1.612
0.010389365226086604,1.613
0.010474523622280603,1.614
0.010557708435721975,1.615
0.010638841412438297,1.616
0.010717836502961776,1.617
0.010794600353822894,1.618
0.01086903436991817,1.619
0.01094103732818346,1.62
0.011010507949184739,1.621
0.011077347319711507,1.622
0.01114146114428925,1.623
0.011202761768371445,1.624
0.011261169856977235,1.625
0.011316615499366441,1.626
0.011369038345556123,1.627
0.011418386245856161,1.628
0.011464611892002928,1.629
0.011507667960923984,1.63
0.011547503662222462,1.631
0.011584066163037497,1.632
0.011617306766019323,1.633
0.011647188413414344,1.634
0.011673691615269257,1.635
0.011696817649899037,1.636
0.011716588677206824,1.637
0.011733044715548082,1.638
0.01174623771554499,1.639
0.011756223933093566,1.64
0.011763058030025416,1.641
0.01176679280448657,1.642
0.011767484403499645,1.643
0.011765198889902765,1.644
0.011760016690801895,1.645
0.011752033907325647,1.646
0.011741360640488986,1.647
0.011728116883491976,1.648
0.011712426770047957,1.649
0.011694412531120635,1.65
0.011674190531282708,1.651
0.011651871136996781,1.652
0.011627561347577241,1.653
0.011601367647510413,1.654
0.0115733977064219,1.655
0.01154376086810872,1.656
0.011512567749507405,1.657
0.011479929296871609,1.658
0.01144595559925929,1.659
0.011410754665002304,1.66
0.011374431256519064,1.661
0.01133708577693621,1.662
0.011298813125744791,1.663
0.011259701405164076,1.664
0.011219830535104756,1.665
0.011179271361588923,1.666
0.011138086062748305,1.667
0.011096329955027372,1.668
0.01105405405267037,1.669
0.011011307761158917,1.67
0.010968141346575356,1.671
0.010924607832459729,1.672
0.010880763924513091,1.673
0.010836669642924523,1.674
0.010792386564305798,1.675
0.010747974849532304,1.676
0.010703489865829105,1.677
0.010658980243182264,1.678
0.010614488871956783,1.679
0.010570056233402497,1.68
0.010525724321017576,1.681
0.010481540048130743,1.682
0.010437557656262171,1.683
0.010393839749458997,1.684
0.010350456658927658,1.685
0.010307484021750479,1.686
0.010264998718850024,1.687
0.010223074374259164,1.688
0.010181779238739527,1.689
0.010141178140762316,1.69
0.01010133657169795,1.691
0.010062324048796839,1.692
0.010024215683550008,1.693
0.009987091963851705,1.694
0.009951036988822335,1.695
0.009916135545444788,1.696
0.00988246961264418,1.697
0.009850115371768576,1.698
0.009819142014749545,1.699
0.00978961245428539,1.7
0.009761584548871851,1.701
0.009735111635888246,1.702
0.009710242224042653,1.703
0.009687019147739466,1.704
0.009665478467831378,1.705
0.009645648415647204,1.706
0.009627548840041193,1.707
0.009611191537866826,1.708
0.009596581334034843,1.709
0.009583717435216086,1.71
0.009572594661144313,1.711
0.009563204282724056,1.712
0.009555534245014435,1.713
0.00954956861849091,1.714
0.009545286306830282,1.715
0.009542659653085697,1.716
0.009541654242318995,1.717
0.009542230534731369,1.718
0.009544346445121227,1.719
0.009547959647897484,1.72
0.009553029090983739,1.721
0.009559515671159423,1.722
0.009567382178609037,1.723
0.009576592684300859,1.724
0.009587111528647068,1.725
0.009598902024449922,1.726
0.009611924961961395,1.727
0.009626137013540861,1.728
0.0096414891577133,1.729
0.009657925245414901,1.73
0.009675380893364132,1.731
0.009693783025176941,1.732
0.009713050266882524,1.733
0.009733094077960816,1.734
0.009753820442700185,1.735
0.009775132041842612,1.736
0.009796930748591955,1.737
0.009819120200319005,1.738
0.009841608220771812,1.739
0.00986430890859433,1.74
0.009887144161822403,1.741
0.009910044285439276,1.742
0.009932947254024284,1.743
0.009955796288912534,1.744
0.009978535853624322,1.745
0.010001107606511515,1.746
0.01002344931372014,1.747
0.010045498041307211,1.748
0.010067195312464075,1.749
0.010088491201541346,1.75
0.010109346106510759,1.751
0.010129730126195684,1.752
0.010149620470616886,1.753
0.010168997707676142,1.754
0.010187841826307558,1.755
0.010206129059283305,1.756
0.010223830153352768,1.757
0.010240910308481139,1.758
0.010257330414684965,1.759
0.010273048687304252,1.76
0.01028802156582998,1.761
0.010302202912104565,1.762
0.010315541869353621,1.763
0.010327982094949837,1.764
0.010339464853616202,1.765
0.010349934992849934,1.766
0.010359347099230398,1.767
0.01036767018188509,1.768
0.01037489015306193,1.769
0.010381009751512377,1.77
0.010386045955630854,1.771
0.010390025276989933,1.772
0.010392977677753467,1.773
0.010394930975292944,1.774
0.010395908823764571,1.775
0.01039593354941143,1.776
0.010395031425052177,1.777
0.01039323737334399,1.778
0.01039059791769795,1.779
0.010387172164889746,1.78
0.01038303084360065,1.781
0.010378253709225453,1.782
0.010372925875044712,1.783
0.010367133750828494,1.784
0.010360961216688029,1.785
0.010354486462217358,1.786
0.010347779738686544,1.787
0.010340902188338275,1.788
0.010333905675042039,1.789
0.010326833197434432,1.79
0.010319719497962173,1.791
0.010312591774358625,1.792
0.010305470516180025,1.793
0.010298370456689928,1.794
0.010291301613314098,1.795
0.010284270397629273,1.796
0.010277280780759103,1.797
0.010270335491239655,1.798
0.010263437200100976,1.799
0.01025658961000246,1.8
0.010249798314988073,1.801
0.010243071256945634,1.802
0.01023641860381022,1.803
0.010229851919036708,1.804
0.010223382552056076,1.805
0.010217019218105063,1.806
0.010210765311612215,1.807
0.010204617764008746,1.808
0.010198569017217482,1.809
0.010192611407629622,1.81
0.010186742087812837,1.811
0.01018096724825669,1.812
0.010175304934371285,1.813
0.010169785905858994,1.814
0.010164452217637912,1.815
0.010159353521773743,1.816
0.010154541768484689,1.817
0.010150066528313264,1.818
0.010145973960715466,1.819
0.010142309897670954,1.82
0.010139124094956948,1.821
0.01013647275809689,1.822
0.010134418523287135,1.823
0.010133028210805169,1.824
0.01013236897952469,1.825
0.010132504145187252,1.826
0.010133490855275352,1.827
0.010135380783783845,1.828
0.010138222219670846,1.829
0.01014206116171559,1.83
0.010146940457639371,1.831
0.01015289768756054,1.832
0.010159964079564135,1.833
0.010168166184993698,1.834
0.010177529148006553,1.835
0.010188079172759493,1.836
0.010199843883657083,1.837
0.010212850318573073,1.838
0.01022712168576945,1.839
0.010242675915905169,1.84
0.01025952796822454,1.841
0.01027769406636991,1.842
0.010297194924631601,1.843
0.010318056820909178,1.844
0.010340310633821955,1.845
0.010363989334244098,1.846
0.01038912455902845,1.847
0.01041574312295749,1.848
0.01044386481729992,1.849
0.010473502446719442,1.85
0.01050466342197394,1.851
0.010537351346458244,1.852
0.010571566683131441,1.853
0.010607306453314591,1.854
0.01064456337916545,1.855
0.010683325081111333,1.856
0.010723573857517717,1.857
0.010765287206795959,1.858
0.010808438786525945,1.859
0.01085299920197154,1.86
0.01089893604330999,1.861
0.01094621289526372,1.862
0.010994787486852611,1.863
0.01104460981045378,1.864
0.011095621506324005,1.865
0.011147756984814513,1.866
0.011200945297516765,1.867
0.011255111538994795,1.868
0.011310177245584719,1.869
0.011366059652113908,1.87
0.01142266996938392,1.871
0.011479911634288591,1.872
0.011537680061629842,1.873
0.011595864344333628,1.874
0.011654349542484059,1.875
0.011713017925906866,1.876
0.011771748409732276,1.877
0.011830414516283609,1.878
0.011888882795775954,1.879
0.011947014103533377,1.88
0.01200466798953108,1.881
0.012061708326029076,1.882
0.012118008352377915,1.883
0.012173454106732139,1.884
0.012227945529530848,1.885
0.012281394704044747,1.886
0.01233372102593542,1.887
0.01238484465106636,1.888
0.012434682501001958,1.889
0.012483150614988857,1.89
0.012530171305688583,1.891
0.012575680539230085,1.892
0.01261963273221456,1.893
0.012662002276872876,1.894
0.012702781887339974,1.895
0.012741978181778468,1.896
0.012779605085555468,1.897
0.012815676535169561,1.898
0.012850201885883202,1.899
0.012883186962265772,1.9
0.012914639544526842,1.901
0.012944575503873929,1.902
0.01297302301439229,1.903
0.013000023939889088,1.904
0.013025632208731847,1.905
0.013049909502455943,1.906
0.013072919083942982,1.907
0.013094719662645127,1.908
0.013115362506437316,1.909
0.01313489340219715,1.91
0.013153357310952263,1.911
0.013170802859442355,1.912
0.013187285631081317,1.913
0.013202870010025874,1.914
0.013217629287414092,1.915
0.013231643828269803,1.916
0.013244997302463774,1.917
0.0132577716369558,1.918
0.01327004292311561,1.919
0.013281881211946317,1.92
0.013293354573495605,1.921
0.013304534632165146,1.922
0.013315500774057977,1.923
0.013326341879719192,1.924
0.01333715541342756,1.925
0.013348044227423866,1.926
0.013359111890345289,1.927
0.013370457598815867,1.928
0.013382171954158232,1.929
0.013394334877085044,1.93
0.01340701581937376,1.931
0.01342027508327189,1.932
0.013434165270041279,1.933
0.013448732776313324,1.934
0.013464019382466814,1.935
0.01348006370945451,1.936
0.013496902198465317,1.937
0.013514569302969478,1.938
0.013533096706626753,1.939
0.01355251151752196,1.94
0.013572833714393212,1.941
0.013594073994524527,1.942
0.013616233738434862,1.943
0.013639307540422156,1.944
0.013663286852109697,1.945
0.01368816303750986,1.946
0.013713928939273765,1.947
0.013740578535328363,1.948
0.01376810454167825,1.949
0.013796494648409877,1.95
0.013825728655112748,1.951
0.013855778900421412,1.952
0.013886613691402002,1.953
0.013918201262405155,1.954
0.013950512463290023,1.955
0.013983521786044633,1.956
0.014017206858581129,1.957
0.014051546583363873,1.958
0.014086518102438595,1.959
0.014122092999733337,1.96
0.014158234000417049,1.961
0.01419489401052421,1.962
0.014232017921394245,1.963
0.014269545541371439,1.964
0.014307414078177703,1.965
0.0143455598973015,1.966
0.01438391987100047,1.967
0.014422432604573123,1.968
0.014461039644206895,1.969
0.014499686538686244,1.97
0.014538323464252002,1.971
0.01457690507959384,1.972
0.01461538931846881,1.973
0.014653734879724966,1.974
0.014691897351823165,1.975
0.0147298252136389,1.976
0.014767458979895438,1.977
0.014804735646109592,1.978
0.014841596567807603,1.979
0.014877995475209198,1.98
0.014913904706041,1.981
0.014949318668476697,1.982
0.014984253950799815,1.983
0.01501874606601883,1.984
0.015052843383679274,1.985
0.015086599181360447,1.986
0.01512006365593161,1.987
0.015153279246246293,1.988
0.015186281480699568,1.989
0.01521910352512451,1.99
0.015251781064886642,1.991
0.015284355970124178,1.992
0.015316878613264797,1.993
0.01534940894225628,1.994
0.015382016415867842,1.995
0.015414778915066017,1.996
0.015447780752049368,1.997
0.015481109890693685,1.998
0.015514854459590076,1.999
0.015549098591250624,2.0
0.01558391819555109,2.001
0.015619378648269415,2.002
0.015655536050422546,2.003
0.015692440923561115,2.004
0.015730141664381598,2.005
0.015768686084425772,2.006
0.01580812065515067,2.007
0.015848487820601203,2.008
0.0158898222205312,2.009
0.015932147045103387,2.01
0.015975471775964884,2.011
0.01601979149688908,2.012
0.01606508694922459,2.013
0.016111325242314737,2.014
0.016158461738590157,2.015
0.01620644272417247,2.016
0.016255207861780037,2.017
0.01630469173979758,2.018
0.016354824214615607,2.019
0.016405529517026802,2.02
0.016456724325627788,2.021
0.016508315183157603,2.022
0.01656019612586413,2.023
0.016612248081863703,2.024
0.016664341028265986,2.025
0.016716338308794227,2.026
0.016768102015347907,2.027
0.01681949872304748,2.028
0.01687040476263278,2.029
0.01692070982382288,2.03
0.01697031756748586,2.031
0.017019142230699603,2.032
0.01706710158115217,2.033
0.017114109981294146,2.034
0.01716007757116185,2.035
0.017204917225953874,2.036
0.017248554256429818,2.037
0.017290933246085525,2.038
0.01733201982800084,2.039
0.017371797278452623,2.04
0.017410258728234696,2.041
0.017447397414012644,2.042
0.017483199636689154,2.043
0.017517643874356812,2.044
0.01755070391569493,2.045
0.017582350991128284,2.046
0.01761255239485646,2.047
0.017641267490660566,2.048
0.017668443843757854,2.049
0.017694015589642738,2.05
0.01771790336083063,2.051
0.017740014655624872,2.052
0.01776024629014727,2.053
0.01777849063501815,2.054
0.01779464387381233,2.055
0.017808612714437195,2.056
0.017820316787719028,2.057
0.01782968524545191,2.058
0.017836649027836493,2.059
0.017841135371483224,2.06
0.017843071031306855,2.061
0.017842392444881745,2.062
0.0178390553878306,2.063
0.017833038890790433,2.064
0.017824342055767124,2.065
0.017812974813415948,2.066
0.017798947231317436,2.067
0.017782265378102843,2.068
0.017762937336295043,2.069
0.017740983646377263,2.07
0.017716444662416474,2.071
0.017689381831463825,2.072
0.017659872742327245,2.073
0.017628001655270467,2.074
0.017593850803030532,2.075
0.017557499147274058,2.076
0.01751902950797511,2.077
0.017478538034585617,2.078
0.017436140197636948,2.079
0.017391971383853826,2.08
0.017346182294731196,2.081
0.017298930232147593,2.082
0.0172503693370114,2.083
0.017200645337688388,2.084
0.017149897661411305,2.085
0.017098265076896012,2.086
0.017045889825392464,2.087
0.01699291883226295,2.088
0.016939502527993845,2.089
0.016885792004155773,2.09
0.01683193531242958,2.091
0.01677807370464086,2.092
0.016724338434220228,2.093
0.016670848392075128,2.094
0.016617708481737152,2.095
0.016565008562666145,2.096
0.016512823060141513,2.097
0.016461211356434722,2.098
0.0164102187240655,2.099
0.016359877562527783,2.1
0.01631020906458543,2.101
0.016261225593308008,2.102
0.01621293388276531,2.103
0.016165338788116032,2.104
0.016118446819160772,2.105
0.016072268303219672,2.106
0.01602681696180012,2.107
0.015982106259481082,2.108
0.015938144341535235,2.109
0.015894932630958366,2.11
0.015852471265898754,2.111
0.015810768281189682,2.112
0.015769847403114563,2.113
0.01572975178887532,2.114
0.01569054283572699,2.115
0.01565229408478909,2.116
0.015615082194352344,2.117
0.015578979975609886,2.118
0.015544056005127864,2.119
0.015510379433235438,2.12
0.015478024671999506,2.121
0.015447072710323246,2.122
0.015417608959364582,2.123
0.01538971868054356,2.124
0.015363481505456168,2.125
0.01533896715593589,2.126
0.01531623388263183,2.127
0.015295328799514842,2.128
0.015276287927301773,2.129
0.015259135341490131,2.13
0.015243883051640462,2.131
0.015230532873449854,2.132
0.015219079369744938,2.133
0.015209512167302177,2.134
0.015201816787125545,2.135
0.015195973889706806,2.136
0.015191957320596779,2.137
0.015189731702749296,2.138
0.015189250383870033,2.139
0.015190454262760538,2.14
0.015193271495573092,2.141
0.015197617531731452,2.142
0.015203394990223182,2.143
0.015210494070080351,2.144
0.01521879502926018,2.145
0.015228173206583524,2.146
0.015238505519111484,2.147
0.015249676960387933,2.148
0.015261585868471664,2.149
0.015274147026106818,2.15
0.015287291987055435,2.151
0.015300966332478285,2.152
0.015315123790619199,2.153
0.01532971862125616,2.154
0.015344701014510184,2.155
0.015360020333667353,2.156
0.015375635196146027,2.157
0.015391524984576079,2.158
0.015407698334264166,2.159
0.015424196209389639,2.16
0.01544108833358062,2.161
0.015458463026093553,2.162
0.015476414144291847,2.163
0.015495033647971921,2.164
0.015514414638439092,2.165
0.015534658988128116,2.166
0.015555881353030362,2.167
0.015578207415786933,2.168
0.015601768070481425,2.169
0.015626691975138052,2.17
0.01565309894609146,2.171
0.01568109600855099,2.172
0.01571077608330449,2.173
0.01574221796791628,2.174
0.015775486810154494,2.175
0.015810634680501798,2.176
0.015847700591852074,2.177
0.01588670980384907,2.178
0.015927673036697468,2.179
0.015970586363305193,2.18
0.016015432107823982,2.181
0.016062180397467977,2.182
0.01611079042088917,2.183
0.016161210469266322,2.184
0.016213377322079208,2.185
0.0162672174421581,2.186
0.016322651497602803,2.187
0.016379600521330785,2.188
0.016437990751354263,2.189
0.01649775517779875,2.19
0.016558830892150433,2.191
0.016621153290574037,2.192
0.0166846516511408,2.193
0.016749250679344643,2.194
0.016814876934726372,2.195
0.016881464931130415,2.196
0.016948959398604396,2.197
0.017017313275864865,2.198
0.017086482453373082,2.199
0.01715641905779239,2.2
0.017227066216334942,2.201
0.017298357342320703,2.202
0.01737022017259657,2.203
0.017442582763451894,2.204
0.017515378662316426,2.205
0.017588549788977104,2.206
0.01766204612876047,2.207
0.01773582173522985,2.208
0.017809828166647966,2.209
0.017884009493365157,2.21
0.017958303074395898,2.211
0.01803264506049283,2.212
0.01810697548410243,2.213
0.018181239122658156,2.214
0.018255381377442266,2.215
0.01832934143959918,2.216
0.018403047759194373,2.217
0.018476418416750785,2.218
0.018549362829976733,2.219
0.018621780764926463,2.22
0.018693559663282473,2.221
0.01876457339597123,2.222
0.01883468259037078,2.223
0.01890373440123537,2.224
0.01897156185721577,2.225
0.019037984743019657,2.226
0.019102811323092356,2.227
0.019165838620549276,2.228
0.01922685291991227,2.229
0.019285635434665774,2.23
0.019341974486570584,2.231
0.019395680122438922,2.232
0.01944659603918251,2.233
0.019494605424872746,2.234
0.01953962915808511,2.235
0.019581616516661,2.236
0.01962053082392992,2.237
0.01965633648110217,2.238
0.019688995748733822,2.239
0.01971847695623095,2.24
0.019744767040616232,2.241
0.019767881569391955,2.242
0.019787870665085295,2.243
0.019804821753027446,2.244
0.019818860306130393,2.245
0.01983014954018596,2.246
0.019838889552706906,2.247
0.019845315885005977,2.248
0.019849696991621514,2.249
0.0198523297333654,2.25
0.01985353199101504,2.251
0.019853631972358517,2.252
