VaMe,time
0.004989324169638373,0.001
0.005117621090051839,0.002
0.005247039779428479,0.003
0.0053774970245655685,0.004
0.005508905820188458,0.005
0.005641175124834795,0.006
0.005774209390984435,0.007
0.005907908330179933,0.008
0.006042166930425137,0.009
0.006176875350981302,0.01
0.006311918652997938,0.011
0.006447176842459401,0.012
0.006582525574975294,0.013
0.006717837328086355,0.014
0.006852982652827721,0.015
0.006987831259303523,0.016
0.007122252785119858,0.017
0.0072561171276586,0.018
0.007389294266896166,0.019
0.0075216535601331505,0.02
0.007653062549445979,0.021
0.007783385374898182,0.022
0.007912481121396723,0.023
0.008040202878027083,0.024
0.008166398128522065,0.025
0.008290910158914542,0.026
0.008413579722512332,0.027
0.00853424651245764,0.028
0.008652750235187872,0.029
0.008768931086659945,0.03
0.00888262942427594,0.031
0.008993684472884676,0.032
0.009101932180315749,0.033
0.009207203099269212,0.034
0.009309321615889975,0.035
0.00940810657063635,0.036
0.00950337170540196,0.037
0.009594925587894588,0.038
0.0096825735096984,0.039
0.00976612349252949,0.04
0.009845394985984015,0.041
0.009920226699254752,0.042
0.00999048030681616,0.043
0.010056037777308716,0.044
0.010116793402893981,0.045
0.010172647911816293,0.046
0.01022351266794107,0.047
0.010269322580706243,0.048
0.010310049103014928,0.049
0.010345706757539475,0.05
0.010376351171247376,0.051
0.010402069272642818,0.052
0.01042296518119589,0.053
0.010439149022575409,0.054
0.010450734689436055,0.055
0.010457844301710787,0.056
0.010460611841880114,0.057
0.010459181647585837,0.058
0.01045370267980859,0.059
0.010444322451538075,0.06
0.010431184344644063,0.061
0.010414427987554275,0.062
0.010394189357697807,0.063
0.010370600227688275,0.064
0.010343790141618684,0.065
0.010313891940205175,0.066
0.010281047798086987,0.067
0.010245412349304707,0.068
0.010207151478464752,0.069
0.010166437251163426,0.07
0.01012344187363176,0.071
0.010078335260085794,0.072
0.010031287706382366,0.073
0.009982474008987679,0.074
0.009932075087558329,0.075
0.009880276352472395,0.076
0.00982726387923164,0.077
0.009773220081251062,0.078
0.009718320876267022,0.079
0.009662735182351981,0.08
0.009606625593783117,0.081
0.00955014882218695,0.082
0.009493455696666984,0.083
0.009436691166389486,0.084
0.009379994629046913,0.085
0.009323500610387319,0.086
0.009267339552868759,0.087
0.009211638328968753,0.088
0.009156520121941568,0.089
0.009102103494683676,0.09
0.009048500959794419,0.091
0.008995818067237883,0.092
0.00894415379383623,0.093
0.00889360171470762,0.094
0.008844250843347964,0.095
0.008796185600816854,0.096
0.008749484995946397,0.097
0.008704221435442536,0.098
0.008660459715944263,0.099
0.008618256557826049,0.1
0.008577660812806075,0.101
0.008538714389238164,0.102
0.008501453695757714,0.103
0.008465911149844385,0.104
0.008432116313460867,0.105
0.008400096361279247,0.106
0.008369875756951261,0.107
0.008341475213228101,0.108
0.008314910239176965,0.109
0.008290189840713055,0.11
0.008267315932919291,0.111
0.008246283416308146,0.112
0.0082270802889353,0.113
0.00820968743472979,0.114
0.008194078389698857,0.115
0.0081802194527429,0.116
0.008168070001789773,0.117
0.008157582616979653,0.118
0.008148702870171614,0.119
0.008141369009340496,0.12
0.008135511846728923,0.121
0.008131054851081143,0.122
0.008127914165163978,0.123
0.008125998422445192,0.124
0.00812520857443928,0.125
0.008125438130930822,0.126
0.00812657430345506,0.127
0.008128500504909658,0.128
0.008131100326698707,0.129
0.008134262581619246,0.13
0.008137886510819736,0.131
0.008141885969725711,0.132
0.008146191439097512,0.133
0.008150749055127977,0.134
0.008155516403372216,0.135
0.008160456298764907,0.136
0.008165532419329512,0.137
0.008170710663897443,0.138
0.008175965550462166,0.139
0.008181287585811093,0.14
0.008186688600764694,0.141
0.008192204054101869,0.142
0.008197892174455311,0.143
0.0082038302754076,0.144
0.00821010900366063,0.145
0.008216825542086473,0.146
0.008224077257364066,0.147
0.0082319578780333,0.148
0.008240557144786389,0.149
0.008249962316447746,0.15
0.008260259368595889,0.151
0.008271533247549648,0.152
0.008283867551553246,0.153
0.00829734410900403,0.154
0.008312042787749756,0.155
0.008328041679601265,0.156
0.00834541760914602,0.157
0.008364246769730669,0.158
0.00838460523873271,0.159
0.00840656917971107,0.16
0.008430214660190881,0.161
0.008455617125084072,0.162
0.008482850602717149,0.163
0.00851198668158838,0.164
0.008543093248012093,0.165
0.008576233017975717,0.166
0.008611462185739625,0.167
0.008648829811206953,0.168
0.008688378143092463,0.169
0.008730143253474256,0.17
0.00877415530623892,0.171
0.008820438310077968,0.172
0.008869009511001684,0.173
0.008919878659097477,0.174
0.008973047402674092,0.175
0.009028508954451045,0.176
0.009086248028497062,0.177
0.00914624110233073,0.178
0.009208457149530704,0.179
0.009272858822206825,0.18
0.009339403839332966,0.181
0.009408046256749467,0.182
0.009478737288571923,0.183
0.009551425404024788,0.184
0.009626055549603088,0.185
0.009702567610743987,0.186
0.009780894874686093,0.187
0.009860963796167778,0.188
0.009942695578352246,0.189
0.01002600861290174,0.19
0.010110820544794402,0.191
0.010197049374960397,0.192
0.010284613441394967,0.193
0.01037343031176539,0.194
0.010463414764936643,0.195
0.010554476306288646,0.196
0.010646517280381882,0.197
0.010739432805293813,0.198
0.010833112576783264,0.199
0.010927443345715498,0.2
0.011022310961927084,0.201
0.011117601534190369,0.202
0.011213201590752854,0.203
0.011308997309931037,0.204
0.011404873085265218,0.205
0.011500709801668991,0.206
0.01159638316452631,0.207
0.011691762272087259,0.208
0.011786708449439512,0.209
0.011881074250623555,0.21
0.011974702521390953,0.211
0.012067425606980315,0.212
0.012159065093755589,0.213
0.012249432340070643,0.214
0.012338329516023733,0.215
0.012425550689765105,0.216
0.0125108826826908,0.217
0.012594105509062382,0.218
0.0126749922267889,0.219
0.012753308093552958,0.22
0.012828809172325142,0.221
0.012901241002942803,0.222
0.012970337979122845,0.223
0.013035823341923197,0.224
0.013097409793802594,0.225
0.013154802032305669,0.226
0.013207702584172351,0.227
0.013255820706765113,0.228
0.013298882770668694,0.229
0.013336641859268559,0.23
0.013368883812300215,0.231
0.013395426942726819,0.232
0.013416113722106725,0.233
0.013430798106641374,0.234
0.01343934053666624,0.235
0.013441619043249416,0.236
0.013437549448569236,0.237
0.013427102302393563,0.238
0.013410310706463705,0.239
0.013387268056972058,0.24
0.013358116740983557,0.241
0.013323030445567829,0.242
0.013282195539227394,0.243
0.013235800371408373,0.244
0.013184036985866517,0.245
0.013127109219338445,0.246
0.013065238884804235,0.247
0.012998667451818765,0.248
0.012927654108718475,0.249
0.012852471529314735,0.25
0.012773400584631948,0.251
0.01269072497807073,0.252
0.012604726454985095,0.253
0.012515680944294744,0.254
0.012423855781634727,0.255
0.01232950803207939,0.256
0.012232883833897935,0.257
0.012134218590193443,0.258
0.012033737741810381,0.259
0.01193165778979492,0.26
0.01182818723126369,0.261
0.011723527138018991,0.262
0.011617871218663053,0.263
0.011511405323658084,0.264
0.011404306535196793,0.265
0.011296742362804462,0.266
0.011188870789276594,0.267
0.011080841381729637,0.268
0.010972796928300282,0.269
0.010864875015968348,0.27
0.010757209315539687,0.271
0.010649930473396444,0.272
0.010543166487933702,0.273
0.01043704243074524,0.274
0.01033167939098564,0.275
0.01022719278144125,0.276
0.010123690871737258,0.277
0.010021274776154488,0.278
0.009920040008475028,0.279
0.009820078291587502,0.28
0.009721478329880169,0.281
0.0096243251087613,0.282
0.009528698210629091,0.283
0.009434670691534449,0.284
0.009342309848620497,0.285
0.009251679326379282,0.286
0.009162840948401207,0.287
0.009075855300488732,0.288
0.008990780906435382,0.289
0.008907672382971516,0.29
0.008826578703229797,0.291
0.008747542945690325,0.292
0.008670603686301218,0.293
0.008595796787949497,0.294
0.00852315645250929,0.295
0.008452715257504347,0.296
0.008384503334670492,0.297
0.008318546962955416,0.298
0.008254866989756707,0.299
0.008193477724634782,0.3
0.008134386818912188,0.301
0.008077595929099807,0.302
0.00802310148513538,0.303
0.007970895126046373,0.304
0.007920963749010959,0.305
0.007873289263740289,0.306
0.007827848179939083,0.307
0.007784611168217616,0.308
0.00774354272341608,0.309
0.007704601025031682,0.31
0.0076677380318941534,0.311
0.007632899774601392,0.312
0.00760002674107044,0.313
0.007569054214413747,0.314
0.007539912434262043,0.315
0.007512526508386583,0.316
0.0074868160752495135,0.317
0.007462694781622648,0.318
0.007440069751105392,0.319
0.007418841346599732,0.32
0.007398903357398568,0.321
0.007380143351828902,0.322
0.007362442864661941,0.323
0.0073456773068977,0.324
0.0073297156760776605,0.325
0.007314420293415348,0.326
0.007299646752501862,0.327
0.007285244001576961,0.328
0.007271054544294705,0.329
0.007256915236560852,0.33
0.00724265926752905,0.331
0.007228119421638432,0.332
0.007213132274996573,0.333
0.007197542763705899,0.334
0.007181208353695449,0.335
0.007164001875743788,0.336
0.007145812075090048,0.337
0.007126541100047939,0.338
0.007106099281202449,0.339
0.007084400555240928,0.34
0.007061363560213915,0.341
0.007036919425114694,0.342
0.007011021817681432,0.343
0.006983654378254346,0.344
0.006954833242140984,0.345
0.00692460412985964,0.346
0.006893034624817603,0.347
0.006860204070546241,0.348
0.006826195896631988,0.349
0.006791096196862014,0.35
0.006754996831039541,0.351
0.00671799808552288,0.352
0.006680208277330646,0.353
0.0066417408021538765,0.354
0.006602710142574439,0.355
0.006563228257767709,0.356
0.006523402330688411,0.357
0.006483334244028048,0.358
0.006443121581865451,0.359
0.006402859552495689,0.36
0.006362643066601087,0.361
0.006322568276528302,0.362
0.006282733126984636,0.363
0.006243236794718495,0.364
0.006204178204890193,0.365
0.006165654070782719,0.366
0.006127757175967455,0.367
0.0060905756288212685,0.368
0.006054193120304372,0.369
0.006018689469910179,0.37
0.005984140907974284,0.371
0.00595062009957674,0.372
0.005918196093170282,0.373
0.0058869342956985125,0.374
0.005856896473935602,0.375
0.0058281407166665584,0.376
0.005800721293849644,0.377
0.005774688398944007,0.378
0.005750087811547145,0.379
0.005726960535079249,0.38
0.005705342471645353,0.381
0.00568526422905155,0.382
0.0056667511465302856,0.383
0.005649823531703186,0.384
0.0056344970473778495,0.385
0.005620783228435624,0.386
0.0056086901256736325,0.387
0.005598223006844781,0.388
0.005589384959786855,0.389
0.005582177212781498,0.39
0.00557659904244688,0.391
0.005572647251640073,0.392
0.005570315319259374,0.393
0.005569592520328482,0.394
0.0055704635112811506,0.395
0.00557290859925243,0.396
0.005576904336245663,0.397
0.005582424015514234,0.398
0.005589437999172039,0.399
0.005597913991377532,0.4
0.005607817369099505,0.401
0.005619111621749942,0.402
0.005631758866741307,0.403
0.005645720347486008,0.404
0.005660956807187466,0.405
0.005677428653999428,0.406
0.0056950958620855365,0.407
0.005713917573895523,0.408
0.005733851392717081,0.409
0.005754852398202497,0.41
0.005776872043484804,0.411
0.005799857328619903,0.412
0.005823750668280376,0.413
0.00584849043166953,0.414
0.005874011740563933,0.415
0.005900247205243066,0.416
0.005927127510975678,0.417
0.005954581834071326,0.418
0.005982538061638966,0.419
0.006010922793598459,0.42
0.006039661114836205,0.421
0.00606867613997943,0.422
0.00609788835447049,0.423
0.0061272147962907935,0.424
0.006156568178339494,0.425
0.006185856218016611,0.426
0.006214981528769421,0.427
0.0062438421149814015,0.428
0.00627233208319012,0.429
0.006300342142498253,0.43
0.00632775966216379,0.431
0.006354468190595155,0.432
0.006380346688371739,0.433
0.006405269324436268,0.434
0.006429106543429901,0.435
0.006451727154764395,0.436
0.006473000806092858,0.437
0.0064928005113138905,0.438
0.006511005032612618,0.439
0.006527500801844185,0.44
0.006542182932995991,0.441
0.0065549547933683346,0.442
0.0065657256369274376,0.443
0.006574406890747953,0.444
0.00658091015487401,0.445
0.006585150127152611,0.446
0.006587051784997232,0.447
0.006586558341722296,0.448
0.006583637201894057,0.449
0.006578282516015238,0.45
0.006570513751188703,0.451
0.006560370492004623,0.452
0.00654790453786915,0.453
0.006533171908892916,0.454
0.006516228856497199,0.455
0.00649713350346153,0.456
0.0064759499157697265,0.457
0.0064527509531708644,0.458
0.0064276190886300155,0.459
0.0064006457627079506,0.46
0.006371929883439997,0.461
0.0063415759792005135,0.462
0.006309692332006248,0.463
0.006276389233980467,0.464
0.006241777380541996,0.465
0.006205966370177375,0.466
0.006169063307906161,0.467
0.006131171559904757,0.468
0.006092389749960942,0.469
0.00605281110893072,0.47
0.006012523199797278,0.471
0.00597160788058094,0.472
0.005930141396479282,0.473
0.005888194639292202,0.474
0.0058458335412821015,0.475
0.005803119395703096,0.476
0.005760108885746891,0.477
0.005716853857794782,0.478
0.005673401301889218,0.479
0.005629793975885184,0.48
0.005586071511587218,0.481
0.0055422715442100135,0.482
0.005498430600785436,0.483
0.005454584664060619,0.484
0.005410769407043817,0.485
0.005367020154010846,0.486
0.005323371652670863,0.487
0.005279857733634741,0.488
0.005236510894731875,0.489
0.005193361798657408,0.49
0.005150438634297043,0.491
0.005107766360732879,0.492
0.005065366158127894,0.493
0.005023255627412845,0.494
0.004981449882681661,0.495
0.004939963060434357,0.496
0.004898809666345456,0.497
0.004858005425161968,0.498
0.0048175674821625625,0.499
0.004777513935228682,0.5
0.004737862801921928,0.501
0.004698630625412366,0.502
0.004659831148955011,0.503
0.004621474753780453,0.504
0.004583568974534405,0.505
0.004546119585206911,0.506
0.004509131613885057,0.507
0.004472610063522936,0.508
0.004436560318379447,0.509
0.004400988230592437,0.51
0.00436589989855216,0.511
0.004331301162524653,0.512
0.004297196846585085,0.513
0.00426358981467324,0.514
0.004230480145862616,0.515
0.00419786500865533,0.516
0.004165739505916676,0.517
0.004134098072053115,0.518
0.004102935826125717,0.519
0.004072249531111147,0.52
0.004042037947302766,0.521
0.004012301440566015,0.522
0.003983040839008114,0.523
0.00395425590755602,0.524
0.00392594440025208,0.525
0.003898102444350059,0.526
0.0038707258225059568,0.527
0.0038438111282230246,0.528
0.0038173562276275887,0.529
0.003791359954784328,0.53
0.003765821153768519,0.531
0.0037407374057311033,0.532
0.0037161041505786975,0.533
0.003691914791231394,0.534
0.003668161520226072,0.535
0.0036448360866323903,0.536
0.0036219300140426895,0.537
0.003599434206294796,0.538
0.003577338127248262,0.539
0.0035556290185439115,0.54
0.0035342917123530244,0.541
0.003513309115137654,0.542
0.003492662863864119,0.543
0.003472333679425372,0.544
0.0034523012635792392,0.545
0.0034325437937210053,0.546
0.0034130373867543216,0.547
0.0033937562009608868,0.548
0.0033746734759002727,0.549
0.0033557630599755743,0.55
0.003337000775238888,0.551
0.0033183652333053895,0.552
0.003299837909067644,0.553
0.003281402395917402,0.554
0.0032630429842485952,0.555
0.0032447432247411537,0.556
0.0032264855510985013,0.557
0.0032082523231069422,0.558
0.003190027401051095,0.559
0.0031717972052305145,0.56
0.0031535508775565216,0.561
0.003135279610554482,0.562
0.0031169754356475156,0.563
0.003098629917701736,0.564
0.0030802332081506364,0.565
0.0030617737517728825,0.566
0.0030432386891576825,0.567
0.0030246147485347027,0.568
0.0030058892576416765,0.569
0.002987050869385948,0.57
0.0029680896837977486,0.571
0.0029489966221971095,0.572
0.0029297622984651123,0.573
0.0029103762506076654,0.574
0.0028908273862376485,0.575
0.002871105503604617,0.576
0.002851203053846521,0.577
0.002831116536041135,0.578
0.0028108472960365312,0.579
0.0027904016560858272,0.58
0.0027697903986933937,0.581
0.0027490277140871156,0.582
0.002728129767299731,0.583
0.0027071131110303543,0.584
0.0026859934151922766,0.585
0.0026647851317012786,0.586
0.002643502203016086,0.587
0.0026221592207588853,0.588
0.0026007724371681917,0.589
0.0025793604013698494,0.59
0.0025579441274705137,0.591
0.002536546710592858,0.592
0.0025151923732392683,0.593
0.002493905206136718,0.594
0.0024727083179743787,0.595
0.0024516239227546145,0.596
0.0024306739438566126,0.597
0.0024098802765968133,0.598
0.0023892643990108546,0.599
0.00236884680035473,0.6
0.00234864693702052,0.601
0.002328683805666129,0.602
0.0023089765192644378,0.603
0.002289544360825771,0.604
0.002270406274582712,0.605
0.002251580128581492,0.606
0.002233082312938063,0.607
0.0022149279680777705,0.608
0.0021971315311860424,0.609
0.002179707182883146,0.61
0.002162669088197841,0.611
0.0021460314769005955,0.612
0.0021298085979834756,0.613
0.0021140145581113635,0.614
0.0020986630373399425,0.615
0.0020837668856777307,0.616
0.0020693376762014348,0.617
0.002055385407674867,0.618
0.00204191851708813,0.619
0.0020289441332684384,0.62
0.002016468378453834,0.621
0.0020044966135108933,0.622
0.001993033615064722,0.623
0.001982083681399181,0.624
0.001971650646810262,0.625
0.001961737777064725,0.626
0.0019523475302112916,0.627
0.0019434812199294648,0.628
0.0019351387306334933,0.629
0.0019273184753769211,0.63
0.0019200176164457974,0.631
0.0019132323786717484,0.632
0.0019069583127466127,0.633
0.001901190479114092,0.634
0.0018959235548580624,0.635
0.0018911518552882662,0.636
0.0018868692683634788,0.637
0.001883069125718293,0.638
0.0018797440548397536,0.639
0.0018768858465903204,0.64
0.001874485327386368,0.641
0.001872532185243524,0.642
0.0018710147939993839,0.643
0.0018699202961730019,0.644
0.001869235160029171,0.645
0.001868946060597102,0.646
0.0018690407293837212,0.647
0.0018695084871760944,0.648
0.00187034029061662,0.649
0.0018715282598970903,0.65
0.001873064821999051,0.651
0.0018749417793188015,0.652
0.0018771497013241056,0.653
0.0018796777880775372,0.654
0.0018825139625422514,0.655
0.0018856449497812308,0.656
0.001889056372043976,0.657
0.0018927329863359977,0.658
0.0018966591037807277,0.659
0.0019008191046015306,0.66
0.0019051978683995688,0.661
0.001909780918680751,0.662
0.0019145541396346575,0.663
0.0019195031505530788,0.664
0.0019246128244785668,0.665
0.0019298674622938766,0.666
0.0019352514945147556,0.667
0.0019407500804464728,0.668
0.0019463491232613965,0.669
0.0019520347002245373,0.67
0.001957792498641386,0.671
0.0019636080296283193,0.672
0.0019694676699759488,0.673
0.001975359801556546,0.674
0.001981275371328081,0.675
0.001987207650714487,0.676
0.00199315127755124,0.677
0.001999100991883812,0.678
0.0020050508529145914,0.679
0.0020109944212253466,0.68
0.0020169254919226586,0.681
0.0020228387048202424,0.682
0.0020287298083961455,0.683
0.002034595656859508,0.684
0.0020404340390941388,0.685
0.0020462433763427756,0.686
0.0020520222494308845,0.687
0.002057768774884133,0.688
0.002063480163533192,0.689
0.0020691529525115027,0.69
0.002074783943109431,0.691
0.002080371312128193,0.692
0.002085915326232493,0.693
0.002091418346877305,0.694
0.00209688404093521,0.695
0.002102316187915489,0.696
0.0021077181224859946,0.697
0.0021130934624051,0.698
0.002118447456366028,0.699
0.002123787904447725,0.7
0.0021291252361239576,0.701
0.0021344717998382757,0.702
0.0021398406388959926,0.703
0.0021452442919665323,0.704
0.0021506942334060465,0.705
0.0021562010382966726,0.706
0.002161774700979535,0.707
0.002167424608196077,0.708
0.002173159152843951,0.709
0.0021789852507684304,0.71
0.0021849080518353344,0.711
0.0021909309129416413,0.712
0.0021970554316739963,0.713
0.0022032813872023536,0.714
0.0022096066763704785,0.715
0.0022160274254132526,0.716
0.0022225383380737205,0.717
0.0022291331804289633,0.718
0.0022358052434411366,0.719
0.002242547639742895,0.72
0.002249353333083283,0.721
0.0022562148746921936,0.722
0.002263123914581198,0.723
0.00227007065465972,0.724
0.002277043466185882,0.725
0.002284028763073976,0.726
0.002291010987015172,0.727
0.0022979725620358243,0.728
0.0023048938891043025,0.729
0.0023117534839943795,0.73
0.0023185281771498866,0.731
0.0023251931944364046,0.732
0.0023317220635377237,0.733
0.00233808656233955,0.734
0.0023442570081645673,0.735
0.0023502028881977667,0.736
0.0023558935573201475,0.737
0.0023612987708011165,0.738
0.0023663889608555025,0.739
0.0023711352369534663,0.74
0.0023755091037490463,0.741
0.002379481878493577,0.742
0.002383023963356745,0.743
0.002386104556484345,0.744
0.0023886923499175715,0.745
0.0023907570392180527,0.746
0.0023922710470388286,0.747
0.0023932110084193764,0.748
0.0023935587016198252,0.749
0.0023933011480722693,0.75
0.0023924297064290565,0.751
0.002390938302308021,0.752
0.0023888217054817058,0.753
0.0023860752788137803,0.754
0.0023826965897744802,0.755
0.0023786876823419473,0.756
0.0023740566827137864,0.757
0.0023688182592106833,0.758
0.002362992974241926,0.759
0.0023566057689612717,0.76
0.0023496839339741766,0.761
0.002342255121260868,0.762
0.0023343462470726993,0.763
0.0023259837216628963,0.764
0.0023171944041330216,0.765
0.0023080064076047664,0.766
0.0022984494037048614,0.767
0.0022885544263407305,0.768
0.002278353260271696,0.769
0.002267877550216802,0.77
0.0022571578969978238,0.771
0.0022462233715697553,0.772
0.0022351016335039934,0.773
0.002223819309544689,0.774
0.0022124022186904213,0.775
0.002200875339694903,0.776
0.0021892625754560235,0.777
0.002177586409148679,0.778
0.0021658676210742256,0.779
0.0021541252324024937,0.78
0.002142376662622837,0.781
0.002130637925838127,0.782
0.002118923732321513,0.783
0.0021072474759360406,0.784
0.002095621138268588,0.785
0.002084055149645064,0.786
0.002072558245650182,0.787
0.002061137351102742,0.788
0.0020497975218313597,0.789
0.002038541983324473,0.79
0.0020273723157078257,0.791
0.0020162888248327375,0.792
0.002005291092240324,0.793
0.001994378621751229,0.794
0.001983551435580401,0.795
0.0019728104579455506,0.796
0.0019621575693595733,0.797
0.001951595299148409,0.798
0.0019411262158861664,0.799
0.0019307522029730756,0.8
0.0019204739564068177,0.801
0.0019102909565305816,0.802
0.0019002018037032609,0.803
0.0018902046253705296,0.804
0.0018802974147982066,0.805
0.001870478330451898,0.806
0.0018607460214916409,0.807
0.0018511000107808092,0.808
0.0018415411033734339,0.809
0.001832071724282494,0.81
0.0018226960559256835,0.811
0.0018134198600576882,0.812
0.0018042499296479402,0.813
0.0017951932590213994,0.814
0.0017862563014029963,0.815
0.0017774448164296626,0.816
0.0017687643889469976,0.817
0.0017602211564321567,0.818
0.0017518223001657502,0.819
0.001743576178963409,0.82
0.001735492143469711,0.821
0.0017275800943253607,0.822
0.0017198498488905439,0.823
0.001712310484196803,0.824
0.0017049700207235033,0.825
0.0016978356450013182,0.826
0.0016909141632238946,0.827
0.0016842122470672606,0.828
0.0016777362998556884,0.829
0.0016714920551680835,0.83
0.0016654842799140228,0.831
0.001659716895548459,0.832
0.001654193381129539,0.833
0.0016489170904109408,0.834
0.0016438912893251766,0.835
0.0016391189125303496,0.836
0.001634602158280343,0.837
0.0016303421881013898,0.838
0.0016263391737978239,0.839
0.0016225926353164446,0.84
0.0016191018027446186,0.841
0.0016158658160567918,0.842
0.0016128837135777332,0.843
0.001610154210127028,0.844
0.0016076753338491784,0.845
0.0016054441602652483,0.846
0.0016034569312394426,0.847
0.0016017095699874784,0.848
0.00160019831510089,0.849
0.0015989202044143808,0.85
0.0015978732761747776,0.851
0.0015970564462339017,0.852
0.0015964690914995149,0.853
0.0015961104352069048,0.854
0.0015959789308162347,0.855
0.0015960719448513182,0.856
0.0015963858649480466,0.857
0.0015969164004980304,0.858
0.0015976587926810732,0.859
0.0015986078519824396,0.86
0.0015997578513082897,0.861
0.0016011023264193957,0.862
0.001602633851972744,0.863
0.0016043438691796515,0.864
0.0016062226357812647,0.865
0.0016082593425952919,0.866
0.0016104423934686263,0.867
0.0016127597940669264,0.868
0.0016151995635233802,0.869
0.0016177500844376026,0.87
0.0016204003340992176,0.871
0.0016231399724202457,0.872
0.0016259592803052473,0.873
0.0016288489399494952,0.874
0.0016317996351984249,0.875
0.0016348015429871667,0.876
0.0016378440506873333,0.877
0.001640916072405974,0.878
0.0016440069177241043,0.879
0.0016471073281383662,0.88
0.0016502103525010002,0.881
0.0016533118826527998,0.882
0.0016564107586710221,0.883
0.0016595084377230883,0.884
0.0016626083023011697,0.885
0.0016657147311253395,0.886
0.001668832124105427,0.887
0.0016719642259759573,0.888
0.0016751140770798827,0.889
0.0016782845308289413,0.89
0.0016814789529167862,0.891
0.0016847018049247755,0.892
0.0016879590168839926,0.893
0.0016912581238389735,0.894
0.00169460815256105,0.895
0.0016980192628375552,0.896
0.0017015021781165856,0.897
0.0017050674800810992,0.898
0.0017087249531386307,0.899
0.0017124833007357454,0.9
0.0017163503839482037,0.901
0.0017203337368268039,0.902
0.0017244410286864596,0.903
0.0017286803293278994,0.904
0.0017330601383631142,0.905
0.0017375891729207234,0.906
0.0017422759454655747,0.907
0.0017471282405179538,0.908
0.0017521527296694773,0.909
0.0017573549362349828,0.91
0.001762739466151404,0.911
0.0017683102093938314,0.912
0.0017740703095631089,0.913
0.00178002191549699,0.914
0.0017861659159031657,0.915
0.0017925018703116092,0.916
0.0017990281028758429,0.917
0.0018057417289962438,0.918
0.0018126385533056568,0.919
0.0018197130772138889,0.92
0.0018269587923239615,0.921
0.0018343685906929352,0.922
0.0018419350207046336,0.923
0.00184965029226678,0.924
0.0018575060730717282,0.925
0.0018654931479002315,0.926
0.0018736010552777907,0.927
0.0018818179228594332,0.928
0.001890130670706654,0.929
0.001898525487321925,0.93
0.0019069883612195923,0.931
0.0019155055345793368,0.932
0.0019240638073026455,0.933
0.001932650630529993,0.934
0.001941253944849594,0.935
0.0019498617432248773,0.936
0.0019584614557133797,0.937
0.00196703951225255,0.938
0.001975581476606523,0.939
0.0019840727131199194,0.94
0.0019924991800536916,0.941
0.002000848023623702,0.942
0.002009107851143878,0.943
0.0020172686423942103,0.944
0.0020253212844471118,0.945
0.002033256788376623,0.946
0.002041065502141087,0.947
0.0020487368841059623,0.948
0.0020562600620587955,0.949
0.0020636247300072235,0.95
0.002070821831064968,0.951
0.002077843825561386,0.952
0.0020846845630284726,0.953
0.002091338845061223,0.954
0.002097801794330016,0.955
0.002104068138182496,0.956
0.0021101315377598327,0.957
0.0021159841820127677,0.958
0.0021216168278568107,0.959
0.002127019212589489,0.96
0.0021321805995457932,0.961
0.002137090282523008,0.962
0.0021417379581808067,0.963
0.00214611389159908,0.964
0.0021502088215953,0.965
0.0021540136130173094,0.966
0.002157518745350886,0.967
0.0021607137869809816,0.968
0.002163586997973538,0.969
0.0021661251236271386,0.97
0.0021683133251318887,0.971
0.002170135124705851,0.972
0.002171572358662203,0.973
0.002172605382080959,0.974
0.0021732137603158947,0.975
0.0021733773567263184,0.976
0.002173077524276,0.977
0.002172298133092638,0.978
0.002171026206575018,0.979
0.0021692519775668756,0.98
0.002166968267702615,0.981
0.0021641692597281536,0.982
0.002160849145772135,0.983
0.002157001567549331,0.984
0.002152620280304492,0.985
0.002147700394931624,0.986
0.002142239378041157,0.987
0.002136237560779418,0.988
0.0021296982242265993,0.989
0.002122627382628904,0.99
0.0021150333893006903,0.991
0.002106926444717143,0.992
0.002098318019826852,0.993
0.002089220160752897,0.994
0.0020796446825716327,0.995
0.002069602488151707,0.996
0.0020591034465843,0.997
0.0020481569649351498,0.998
0.0020367728611300037,0.999
0.0020249620977707827,1.0
0.0020127372266240504,1.001
0.002000112564429935,1.002
0.001987104164825793,1.003
0.0019737296506363807,1.004
0.001960007940629372,1.005
0.001945958880717275,1.006
0.0019316027903431337,1.007
0.0019169599463599283,1.008
0.0019020500258398753,1.009
0.0018868915952256593,1.01
0.001871501896482314,1.011
0.0018558971279738316,1.012
0.0018400930845885244,1.013
0.0018241058669682668,1.014
0.0018079524730140492,1.015
0.0017916511675787655,1.016
0.0017752215629473738,1.017
0.0017586843944251123,1.018
0.0017420610282104314,1.019
0.0017253727793952913,1.02
0.0017086402218030926,1.021
0.0016918828166336598,1.022
0.001675119022918202,1.023
0.001658366634220703,1.024
0.0016416429981500713,1.025
0.0016249650083584827,1.026
0.0016083489073643314,1.027
0.0015918099848480022,1.028
0.0015753622980070282,1.029
0.0015590185170085637,1.03
0.0015427898936766044,1.031
0.0015266863317622923,1.032
0.0015107165979945179,1.033
0.0014948886587390067,1.034
0.001479210028213557,1.035
0.0014636880180262254,1.036
0.0014483298315225385,1.037
0.0014331424925010203,1.038
0.0014181326329563862,1.039
0.0014033061937620153,1.04
0.001388668155341432,1.041
0.0013742224711959876,1.042
0.0013599722697348756,1.043
0.0013459201964355863,1.044
0.0013320687418517472,1.045
0.0013184204977875512,1.046
0.001304978331603285,1.047
0.0012917454658855564,1.048
0.0012787254368400917,1.049
0.0012659218917833292,1.05
0.001253338236793728,1.051
0.0012409773277241693,1.052
0.0012288415036735387,1.053
0.0012169330020000181,1.054
0.0012052544488243178,1.055
0.0011938091310543597,1.056
0.0011826009802329825,1.057
0.0011716343385708534,1.058
0.0011609136192593527,1.059
0.001150442969043385,1.06
0.001140226008839608,1.061
0.0011302656788599638,1.062
0.0011205641551718223,1.063
0.0011111227846708966,1.064
0.0011019420693900777,1.065
0.001093021818689827,1.066
0.0010843615056863605,1.067
0.0010759607030979951,1.068
0.001067819431671592,1.069
0.0010599383121585695,1.07
0.001052318477692376,1.071
0.0010449612647580322,1.072
0.001037867789406024,1.073
0.0010310386253647695,1.074
0.0010244737630668644,1.075
0.0010181727887270337,1.076
0.0010121350775696186,1.077
0.001006359890206707,1.078
0.0010008463897087116,1.079
0.0009955936342982803,1.08
0.0009906005871619691,1.081
0.0009858661516832729,1.082
0.0009813891991415989,1.083
0.0009771685257940468,1.084
0.0009732026855621567,1.085
0.0009694897593440343,1.086
0.000966027279090421,1.087
0.0009628124320433863,1.088
0.0009598423808283478,1.089
0.0009571144766999994,1.09
0.0009546263086284923,1.091
0.0009523756315707653,1.092
0.0009503602207352413,1.093
0.0009485776715434339,1.094
0.0009470251674603704,1.095
0.0009456993202593932,1.096
0.0009445962212273885,1.097
0.000943711684612672,1.098
0.0009430414893578391,1.099
0.0009425814394175679,1.1
0.0009423271971224262,1.101
0.0009422740170923233,1.102
0.0009424166271112495,1.103
0.0009427493454911966,1.104
0.0009432662339547417,1.105
0.00094396106714281,1.106
0.0009448271533123401,1.107
0.0009458572683354133,1.108
0.000947043879659433,1.109
0.0009483795205148456,1.11
0.00094985706433927,1.111
0.0009514697750691146,1.112
0.0009532111088620413,1.113
0.0009550743583568753,1.114
0.0009570524176236972,1.115
0.0009591379123411229,1.116
0.0009613236071049293,1.117
0.0009636028093468843,1.118
0.0009659695899656823,1.119
0.0009684187621279961,1.12
0.0009709456045462494,1.121
0.0009735454200090547,1.122
0.0009762132279246979,1.123
0.0009789438756168207,1.124
0.0009817324704286408,1.125
0.0009845747726422035,1.126
0.0009874673067250927,1.127
0.00099040714956762,1.128
0.000993391490049827,1.129
0.0009964171988041815,1.13
0.000999480678137453,1.131
0.0010025780033143259,1.132
0.0010057050857913493,1.133
0.0010088576311070825,1.134
0.0010120309181612002,1.135
0.0010152196436816648,1.136
0.0010184180301018174,1.137
0.001021620104152255,1.138
0.0010248199170502321,1.139
0.0010280115998801264,1.14
0.0010311892700149699,1.141
0.0010343468365607083,1.142
0.0010374777530398134,1.143
0.0010405748007165795,1.144
0.0010436300429317149,1.145
0.0010466350226722675,1.146
0.0010495811107864403,1.147
0.0010524598640395157,1.148
0.0010552633070203539,1.149
0.001057984077755199,1.15
0.0010606153860727781,1.151
0.0010631507667613297,1.152
0.0010655836778850963,1.153
0.0010679071188566635,1.154
0.0010701135114195796,1.155
0.001072194908797285,1.156
0.0010741433465871744,1.157
0.001075951148515859,1.158
0.0010776111397070097,1.159
0.0010791167690218288,1.16
0.0010804621227464611,1.161
0.0010816417932643825,1.162
0.0010826505656116728,1.163
0.0010834829968721603,1.164
0.0010841331930788063,1.165
0.0010845950429988391,1.166
0.00108486274643123,1.167
0.0010849312430587104,1.168
0.0010847962910898908,1.169
0.0010844541386615305,1.17
0.0010839009691673968,1.171
0.001083132581738831,1.172
0.001082144589318681,1.173
0.0010809328375037998,1.174
0.001079493585302896,1.175
0.0010778232977360217,1.176
0.0010759182582617797,1.177
0.0010737744713689749,1.178
0.001071388121715462,1.179
0.001068756295409673,1.18
0.0010658774944178543,1.181
0.0010627517032326024,1.182
0.0010593799589187496,1.183
0.0010557636356932844,1.184
0.001051904029385793,1.185
0.0010478026636980494,1.186
0.001043462019001651,1.187
0.0010388861143686885,1.188
0.0010340806958290133,1.189
0.0010290530478910907,1.19
0.0010238115238057075,1.191
0.0010183649098565483,1.192
0.0010127218053134625,1.193
0.0010068903184318504,1.194
0.0010008782262194954,1.195
0.000994693359044463,1.196
0.0009883438792211954,1.197
0.0009818383118238671,1.198
0.0009751853097317457,1.199
0.0009683932737827479,1.2
0.0009614701563288237,1.201
0.0009544236747443121,1.202
0.0009472617536292831,1.203
0.0009399928688374979,1.204
0.0009326261342418738,1.205
0.0009251711016333267,1.206
0.0009176373627490024,1.207
0.0009100342404674298,1.208
0.0009023708499181725,1.209
0.0008946564667927921,1.21
0.0008869008972301708,1.211
0.0008791146462413587,1.212
0.0008713088530648884,1.213
0.0008634950328402691,1.214
0.0008556846982193582,1.215
0.0008478889981135473,1.216
0.0008401185543098001,1.217
0.0008323835451922773,1.218
0.0008246938760870501,1.219
0.0008170592604170437,1.22
0.0008094891554687894,1.221
0.0008019926034571538,1.222
0.0007945781354152717,1.223
0.0007872538711033556,1.224
0.0007800277537238941,1.225
0.0007729077553157485,1.226
0.0007659019541383969,1.227
0.0007590184621959175,1.228
0.0007522652287397128,1.229
0.0007456498197572415,1.23
0.0007391793286813133,1.231
0.0007328604680131816,1.232
0.0007266997112541738,1.233
0.0007207033453565651,1.234
0.0007148774124596095,1.235
0.0007092275912654458,1.236
0.0007037590798023997,1.237
0.0006984765274565963,1.238
0.0006933840404360719,1.239
0.0006884852653615211,1.24
0.0006837835407667995,1.241
0.0006792820898857122,1.242
0.0006749842110631637,1.243
0.0006708934142283187,1.244
0.0006670134619904712,1.245
0.0006633483005662122,1.246
0.0006599018996311775,1.247
0.0006566780518653458,1.248
0.000653680200080037,1.249
0.0006509113454789586,1.25
0.0006483740423587765,1.251
0.000646070431625934,1.252
0.0006440022484124857,1.253
0.0006421707760656032,1.254
0.0006405767822753528,1.255
0.0006392204887179819,1.256
0.0006381015715894512,1.257
0.0006372191575301487,1.258
0.0006365718151991944,1.259
0.0006361575770792596,1.26
0.0006359740111470537,1.261
0.0006360183247852745,1.262
0.0006362874623278982,1.263
0.0006367781696806446,1.264
0.0006374870322686466,1.265
0.0006384105155939822,1.266
0.000639545031606281,1.267
0.0006408870270510913,1.268
0.0006424330650009894,1.269
0.000644179864846151,1.27
0.0006461242816298313,1.271
0.0006482632312195007,1.272
0.0006505935840692302,1.273
0.000653112047117,1.274
0.0006558150414264821,1.275
0.0006586985791651345,1.276
0.0006617581578370769,1.277
0.000664988713723976,1.278
0.0006683846695679456,1.279
0.0006719400698833454,1.28
0.0006756487671524481,1.281
0.0006795046050502486,1.282
0.0006835015287204592,1.283
0.0006876335651549606,1.284
0.0006918946689403823,1.285
0.0006962784949195399,1.286
0.0007007781989321433,1.287
0.0007053863541145795,1.288
0.0007100950345605668,1.289
0.0007148960779772163,1.29
0.0007197814689846581,1.291
0.0007247437211306856,1.292
0.0007297761337456898,1.293
0.0007348728493773545,1.294
0.0007400287045652217,1.295
0.0007452389201708851,1.296
0.0007504987224763539,1.297
0.0007558030607393009,1.298
0.0007611466057120426,1.299
0.0007665240513750163,1.3
0.0007719305512171024,1.301
0.0007773621070249837,1.302
0.0007828158071249201,1.303
0.0007882898614689604,1.304
0.0007937834229140353,1.305
0.0007992962308573719,1.306
0.0008048281588509414,1.307
0.0008103788211792491,1.308
0.0008159474299209681,1.309
0.0008215329385063698,1.31
0.0008271342870863404,1.311
0.0008327505502507876,1.312
0.0008383809015974796,1.313
0.0008440244064186667,1.314
0.0008496797920285582,1.315
0.0008553454175221916,1.316
0.0008610194677362011,1.317
0.0008667001416255664,1.318
0.000872385620856725,1.319
0.0008780738413023942,1.32
0.0008837623286387576,1.321
0.0008894483277858197,1.322
0.0008951291457062828,1.323
0.0009008024602173267,1.324
0.0009064664480916969,1.325
0.0009121196996325375,1.326
0.0009177609331514626,1.327
0.0009233886190816456,1.328
0.0009290007781294577,1.329
0.0009345951368953412,1.33
0.0009401694887054413,1.331
0.0009457219727459789,1.332
0.0009512511200007092,1.333
0.0009567556377599746,1.334
0.0009622340382789056,1.335
0.0009676844076148356,1.336
0.0009731045426935832,1.337
0.0009784923245158446,1.338
0.0009838460341349746,1.339
0.0009891644584696735,1.34
0.0009944467683018143,1.341
0.0009996922091236736,1.342
0.0010048997093082739,1.343
0.001010067574538273,1.344
0.0010151933746140413,1.345
0.0010202739341554526,1.346
0.0010253052980169536,1.347
0.0010302827344902286,1.348
0.0010352008981843394,1.349
0.001040054084886042,1.35
0.0010448363957793947,1.351
0.0010495416871061328,1.352
0.001054163361082869,1.353
0.0010586943124390744,1.354
0.0010631272859014836,1.355
0.0010674554743422336,1.356
0.0010716730050141562,1.357
0.0010757751332335736,1.358
0.001079758127707676,1.359
0.0010836189104159503,1.36
0.0010873545506282333,1.361
0.0010909617558266937,1.362
0.0010944365631062642,1.363
0.0010977743214219758,1.364
0.0011009697872483226,1.365
0.001104017111429252,1.366
0.0011069097425690918,1.367
0.0011096404465984397,1.368
0.0011122014931993789,1.369
0.0011145848031507027,1.37
0.0011167818899480795,1.371
0.001118783768383696,1.372
0.0011205811849030588,1.373
0.0011221652566098367,1.374
0.0011235282467478597,1.375
0.0011246641653285424,1.376
0.0011255690300614534,1.377
0.0011262407363832026,1.378
0.0011266785662603941,1.379
0.0011268824478101569,1.38
0.001126852237511859,1.381
0.0011265874326626014,1.382
0.0011260874530830906,1.383
0.0011253521535547187,1.384
0.001124382187514575,1.385
0.0011231791241657445,1.386
0.0011217453773790084,1.387
0.001120084033186417,1.388
0.0011181986551625411,1.389
0.0011160931103440682,1.39
0.0011137714117316405,1.391
0.0011112375349420151,1.392
0.0011084951644342036,1.393
0.0011055474405844905,1.394
0.0011023969502945226,1.395
0.0010990461062270328,1.396
0.0010954977294692614,1.397
0.001091755541049893,1.398
0.0010878244110985491,1.399
0.0010837103438576063,1.4
0.0010794202428724077,1.401
0.0010749615272207815,1.402
0.0010703416584290438,1.403
0.0010655676831297979,1.404
0.0010606460117659306,1.405
0.0010555825587907543,1.406
0.0010503830725169803,1.407
0.0010450534192965324,1.408
0.0010395997568599141,1.409
0.00103402862605911,1.41
0.0010283469854137123,1.411
0.0010225621891103171,1.412
0.0010166818910881453,1.413
0.0010107138605810028,1.414
0.001004665716191211,1.415
0.0009985446275458196,1.416
0.000992357093778229,1.417
0.0009861089068043814,1.418
0.000979805286428121,1.419
0.0009734510675626771,1.42
0.0009670508444143488,1.421
0.0009606090474353511,1.422
0.0009541299647117917,1.423
0.0009476177325303279,1.424
0.000941076315946986,1.425
0.0009345094767126268,1.426
0.0009279207006796861,1.427
0.0009213130569832411,1.428
0.0009146890303259902,1.429
0.0009080504630004983,1.43
0.0009013986781615242,1.431
0.0008947346631091631,1.432
0.0008880591435720335,1.433
0.0008813724981802335,1.434
0.0008746746186748818,1.435
0.0008679649196384778,1.436
0.0008612425808041951,1.437
0.0008545068686773612,1.438
0.0008477573298392555,1.439
0.0008409937489343398,1.44
0.000834215900357742,1.441
0.0008274233220021403,1.442
0.0008206153943544507,1.443
0.0008137917149911801,1.444
0.0008069524577769488,1.445
0.0008000984349242968,1.446
0.0007932308259768866,1.447
0.0007863508612142772,1.448
0.000779459885568203,1.449
0.0007725598751836488,1.45
0.0007656540254350539,1.451
0.0007587470273278946,1.452
0.0007518449089100326,1.453
0.00074495451688452,1.454
0.0007380829284232517,1.455
0.0007312372376446315,1.456
0.0007244248840050121,1.457
0.0007176542065159222,1.458
0.0007109348459835037,1.459
0.0007042778594392494,1.46
0.0006976955454920756,1.461
0.0006912010281899722,1.462
0.0006848077245391098,1.463
0.0006785289155768404,1.464
0.0006723776008368448,1.465
0.0006663665754444727,1.466
0.0006605085049730106,1.467
0.000654815864139086,1.468
0.0006493007848204441,1.469
0.0006439749699733726,1.47
0.0006388497801375171,1.471
0.0006339364372304363,1.472
0.0006292462346897537,1.473
0.0006247906935157167,1.474
0.000620581616860805,1.475
0.0006166309822908889,1.476
0.0006129507157237056,1.477
0.000609552626089634,1.478
0.0006064487523162735,1.479
0.0006036519940681044,1.48
0.0006011767027041612,1.481
0.000599039030334187,1.482
0.0005972569678044491,1.483
0.0005958500818963442,1.484
0.000594839024847628,1.485
0.0005942449465036111,1.486
0.0005940890202271654,1.487
0.0005943922818901674,1.488
0.0005951757534865855,1.489
0.0005964606157564364,1.49
0.0005982682562265707,1.491
0.0006006201803037479,1.492
0.0006035378437695758,1.493
0.0006070424826255644,1.494
0.0006111550192117379,1.495
0.0006158960980283306,1.496
0.0006212862482280008,1.497
0.0006273461029189126,1.498
0.0006340965648760904,1.499
0.0006415588226735377,1.5
0.0006497541867559052,1.501
0.0006587038198533466,1.502
0.0006684285308248003,1.503
0.0006789487455439666,1.504
0.0006902845881520196,1.505
0.0007024559464900429,1.506
0.0007154824857004336,1.507
0.000729383638069905,1.508
0.0007441785949411293,1.509
0.0007598863103195165,1.51
0.0007765255144697981,1.511
0.0007941147275383608,1.512
0.0008126722567190542,1.513
0.0008322161567527931,1.514
0.000852764131517436,1.515
0.0008743333905187424,1.516
0.0008969405725203357,1.517
0.0009206018675482018,1.518
0.0009453333158070511,1.519
0.0009711511235680682,1.52
0.0009980718376321807,1.521
0.0010261122807319607,1.522
0.0010552892496385193,1.523
0.0010856191624469744,1.524
0.0011171179447936395,1.525
0.001149801215202665,1.526
0.001183684508728153,1.527
0.001218783288550838,1.528
0.0012551127118989056,1.529
0.00129268727780762,1.53
0.0013315205672421503,1.531
0.0013716252024141156,1.532
0.0014130129475368614,1.533
0.0014556948160217788,1.534
0.0014996811334952369,1.535
0.0015449815393356755,1.536
0.0015916048905110995,1.537
0.0016395590577276925,1.538
0.0016888507092869226,1.539
0.001739485239109592,1.54
0.001791466863256916,1.541
0.001844798739138941,1.542
0.0018994829817316925,1.543
0.001955520568094333,1.544
0.002012911171985701,1.545
0.002071652963246029,1.546
0.0021317424024886447,1.547
0.002193174083102644,1.548
0.0022559406634138587,1.549
0.0023200328507308045,1.55
0.0023854393566074042,1.551
0.0024521468414729006,1.552
0.0025201399712806373,1.553
0.0025894016283106863,1.554
0.002659913148449447,1.555
0.002731654414429406,1.556
0.002804603715851013,1.557
0.0028787374156590143,1.558
0.0029540296211602694,1.559
0.003030452082872231,1.56
0.0031079743193752713,1.561
0.0031865637639993828,1.562
0.0032661857813231377,1.563
0.0033468035346271682,1.564
0.0034283777317650637,1.565
0.0035108663069580337,1.566
0.003594224172516522,1.567
0.0036784031652162402,1.568
0.003763352138012199,1.569
0.0038490170178539593,1.57
0.003935340707811774,1.571
0.004022262838995633,1.572
0.0041097194718895,1.573
0.004197642895928036,1.574
0.004285961672476036,1.575
0.00437460100935448,1.576
0.0044634834596576035,1.577
0.004552529825458275,1.578
0.00464166004511845,1.579
0.0047307937799564714,1.58
0.004819850413515374,1.581
0.004908748272271551,1.582
0.004997403438883292,1.583
0.005085729443080967,1.584
0.005173638801634571,1.585
0.00526104576454924,1.586
0.005347868943736436,1.587
0.00543403303076596,1.588
0.005519469262840658,1.589
0.00560411454741289,1.59
0.005687909420795183,1.591
0.005770795224176881,1.592
0.005852711314615835,1.593
0.005933593653778781,1.594
0.00601337536311623,1.595
0.006091988179767843,1.596
0.006169363509159678,1.597
0.006245432726155981,1.598
0.006320126926999749,1.599
0.006393376472484804,1.6
0.006465110732846535,1.601
0.0065352584199808526,1.602
0.006603748766343486,1.603
0.006670513590424314,1.604
0.006735490003678719,1.605
0.0067986232242993,1.606
0.00685986875628634,1.607
0.006919193142781593,1.608
0.006976572643021272,1.609
0.007031989562732883,1.61
0.0070854275948690065,1.611
0.007136869993726597,1.612
0.007186303132295309,1.613
0.007233723182215659,1.614
0.007279142123971781,1.615
0.007322591375381644,1.616
0.007364122744785235,1.617
0.007403806863416167,1.618
0.0074417295799562855,1.619
0.007477986952057238,1.62
0.007512679512101716,1.621
0.007545907115246293,1.622
0.007577766650485945,1.623
0.007608353596591864,1.624
0.007637765433937073,1.625
0.007666104446568708,1.626
0.007693479086866567,1.627
0.0077200039796846915,1.628
0.0077457988255828294,1.629
0.007770986569547069,1.63
0.007795691219567112,1.631
0.007820035646661786,1.632
0.007844139605347309,1.633
0.007868118108173006,1.634
0.007892080185397976,1.635
0.007916128032917002,1.636
0.007940356627125203,1.637
0.007964853842255709,1.638
0.007989700890670921,1.639
0.00801497283134647,1.64
0.008040738996053114,1.641
0.008067063264106378,1.642
0.008094004159232249,1.643
0.008121614782559787,1.644
0.00814994261570502,1.645
0.008179029218086168,1.646
0.00820890981131586,1.647
0.008239612775382432,1.648
0.008271159278638349,1.649
0.008303563392047898,1.65
0.00833683275428387,1.651
0.008370969445830365,1.652
0.008405970666679297,1.653
0.008441828978412424,1.654
0.00847853202254366,1.655
0.00851606175898534,1.656
0.008554393493241217,1.657
0.008593495250050704,1.658
0.00863332792190633,1.659
0.008673846030374105,1.66
0.008714998673997944,1.661
0.008756730441437844,1.662
0.008798982198917766,1.663
0.008841691617959318,1.664
0.00888479327962454,1.665
0.008928218234367794,1.666
0.008971892987330268,1.667
0.009015738139147089,1.668
0.009059667435444346,1.669
0.009103588079109418,1.67
0.009147402320441098,1.671
0.009191009554784694,1.672
0.00923430822741176,1.673
0.009277197200261069,1.674
0.009319576398897795,1.675
0.009361346636145124,1.676
0.009402408574147633,1.677
0.009442660829932718,1.678
0.009481997611661954,1.679
0.009520307218701007,1.68
0.009557472867360303,1.681
0.009593375723743795,1.682
0.00962789870397341,1.683
0.009660929848826555,1.684
0.009692364736225156,1.685
0.00972210768865805,1.686
0.009750071685207017,1.687
0.009776177026264028,1.688
0.009800348911199843,1.689
0.00982251417118982,1.69
0.009842597561644535,1.691
0.009860518651291842,1.692
0.009876190955493335,1.693
0.009889523961227652,1.694
0.00990042687564964,1.695
0.009908812751321525,1.696
0.009914602566252779,1.697
0.009917729197278905,1.698
0.009918141112999351,1.699
0.009915805424147129,1.7
0.00991070971928033,1.701
0.009902861992110818,1.702
0.009892288033227266,1.703
0.00987902595690066,1.704
0.009863118974294633,1.705
0.00984461038876267,1.706
0.009823544834639156,1.707
0.009799974830953928,1.708
0.00977396808544041,1.709
0.009745612357736551,1.71
0.009715017153894463,1.711
0.00968231258460145,1.712
0.009647646100245703,1.713
0.009611177979221319,1.714
0.009573076403793698,1.715
0.009533512771323294,1.716
0.009492657640417373,1.717
0.00945067746457414,1.718
0.009407732209404928,1.719
0.009363974165561359,1.72
0.009319548171719054,1.721
0.009274592845935905,1.722
0.009229242147594841,1.723
0.009183626883601727,1.724
0.00913787602306583,1.725
0.009092117744636386,1.726
0.009046480177572501,1.727
0.009001091841262012,1.728
0.008956081814058445,1.729
0.008911579661722053,1.73
0.008867715141425894,1.731
0.008824617691501857,1.732
0.008782415733521346,1.733
0.00874123584851445,1.734
0.008701201923217978,1.735
0.008662434369579359,1.736
0.008625049488183087,1.737
0.008589158981536556,1.738
0.00855486954759412,1.739
0.008522282425380832,1.74
0.008491492752823631,1.741
0.008462588812524579,1.742
0.008435651686362632,1.743
0.008410755782969884,1.744
0.008387969978867616,1.745
0.00836735875422406,1.746
0.008348982970619081,1.747
0.008332900215030099,1.748
0.008319164772856814,1.749
0.008307827394650882,1.75
0.008298935064786508,1.751
0.008292530939853444,1.752
0.0082886545098194,1.753
0.008287341892036573,1.754
0.00828862605897839,1.755
0.008292536777209389,1.756
0.008299100113891266,1.757
0.00830833751189016,1.758
0.008320264616945943,1.759
0.008334890269353535,1.76
0.008352216107354166,1.761
0.008372236767988135,1.762
0.008394940178094485,1.763
0.00842030752805524,1.764
0.008448312907709343,1.765
0.008478922814798782,1.766
0.008512095800157788,1.767
0.008547782340050566,1.768
0.008585924840538661,1.769
0.008626457748796473,1.77
0.00866930776990774,1.771
0.008714394034198675,1.772
0.008761628049835548,1.773
0.008810913441358112,1.774
0.00886214561747832,1.775
0.0089152115533714,1.776
0.008969989825565862,1.777
0.009026350934336241,1.778
0.009084157831769659,1.779
0.009143266512404965,1.78
0.009203526569028727,1.781
0.009264781748136336,1.782
0.009326870683181363,1.783
0.009389628048567522,1.784
0.009452886296071647,1.785
0.009516477899054873,1.786
0.009580237703970224,1.787
0.009644004697353924,1.788
0.009707622368648926,1.789
0.009770936960784977,1.79
0.009833794039822243,1.791
0.009896036291417316,1.792
0.009957505871339874,1.793
0.010018051035158375,1.794
0.010077533763892112,1.795
0.010135835571701899,1.796
0.010192860078076836,1.797
0.010248531699231832,1.798
0.010302790453854842,1.799
0.0103555841200429,1.8
0.01040686138125481,1.801
0.010456570468830416,1.802
0.010504663778896424,1.803
0.010551104252282055,1.804
0.01059586968878957,1.805
0.010638954021076055,1.806
0.010680365957704703,1.807
0.010720125704746782,1.808
0.010758260518822995,1.809
0.010794799689654593,1.81
0.010829769697579376,1.811
0.010863191067769302,1.812
0.010895078356468415,1.813
0.010925442779722547,1.814
0.010954295542409802,1.815
0.01098165046624232,1.816
0.011007525509329307,1.817
0.01103194317342987,1.818
0.011054929940703031,1.819
0.011076514964154715,1.82
0.011096728237286307,1.821
0.01111559842892874,1.822
0.011133150537035135,1.823
0.011149403498268368,1.824
0.011164368095203193,1.825
0.011178045941144613,1.826
0.011190430097408041,1.827
0.011201506936405274,1.828
0.011211258569529209,1.829
0.01121966556765955,1.83
0.011226709857225872,1.831
0.011232377533379337,1.832
0.011236661190228404,1.833
0.011239561296487456,1.834
0.011241086172309426,1.835
0.011241250257953505,1.836
0.011240070592419767,1.837
0.011237562280768389,1.838
0.011233735422379204,1.839
0.011228595962362281,1.84
0.01122214989480503,1.841
0.01121440798429373,1.842
0.01120538892216342,1.843
0.011195120294602304,1.844
0.01118363746219807,1.845
0.01117098084162054,1.846
0.011157192337673694,1.847
0.011142311730080113,1.848
0.011126373674085633,1.849
0.01110940569909919,1.85
0.011091427285020225,1.851
0.01107244982716247,1.852
0.011052477080168693,1.853
0.01103150550137432,1.854
0.011009523992836544,1.855
0.010986513429610415,1.856
0.010962447605386595,1.857
0.01093729682205461,1.858
0.010911033431207112,1.859
0.010883637702826464,1.86
0.010855102726815316,1.861
0.010825437388969333,1.862
0.01079466671589,1.863
0.010762829280187349,1.864
0.010729971817304921,1.865
0.010696142572224449,1.866
0.010661387260799177,1.867
0.010625750862126299,1.868
0.010589283739354664,1.869
0.010552048035850886,1.87
0.010514121895692978,1.871
0.010475600848573357,1.872
0.010436596332514245,1.873
0.01039723166562605,1.874
0.010357636071590409,1.875
0.010317938299704303,1.876
0.01027826286318817,1.877
0.010238730786121803,1.878
0.010199462934391884,1.879
0.010160582665007752,1.88
0.010122216357553846,1.881
0.010084491901347628,1.882
0.010047535697199378,1.883
0.010011469264080508,1.884
0.009976407116194122,1.885
0.009942456724664256,1.886
0.009909719413439605,1.887
0.009878290593200856,1.888
0.009848259003780016,1.889
0.009819705874333432,1.89
0.0097927051663858,1.891
0.009767325096496426,1.892
0.009743630077597739,1.893
0.009721682209193021,1.894
0.00970154189726179,1.895
0.009683267407725616,1.896
0.00966691329525339,1.897
0.009652528318102637,1.898
0.009640154532205274,1.899
0.009629828686306645,1.9
0.00962158481429931,1.901
0.009615456151050175,1.902
0.009611475454732643,1.903
0.00960967361306387,1.904
0.00961007718647057,1.905
0.009612706581787563,1.906
0.009617576207895646,1.907
0.009624695958095807,1.908
0.009634072322244445,1.909
0.009645708227214663,1.91
0.009659601691163776,1.911
0.009675744098547493,1.912
0.009694119356029438,1.913
0.009714704372378759,1.914
0.00973746985315475,1.915
0.009762380273101954,1.916
0.009789393042203998,1.917
0.00981845803732145,1.918
0.009849518576244554,1.919
0.009882513471230668,1.92
0.009917378892291433,1.921
0.009954049120421625,1.922
0.00999245584347926,1.923
0.010032526282402948,1.924
0.010074181514488686,1.925
0.010117336801982272,1.926
0.01016190429780394,1.927
0.010207796724863227,1.928
0.010254930423108134,1.929
0.010303226743796377,1.93
0.010352611120536526,1.931
0.010403009817720497,1.932
0.01045434623061242,1.933
0.01050654012212083,1.934
0.010559510955357142,1.935
0.010613182475458944,1.936
0.010667485107936511,1.937
0.010722354779285048,1.938
0.010777728835333218,1.939
0.010833542253993125,1.94
0.010889728010468974,1.941
0.010946221674147884,1.942
0.011002966496386957,1.943
0.011059915751870694,1.944
0.011117031450687495,1.945
0.011174279891825923,1.946
0.011231625894212066,1.947
0.01128902924891633,1.948
0.011346445627534273,1.949
0.011403830025449636,1.95
0.011461139423105587,1.951
0.011518333296059525,1.952
0.011575372147564818,1.953
0.011632214721234196,1.954
0.011688814755955996,1.955
0.011745118145081281,1.956
0.011801061171605337,1.957
0.011856570192328738,1.958
0.011911562834189864,1.959
0.011965950506708947,1.96
0.012019641830976147,1.961
0.012072546401761659,1.962
0.012124578109544851,1.963
0.012175657098803923,1.964
0.012225709445949641,1.965
0.012274663911275253,1.966
0.012322446976824159,1.967
0.012368980723538965,1.968
0.012414187196040672,1.969
0.012457997050767413,1.97
0.012500357746057362,1.971
0.012541238600927708,1.972
0.012580631756531936,1.973
0.012618548817842112,1.974
0.012655013724186747,1.975
0.012690053888721388,1.976
0.012723693869604797,1.977
0.012755954982545491,1.978
0.012786859196219769,1.979
0.01281643273041565,1.98
0.012844706744124995,1.981
0.012871715062013496,1.982
0.012897489855103762,1.983
0.012922056993940804,1.984
0.01294543357843258,1.985
0.01296762855183496,1.986
0.012988644223454148,1.987
0.01300847622661795,1.988
0.013027112227055732,1.989
0.01304453228154319,1.99
0.013060712899022558,1.991
0.013075633370014971,1.992
0.01308928141358593,1.993
0.01310165619524009,1.994
0.013112767761198126,1.995
0.013122632652321229,1.996
0.013131267340589971,1.997
0.013138684011315694,1.998
0.013144892339182892,1.999
0.013149905470110723,2.0
0.01315374580619232,2.001
0.013156448366733525,2.002
0.01315806162922561,2.003
0.013158646270201418,2.004
0.01315827218870615,2.005
0.013157014084023996,2.006
0.013154946004148786,2.007
0.013152136375415202,2.008
0.013148646218356375,2.009
0.013144531581016212,2.01
0.013139847875832028,2.011
0.01313465335874029,2.012
0.013129010753173706,2.013
0.01312298696770479,2.014
0.01311665109098225,2.015
0.013110071064780312,2.016
0.013103309728283129,2.017
0.013096421550263559,2.018
0.013089451632077163,2.019
0.013082437214847984,2.02
0.013075410182610209,2.021
0.01306839904571778,2.022
0.01306142976437333,2.023
0.013054525075527137,2.024
0.013047702369197197,2.025
0.013040971649489077,2.026
0.013034336269495437,2.027
0.013027797332255482,2.028
0.013021359592613585,2.029
0.013015036076547942,2.03
0.013008849843698555,2.031
0.013002832298659063,2.032
0.012997018208754445,2.033
0.012991439385984729,2.034
0.01298612126586086,2.035
0.01298108467464113,2.036
0.012976349813400442,2.037
0.012971938571584612,2.038
0.012967874437497544,2.039
0.01296418119371739,2.04
0.012960881836686826,2.041
0.012957998806714567,2.042
0.012955555851600846,2.043
0.01295358102579415,2.044
0.01295210977041308,2.045
0.012951186877498598,2.046
0.012950866369581503,2.047
0.012951208769609335,2.048
0.012952276058769389,2.049
0.012954126634396197,2.05
0.012956814348038342,2.051
0.012960393258946793,2.052
0.012964925024366709,2.053
0.012970484975731163,2.054
0.012977165099778455,2.055
0.012985073581766704,2.056
0.012994331266514133,2.057
0.01300506599527015,2.058
0.013017406097795526,2.059
0.013031474483034884,2.06
0.013047384736446592,2.061
0.013065239598656558,2.062
0.013085130624292002,2.063
0.013107137791171097,2.064
0.013131329071526386,2.065
0.013157760341387376,2.066
0.013186475831787418,2.067
0.013217509610036662,2.068
0.01325088833497376,2.069
0.013286634622905419,2.07
0.01332476994863891,2.071
0.013365316222778038,2.072
0.013408295607732218,2.073
0.013453728622171108,2.074
0.013501631013937058,2.075
0.013552010357594941,2.076
0.013604863782768938,2.077
0.013660177632325684,2.078
0.01371792827905166,2.079
0.01377808274120388,2.08
0.013840598403789562,2.081
0.01390542203435147,2.082
0.013972489252950113,2.083
0.014041725692221103,2.084
0.014113049599075094,2.085
0.014186374414666527,2.086
0.014261609999684167,2.087
0.014338661728249009,2.088
0.014417427909491473,2.089
0.014497798239006468,2.09
0.014579656065718153,2.091
0.014662883902931703,2.092
0.014747369341056896,2.093
0.014833009300016405,2.094
0.014919711737735685,2.095
0.015007394379427556,2.096
0.015095980309563519,2.097
0.015185391581742466,2.098
0.015275544778355023,2.099
0.015366352523363137,2.1
0.015457730070785368,2.101
0.015549602392498398,2.102
0.015641908365105893,2.103
0.015734601031615145,2.104
0.015827644120323253,2.105
0.01592100564973451,2.106
0.016014650472355875,2.107
0.016108535010838948,2.108
0.016202606429483964,2.109
0.016296804525349106,2.11
0.016391062702573275,2.111
0.016485306362861107,2.112
0.016579449753471344,2.113
0.016673393522066773,2.114
0.01676702400278197,2.115
0.01686021380000799,2.116
0.016952824240510995,2.117
0.017044710763022008,2.118
0.017135730462387578,2.119
0.01722574974316342,2.12
0.017314650136555226,2.121
0.01740233057393312,2.122
0.017488704850220978,2.123
0.017573694190729638,2.124
0.017657218188921138,2.125
0.017739191153239152,2.126
0.01781952753223526,2.127
0.017898151714465533,2.128
0.01797500584166491,2.129
0.0180500535009113,2.13
0.018123279563003514,2.131
0.018194686835934358,2.132
0.01826429034782945,2.133
0.018332110041824824,2.134
0.018398162890002692,2.135
0.018462456652746893,2.136
0.018524988222517927,2.137
0.018585746869839465,2.138
0.018644719197731967,2.139
0.01870189271702228,2.14
0.01875725709614312,2.141
0.018810803204505278,2.142
0.01886252030538702,2.143
0.01891239185968236,2.144
0.01896039088471637,2.145
0.019006476899864115,2.146
0.019050596158107638,2.147
0.019092684185769555,2.148
0.019132667804330112,2.149
0.01917046460997423,2.15
0.019205980705926363,2.151
0.01923911089469802,2.152
0.019269744674905148,2.153
0.019297775993337922,2.154
0.01932311203854706,2.155
0.019345677757998572,2.156
0.019365414355392904,2.157
0.019382271667291753,2.158
0.0193961985259475,2.159
0.019407139648500018,2.16
0.01941504335127147,2.161
0.019419874271425865,2.162
0.01942162307807678,2.163
0.01942031006346474,2.164
0.019415982723397836,2.165
0.019408708517594936,2.166
0.01939856460920043,2.167
0.019385627015453107,2.168
0.019369962798657516,2.169
0.019351628453845842,2.17
0.01933067382490196,2.171
0.01930714790900006,2.172
0.019281103971518262,2.173
0.01925260333870272,2.174
0.019221717632406904,2.175
0.01918852907025603,2.176
0.019153128583682823,2.177
0.019115611794171913,2.178
0.019076073095541324,2.179
0.019034599203071545,2.18
0.01899126589691057,2.181
0.01894614100939232,2.182
0.01889929178876549,2.183
0.01885079202971494,2.184
0.01880072574159214,2.185
0.018749185892310758,2.186
0.01869626833643442,2.187
0.018642064391392092,2.188
0.01858665848796258,2.189
0.018530133459782074,2.19
0.01847257839463974,2.191
0.018414092760771154,2.192
0.01835478457170014,2.193
0.01829476373549717,2.194
0.018234135091846383,2.195
0.018172997107705566,2.196
0.018111447319293185,2.197
0.01804958940751359,2.198
0.017987536932090695,2.199
0.017925412375331164,2.2
0.017863342108022692,2.201
0.01780144920715066,2.202
0.017739848034998534,2.203
0.017678643949282886,2.204
0.01761793700524518,2.205
0.01755782543010281,2.206
0.01749840615466064,2.207
0.01743977229472212,2.208
0.01738200886131782,2.209
0.017325188763985304,2.21
0.017269370998189308,2.211
0.01721460104447143,2.212
0.017160911826368617,2.213
0.01710832400830482,2.214
0.01705684555375013,2.215
0.01700647077520121,2.216
0.016957179199995776,2.217
0.01690893484603448,2.218
0.01686168619904289,2.219
0.016815366405303903,2.22
0.01676989316472379,2.221
0.01672516853140292,2.222
0.016681079323642878,2.223
0.016637498832531575,2.224
0.016594290114142506,2.225
0.016551310454303268,2.226
0.01650841584463034,2.227
0.016465463848483523,2.228
0.016422313348610704,2.229
0.016378820936496893,2.23
0.016334836692950647,2.231
0.016290203898699156,2.232
0.016244763572435348,2.233
0.016198359452454427,2.234
0.016150838892448623,2.235
0.016102048987914806,2.236
0.0160518314326529,2.237
0.016000021061520864,2.238
0.015946448643319004,2.239
0.01589094296870541,2.24
0.015833329121841103,2.241
0.015773427232028677,2.242
0.015711058019653657,2.243
0.01564605472514782,2.244
0.015578275173607544,2.245
0.015507608343120604,2.246
0.015433972654599174,2.247
0.015357306132439437,2.248
0.015277554112913679,2.249
0.015194665054519295,2.25
0.015108598983504608,2.251
0.015019341094376842,2.252
0.014926911344759933,2.253
0.014831367240698787,2.254
0.014732800593488735,2.255
0.014631329727353582,2.256
0.014527088815211236,2.257
0.014420216646328338,2.258
0.014310848808366748,2.259
0.014199116836739191,2.26
0.014085153252921173,2.261
0.013969097890364797,2.262
0.013851102214953483,2.263
0.013731330839324003,2.264
0.013609960391679533,2.265
0.013487176172439922,2.266
0.013363167233879755,2.267
0.013238120731794135,2.268
0.013112217106009927,2.269
0.012985628218447018,2.27
0.012858518951148807,2.271
0.012731050170355394,2.272
0.01260338083096841,2.273
0.012475668481500569,2.274
0.012348068154824159,2.275
0.012220729944087638,2.276
0.012093796487593728,2.277
0.011967402403869351,2.278
0.01184167641482405,2.279
0.011716744446217937,2.28
0.011592731551069756,2.281
0.011469761689004565,2.282
0.011347955514811712,2.283
0.011227427775496946,2.284
0.011108286779003912,2.285
0.010990636512681869,2.286
0.010874579300244356,2.287
0.01076021697458551,2.288
0.010647650344233291,2.289
0.010536977705783915,2.29
0.010428293194317208,2.291
0.010321685414481006,2.292
0.010217236357890506,2.293
0.010115020424498808,2.294
0.010015103691491377,2.295
0.009917544064663698,2.296
0.009822392629882491,2.297
0.009729695583648654,2.298
0.009639495813440644,2.299
0.009551833590449992,2.3
0.009466746265662579,2.301
0.00938426721174406,2.302
0.009304424519782278,2.303
0.009227240003998485,2.304
0.009152728840662722,2.305
0.009080899779127547,2.306
0.009011755538491211,2.307
0.008945292911671772,2.308
0.008881502331653732,2.309
0.008820367306661853,2.31
0.00876186470688223,2.311
0.008705966419641817,2.312
0.008652641807736509,2.313
0.008601860016107934,2.314
0.008553591394877417,2.315
0.008507807539945253,2.316
0.008464479797954273,2.317
0.008423576724778042,2.318
0.008385061743805045,2.319
0.008348892181355124,2.32
0.008315019500720605,2.321
0.00828338955669623,2.322
0.0082539422470453,2.323
0.008226610834841266,2.324
0.008201321437136627,2.325
0.00817799304490166,2.326
0.008156538267564292,2.327
0.008136864791715956,2.328
0.008118877327059517,2.329
0.008102479640649068,2.33
0.008087576210269272,2.331
0.008074073070342741,2.332
0.008061877540150073,2.333
0.008050896669108422,2.334
0.008041034875641739,2.335
0.008032192595570132,2.336
0.008024267814055186,2.337
0.008017160179947991,2.338
0.008010775764038452,2.339
0.008005030800129388,2.34
0.007999853376253092,2.341
0.007995182368307334,2.342
0.007990963426189586,2.343
0.007987143737244698,2.344
0.007983669855922006,2.345
0.007980491043714044,2.346
0.007977565084943256,2.347
0.007974862222761961,2.348
0.007972365734377474,2.349
0.007970069655600548,2.35
0.007967974789318207,2.351
0.007966084362233521,2.352
0.007964400574115621,2.353
0.007962922856879315,2.354
