VaMe,time
-0.007273811003413085,0.001
-0.006811167097068377,0.002
-0.006351891161103576,0.003
-0.005896496478599692,0.004
-0.0054454743752147105,0.005
-0.004999287375405914,0.006
-0.004558362736022301,0.007
-0.004123087168773482,0.008
-0.003693803686966919,0.009
-0.0032708113244197218,0.01
-0.0028543679802175126,0.011
-0.002444695992629732,0.012
-0.002041989505799374,0.013
-0.0016464224920724857,0.014
-0.0012581562231336987,0.015
-0.0008773445565743858,0.016
-0.0005041354319018025,0.017
-0.00013866864567387493,0.018
0.00021892837823230015,0.019
0.0005685454285495084,0.02
0.0009100944319640524,0.021
0.0012435138727512186,0.022
0.001568771647222914,0.023
0.0018858650749878183,0.024
0.002194817054654996,0.025
0.0024956686351226133,0.026
0.002788471359077967,0.027
0.0030732848473393817,0.028
0.0033501811047892786,0.029
0.0036192507770472218,0.03
0.003880606337545864,0.031
0.004134380888711328,0.032
0.004380723394550448,0.033
0.0046197919669016445,0.034
0.004851747780628967,0.035
0.005076752293422735,0.036
0.005294967984068741,0.037
0.005506560066346735,0.038
0.005711697048920524,0.039
0.005910549913058506,0.04
0.006103290415514075,0.041
0.006290089004159298,0.042
0.0064711127854137455,0.043
0.006646523918032392,0.044
0.006816478696491917,0.045
0.006981127419643503,0.046
0.007140614935282573,0.047
0.0072950815585896825,0.048
0.007444663981701988,0.049
0.007589495863836684,0.05
0.007729707948738388,0.051
0.007865427723584522,0.052
0.00799677876959998,0.053
0.008123880024895625,0.054
0.008246845149591111,0.055
0.00836578204585082,0.056
0.008480792396833753,0.057
0.008591971124454971,0.058
0.008699406154434422,0.059
0.008803179173409306,0.06
0.00890336749923893,0.061
0.009000046460181243,0.062
0.009093291546677467,0.063
0.009183179780190932,0.064
0.009269789929954121,0.065
0.00935320143428284,0.066
0.009433492127968767,0.067
0.009510735466766906,0.068
0.009584998913265232,0.069
0.009656344825192186,0.07
0.009724833184113449,0.071
0.00979052438242819,0.072
0.009853480783463622,0.073
0.009913766370517692,0.074
0.009971444368740735,0.075
0.010026574225709265,0.076
0.010079210789008185,0.077
0.010129406952590932,0.078
0.01017721769144415,0.079
0.010222702758304988,0.08
0.010265926961689587,0.081
0.010306958095034445,0.082
0.010345863167814953,0.083
0.01038270446027656,0.084
0.010417537634179994,0.085
0.010450412863755134,0.086
0.01048137762509759,0.087
0.010510479570531441,0.088
0.010537769123252863,0.089
0.010563301772795618,0.09
0.010587139756865484,0.091
0.0106093525920332,0.092
0.010630015883783482,0.093
0.010649208064390694,0.094
0.010667005897603839,0.095
0.01068348167892592,0.096
0.010698704579096892,0.097
0.010712744786136177,0.098
0.010725677231145581,0.099
0.010737583281139471,0.1
0.01074855046361232,0.101
0.010758670833601295,0.102
0.010768038642509208,0.103
0.010776747800449177,0.104
0.010784889384247967,0.105
0.010792549256697204,0.106
0.01079980594718206,0.107
0.01080672934536359,0.108
0.010813380733386046,0.109
0.010819813854466953,0.11
0.010826076147404157,0.111
0.01083220955445783,0.112
0.010838250757093437,0.113
0.010844230912667174,0.114
0.010850175064675753,0.115
0.01085610141150539,0.116
0.010862020548522831,0.117
0.010867934723192278,0.118
0.010873837139812097,0.119
0.01087971142697674,0.12
0.010885531474723795,0.121
0.010891261882452348,0.122
0.010896859192411066,0.123
0.010902273920073365,0.124
0.01090745315831479,0.125
0.010912343271762244,0.126
0.010916891984467958,0.127
0.010921049082838915,0.128
0.010924765063861329,0.129
0.010927988101584237,0.13
0.010930662026026173,0.131
0.010932728445927978,0.132
0.010934132697447058,0.133
0.01093483027793789,0.134
0.010934790864684692,0.135
0.01093399867295342,0.136
0.010932449091032016,0.137
0.010930142489991128,0.138
0.010927077572703295,0.139
0.010923247874809508,0.14
0.010918642794386287,0.141
0.010913250349313099,0.142
0.01090705854342117,0.143
0.010900054753662724,0.144
0.01089222376743632,0.145
0.010883545160357113,0.146
0.010873990902495691,0.147
0.010863524258925877,0.148
0.010852100235177051,0.149
0.010839666516353264,0.15
0.010826163743505066,0.151
0.010811524931026655,0.152
0.010795674953704863,0.153
0.010778531544441507,0.154
0.010760008311888338,0.155
0.010740018940672932,0.156
0.010718481467403578,0.157
0.010695321848949512,0.158
0.010670476144178405,0.159
0.01064389061280809,0.16
0.010615519123060201,0.161
0.010585318312387107,0.162
0.010553243697468672,0.163
0.010519251034428525,0.164
0.010483303234298831,0.165
0.01044537858291972,0.166
0.0104054761196588,0.167
0.010363616461841762,0.168
0.01031983797928168,0.169
0.01027418927637463,0.17
0.010226720937909859,0.171
0.01017748159504881,0.172
0.010126520559859364,0.173
0.010073893122421781,0.174
0.010019663480643072,0.175
0.009963903529643017,0.176
0.009906688402973934,0.177
0.009848092127463579,0.178
0.009788187423606268,0.179
0.009727049854209196,0.18
0.009664762537088045,0.181
0.009601418131550375,0.182
0.009537117251275281,0.183
0.00947196404667919,0.184
0.009406061483408319,0.185
0.009339509982861979,0.186
0.009272410491050424,0.187
0.009204869077789911,0.188
0.009136999995091639,0.189
0.009068926399027557,0.19
0.00900077915379262,0.191
0.008932694376652709,0.192
0.008864810390909963,0.193
0.008797264580709105,0.194
0.008730190511529103,0.195
0.008663715918439235,0.196
0.008597962323993028,0.197
0.00853304624775999,0.198
0.008469080951534822,0.199
0.008406177752997122,0.2
0.008344446622646433,0.201
0.008283996118909797,0.202
0.00822493278708807,0.203
0.008167360174415012,0.204
0.008111377634942865,0.205
0.008057079122545,0.206
0.008004552161236151,0.207
0.00795387712103322,0.208
0.007905126831729725,0.209
0.007858366467782764,0.21
0.007813653618042132,0.211
0.00777103851686825,0.212
0.0077305644268057675,0.213
0.007692268111405899,0.214
0.007656180300215233,0.215
0.007622326035583366,0.216
0.007590724800856908,0.217
0.007561390372489762,0.218
0.00753433041890641,0.219
0.007509546040373587,0.22
0.0074870315944748035,0.221
0.007466774929585622,0.222
0.00744875772451819,0.223
0.007432955592095465,0.224
0.007419337873512416,0.225
0.007407867288268766,0.226
0.007398499740185926,0.227
0.007391184405009065,0.228
0.007385863852528126,0.229
0.007382473990468716,0.23
0.0073809440483657085,0.231
0.007381196918864546,0.232
0.007383149781857519,0.233
0.007386714669261136,0.234
0.00739179871403822,0.235
0.007398303979819768,0.236
0.0074061269291439465,0.237
0.0074151578810768195,0.238
0.00742528098409054,0.239
0.007436374877500001,0.24
0.007448313694420799,0.241
0.00746096801353758,0.242
0.007474205601591824,0.243
0.007487891898772349,0.244
0.007501890217121145,0.245
0.007516061621686955,0.246
0.007530264426782233,0.247
0.007544353204162524,0.248
0.007558177626303647,0.249
0.007571582402421783,0.25
0.007584409428055726,0.251
0.007596501754211271,0.252
0.007607708184526855,0.253
0.007617887591818459,0.254
0.007626912214912211,0.255
0.007634669173638953,0.256
0.00764105952246554,0.257
0.007645994391092476,0.258
0.007649389318452557,0.259
0.0076511610036966065,0.26
0.007651230403616373,0.261
0.007649530738156165,0.262
0.007646015710716162,0.263
0.007640664823790381,0.264
0.007633484772448307,0.265
0.007624506889542838,0.266
0.0076137812677132795,0.267
0.007601368696856961,0.268
0.007587332761411227,0.269
0.007571735854737376,0.27
0.0075546406506090905,0.271
0.007536113971452101,0.272
0.007516229495052672,0.273
0.007495068466016065,0.274
0.007472718915929778,0.275
0.007449273946247817,0.276
0.007424829544402064,0.277
0.007399482269568929,0.278
0.007373327041469194,0.279
0.007346455238803981,0.28
0.007318953342757318,0.281
0.007290902370353255,0.282
0.007262378259563561,0.283
0.007233453173227588,0.284
0.007204197421273597,0.285
0.007174681439268776,0.286
0.00714497710798097,0.287
0.007115157747542078,0.288
0.007085296539012117,0.289
0.007055464384100853,0.29
0.007025729526259652,0.291
0.006996160114058188,0.292
0.0069668280956648706,0.293
0.006937812136090955,0.294
0.006909198495832272,0.295
0.006881079733107329,0.296
0.006853551563564485,0.297
0.0068267090273622395,0.298
0.006800644066850645,0.299
0.006775445740540175,0.3
0.00675120181774618,0.301
0.00672799978773582,0.302
0.006705926617185333,0.303
0.006685067536320382,0.304
0.006665504390427299,0.305
0.0066473142982013496,0.306
0.006630569280926929,0.307
0.006615336826472627,0.308
0.006601680718190079,0.309
0.006589661586210131,0.31
0.006579337040193175,0.311
0.006570761408842576,0.312
0.006563985169689184,0.313
0.0065590542124528235,0.314
0.00655600911206241,0.315
0.006554884599656987,0.316
0.006555709365779172,0.317
0.0065585061481518055,0.318
0.006563291905936835,0.319
0.006570077937525488,0.32
0.006578869929912697,0.321
0.006589667977628173,0.322
0.006602466600585493,0.323
0.006617254771525534,0.324
0.006634015956499245,0.325
0.006652728183948273,0.326
0.0066733641754122535,0.327
0.00669589157233381,0.328
0.006720273263665696,0.329
0.006746467758386731,0.33
0.006774429479083529,0.331
0.006804108816821902,0.332
0.0068354518146015635,0.333
0.006868399525421428,0.334
0.006902887451513542,0.335
0.006938845572106265,0.336
0.006976198961852861,0.337
0.007014868516761663,0.338
0.0070547714169359845,0.339
0.007095821293630229,0.34
0.0071379282239622584,0.341
0.007180998679310491,0.342
0.007224935486904691,0.343
0.007269637770712799,0.344
0.00731500076188328,0.345
0.007360915339946373,0.346
0.007407267285649903,0.347
0.007453936631217217,0.348
0.007500797787621548,0.349
0.007547720648455219,0.35
0.007594572066995298,0.351
0.0076412169117475,0.352
0.007687518173522574,0.353
0.007733335961624627,0.354
0.007778526103080429,0.355
0.007822939962022846,0.356
0.007866426208300666,0.357
0.007908833195085398,0.358
0.007950010050616348,0.359
0.007989805658261486,0.36
0.008028066597029466,0.361
0.008064637073893653,0.362
0.008099362798009874,0.363
0.008132097075226276,0.364
0.008162706006925395,0.365
0.008191070865617066,0.366
0.00821708676538537,0.367
0.00824065770380069,0.368
0.008261690521956744,0.369
0.00828009288657252,0.37
0.00829577779345458,0.371
0.008308671116716992,0.372
0.008318717546671149,0.373
0.00832588321803142,0.374
0.00833015514036699,0.375
0.008331538010038926,0.376
0.008330049195578703,0.377
0.00832571270741111,0.378
0.00831855329214144,0.379
0.008308592579629653,0.38
0.008295848699433785,0.381
0.008280338443866789,0.382
0.008262079852606428,0.383
0.008241094152291833,0.384
0.008217407143645576,0.385
0.008191050392807354,0.386
0.008162062470998906,0.387
0.008130490278379485,0.388
0.008096390237471737,0.389
0.008059828928961175,0.39
0.008020882657334775,0.391
0.007979635533937754,0.392
0.007936175936164915,0.393
0.007890592196137443,0.394
0.007842970047309102,0.395
0.007793393882720285,0.396
0.007741950690094478,0.397
0.00768873394274547,0.398
0.007633845927507523,0.399
0.0075773982242187485,0.4
0.007519510477893237,0.401
0.007460307808458424,0.402
0.0073999173385829505,0.403
0.007338464599661676,0.404
0.007276071035761152,0.405
0.007212853461893778,0.406
0.007148924841346916,0.407
0.00708439493020542,0.408
0.007019370007877075,0.409
0.006953951915452689,0.41
0.00688823726560606,0.411
0.006822317564849377,0.412
0.006756280026536811,0.413
0.006690208214844576,0.414
0.006624181947983041,0.415
0.006558276596398755,0.416
0.006492562636921417,0.417
0.006427106270657851,0.418
0.0063619708827429,0.419
0.006297218494830565,0.42
0.006232910655979804,0.421
0.006169108613253154,0.422
0.006105872785013397,0.423
0.006043261681830715,0.424
0.005981330561498771,0.425
0.0059201303284469285,0.426
0.005859707226770427,0.427
0.005800103350344309,0.428
0.005741357407086058,0.429
0.005683505241183287,0.43
0.0056265799993719355,0.431
0.005570612010820938,0.432
0.0055156284974839185,0.433
0.005461653249961239,0.434
0.005408706384234328,0.435
0.005356804247398902,0.436
0.005305959483659125,0.437
0.005256181217390453,0.438
0.005207475264196564,0.439
0.0051598442518847945,0.44
0.005113287534276255,0.441
0.005067800844648029,0.442
0.005023375864456467,0.443
0.004980000143555109,0.444
0.004937657601114892,0.445
0.004896329298110744,0.446
0.004855994046126079,0.447
0.004816628671805412,0.448
0.004778207918357099,0.449
0.004740704007177781,0.45
0.004704085992744147,0.451
0.0046683192953292894,0.452
0.004633365832606643,0.453
0.00459918470862179,0.454
0.004565732983237042,0.455
0.00453296608256109,0.456
0.004500837619249638,0.457
0.004469298747972252,0.458
0.0044382978474885055,0.459
0.004407781380648117,0.46
0.004377695781095082,0.461
0.004347989490165697,0.462
0.004318614463653882,0.463
0.004289526821529024,0.464
0.0042606864793514635,0.465
0.004232055732302837,0.466
0.004203597188691753,0.467
0.004175272287644162,0.468
0.0041470416876527895,0.469
0.004118867376178786,0.47
0.004090715213595738,0.471
0.0040625569611015,0.472
0.004034371548850297,0.473
0.004006145632685498,0.474
0.003977873551259026,0.475
0.00394955676205529,0.476
0.003921202738770598,0.477
0.0038928232494435627,0.478
0.0038644320361520008,0.479
0.0038360425187668862,0.48
0.0038076668792581996,0.481
0.0037793171720123184,0.482
0.003751007406419606,0.483
0.003722755269602163,0.484
0.003694583063184679,0.485
0.0036665179124100965,0.486
0.003638591377787588,0.487
0.0036108386396201545,0.488
0.0035832974395825935,0.489
0.0035560069502896907,0.49
0.0035290067107020475,0.491
0.00350233572623194,0.492
0.003476031792842612,0.493
0.003450131058960526,0.494
0.003424667787386312,0.495
0.003399674234337854,0.496
0.0033751805391671135,0.497
0.0033512145209475454,0.498
0.0033278013965493056,0.499
0.0033049636944875852,0.5
0.003282721663849366,0.501
0.0032610941205239476,0.502
0.003240099432917287,0.503
0.0032197564100124323,0.504
0.0032000849386412196,0.505
0.003181106256084154,0.506
0.0031628428045317437,0.507
0.003145317695423039,0.508
0.0031285538974560757,0.509
0.003112573333792125,0.51
0.003097396104390572,0.511
0.003083040007950851,0.512
0.0030695204207121917,0.513
0.003056850441558469,0.514
0.0030450411086547437,0.515
0.0030341014850609246,0.516
0.0030240385136995488,0.517
0.0030148567588038832,0.518
0.003006558323722445,0.519
0.002999143073189094,0.52
0.002992608962688057,0.521
0.0029869522437618564,0.522
0.0029821674841124216,0.523
0.002978247410915612,0.524
0.002975182623843047,0.525
0.002972961368948405,0.526
0.0029715696174576187,0.527
0.0029709914378963547,0.528
0.00297120936921317,0.529
0.0029722045222153937,0.53
0.002973956333216185,0.531
0.0029764421557669954,0.532
0.00297963709757363,0.533
0.0029835142978156043,0.534
0.002988045345910825,0.535
0.002993200442837665,0.536
0.002998948172134446,0.537
0.0030052550535693222,0.538
0.003012085313428831,0.539
0.0030194011345162346,0.54
0.0030271631296105573,0.541
0.003035330663940718,0.542
0.0030438619219663424,0.543
0.00305271376921886,0.544
0.00306184146755113,0.545
0.003071198289498089,0.546
0.0030807351597202624,0.547
0.003090400628458489,0.548
0.00310014140911116,0.549
0.0031099033538007255,0.55
0.003119632560984255,0.551
0.0031292763804108264,0.552
0.0031387841675710043,0.553
0.003148107729452188,0.554
0.0031572014966177696,0.555
0.0031660224762266147,0.556
0.003174529971619746,0.557
0.003182684956652987,0.558
0.0031904489776279966,0.559
0.0031977829174565857,0.56
0.00320464678012084,0.561
0.003211001333412457,0.562
0.0032168109100124136,0.563
0.0032220460112859614,0.564
0.0032266848845806505,0.565
0.0032307137801579843,0.566
0.0032341259742721127,0.567
0.0032369199743730783,0.568
0.0032390974630363287,0.569
0.003240661460303738,0.57
0.003241614962486896,0.571
0.003241960061090641,0.572
0.003241697351666168,0.573
0.0032408254416879754,0.574
0.003239340671184654,0.575
0.0032372374273169783,0.576
0.0032345091704102024,0.577
0.003231149819143751,0.578
0.003227155069863047,0.579
0.0032225234246635657,0.58
0.0032172568472522783,0.581
0.003211361036391426,0.582
0.003204845342531022,0.583
0.00319772236040227,0.584
0.0031900072294110066,0.585
0.003181716678302762,0.586
0.0031728678596263105,0.587
0.0031634771142656764,0.588
0.003153559075983331,0.589
0.0031431266020261186,0.59
0.0031321915031955554,0.591
0.0031207655102666485,0.592
0.003108860984330671,0.593
0.0030964912077300266,0.594
0.003083670266228848,0.595
0.0030704126188762053,0.596
0.0030567325234901015,0.597
0.0030426435130091857,0.598
0.003028158078087463,0.599
0.0030132876099930594,0.6
0.0029980425396756226,0.601
0.0029824325316407303,0.602
0.00296646658264368,0.603
0.0029501529175474444,0.604
0.0029334986305313256,0.605
0.0029165091608638503,0.606
0.0028991879801074124,0.607
0.0028815369305198097,0.608
0.0028635572296735585,0.609
0.0028452507587717565,0.61
0.002826621253227106,0.611
0.0028076751372303316,0.612
0.002788421811657851,0.613
0.0027688732895663265,0.614
0.002749043194188639,0.615
0.0027289453757194746,0.616
0.0027085928351478087,0.617
0.0026879977100554135,0.618
0.0026671723191971333,0.619
0.0026461305541737924,0.62
0.002624889029775509,0.621
0.002603467795956741,0.622
0.002581890551337796,0.623
0.0025601843309831507,0.624
0.002538378707377182,0.625
0.00251650462860723,0.626
0.0024945930933760294,0.627
0.0024726739699680793,0.628
0.0024507753343707165,0.629
0.0024289234094283215,0.63
0.0024071427510094084,0.631
0.0023854563759446367,0.632
0.0023638858575445406,0.633
0.0023424515167619793,0.634
0.002321172756183407,0.635
0.0023000684842150823,0.636
0.0022791575060901854,0.637
0.002258458748477616,0.638
0.0022379912341145146,0.639
0.0022177738049032384,0.64
0.0021978246731775477,0.641
0.002178160930902029,0.642
0.0021587981452169396,0.643
0.002139750119691765,0.644
0.0021210288323946906,0.645
0.0021026445067981463,0.646
0.002084605745283871,0.647
0.0020669196566569783,0.648
0.0020495919321275704,0.649
0.002032626861129398,0.65
0.0020160273192379426,0.651
0.0019997947891836503,0.652
0.001983929468337908,0.653
0.001968430458221149,0.654
0.001953295947620483,0.655
0.0019385232437117525,0.656
0.0019241086009950516,0.657
0.0019100471071835043,0.658
0.0018963330211380996,0.659
0.0018829605962229078,0.66
0.0018699250269433876,0.661
0.0018572231625914029,0.662
0.0018448538149424517,0.663
0.0018328176200425254,0.664
0.0018211165200462997,0.665
0.001809753019466638,0.666
0.0017987294049520042,0.667
0.0017880470833936193,0.668
0.0017777061242653957,0.669
0.0017677050349869654,0.67
0.0017580407420876138,0.671
0.001748708701242882,0.672
0.0017397030668844385,0.673
0.0017310168914674072,0.674
0.0017226423382442554,0.675
0.0017145708897405637,0.676
0.001706793536003561,0.677
0.0016993009260267433,0.678
0.0016920834614952494,0.679
0.0016851313158631849,0.68
0.001678434383223262,0.681
0.0016719821913556813,0.682
0.0016657638278177477,0.683
0.0016597679105898168,0.684
0.001653982593775571,0.685
0.0016483955601201074,0.686
0.0016429939354593312,0.687
0.001637764077353422,0.688
0.0016326913221701405,0.689
0.00162775998455869,0.69
0.0016229538267430112,0.691
0.0016182568405997857,0.692
0.0016136540193629303,0.693
0.0016091319100868826,0.694
0.0016046788536759932,0.695
0.0016002848999572,0.696
0.0015959414641535264,0.697
0.0015916408428574432,0.698
0.0015873757172428606,0.699
0.0015831387340003312,0.7
0.001578922183212481,0.701
0.0015747177191393963,0.702
0.0015705160881061928,0.703
0.001566307001970817,0.704
0.0015620793904908678,0.705
0.0015578220548332752,0.706
0.0015535244957856765,0.707
0.0015491776808469779,0.708
0.0015447746179512755,0.709
0.0015403106684920237,0.71
0.0015357835545967689,0.711
0.0015311930193562821,0.712
0.0015265401116309149,0.713
0.0015218262554742127,0.714
0.0015170526692416765,0.715
0.0015122206727075356,0.716
0.0015073326842635266,0.717
0.0015023932048941068,0.718
0.001497409277112862,0.719
0.0014923902507108908,0.72
0.0014873469036946257,0.721
0.0014822903048490434,0.722
0.0014772311883810083,0.723
0.0014721802288935164,0.724
0.0014671486560712548,0.725
0.001462148484219358,0.726
0.0014571921846299248,0.727
0.0014522920462021575,0.728
0.001447459679048248,0.729
0.0014427059681654069,0.73
0.0014380413006558135,0.731
0.0014334757043073401,0.732
0.0014290187773003395,0.733
0.0014246795142711871,0.734
0.00142046618355107,0.735
0.0014163863655200202,0.736
0.001412447164205205,0.737
0.0014086554913083336,0.738
0.0014050182513131177,0.739
0.0014015422739586583,0.74
0.001398233994152373,0.741
0.0013950991370869918,0.742
0.0013921427155014839,0.743
0.0013893693151335949,0.744
0.0013867833724218455,0.745
0.0013843892579523307,0.746
0.0013821911899615463,0.747
0.0013801930665340155,0.748
0.0013783982705352562,0.749
0.00137680944796335,0.75
0.001375428289452302,0.751
0.0013742554791592364,0.752
0.0013732909555266343,0.753
0.001372534388991018,0.754
0.0013719856641396578,0.755
0.0013716452306541576,0.756
0.0013715142639986817,0.757
0.0013715946225565856,0.758
0.0013718886264956188,0.759
0.0013723987023391158,0.76
0.0013731269405184976,0.761
0.001374074674011595,0.762
0.0013752423000939075,0.763
0.0013766294742094665,0.764
0.0013782355207781827,0.765
0.0013800598294116569,0.766
0.0013821021342578252,0.767
0.0013843626463310096,0.768
0.0013868420201126597,0.769
0.0013895411488081078,0.77
0.0013924607995751102,0.771
0.0013956011720963602,0.772
0.0013989615930692523,0.773
0.0014025405169316811,0.774
0.0014063357255650027,0.775
0.0014103444678096174,0.776
0.0014145633973082347,0.777
0.0014189883479370597,0.778
0.001423614113890336,0.779
0.0014284343681669812,0.78
0.001433441667534817,0.781
0.0014386274815339818,0.782
0.0014439823757345332,0.783
0.0014494964565931164,0.784
0.0014551599363825485,0.785
0.0014609635768258972,0.786
0.0014668988575861222,0.787
0.0014729578190597198,0.788
0.0014791326120798644,0.789
0.001485414919162824,0.79
0.001491795573357902,0.791
0.0014982646049894156,0.792
0.0015048115868911617,0.793
0.0015114260087599756,0.794
0.0015180975722923617,0.795
0.0015248164208853286,0.796
0.0015315733172342838,0.797
0.0015383597499124097,0.798
0.0015451679219816938,0.799
0.0015519905604603817,0.8
0.0015588204901556268,0.801
0.001565650076039051,0.802
0.0015724709647497654,0.803
0.0015792744788108222,0.804
0.0015860524311652067,0.805
0.0015927978638534013,0.806
0.0015995054585503953,0.807
0.0016061716059783712,0.808
0.0016127942226464324,0.809
0.0016193724388534937,0.81
0.0016259062608539692,0.811
0.0016323962577528208,0.812
0.0016388432672968974,0.813
0.0016452480711493178,0.814
0.001651610985973463,0.815
0.0016579314563321132,0.816
0.0016642079550679466,0.817
0.0016704383762462006,0.818
0.001676620684484811,0.819
0.0016827534616332736,0.82
0.0016888361906148906,0.821
0.0016948692620206481,0.822
0.0017008537378947193,0.823
0.0017067909318680267,0.824
0.0017126818819109013,0.825
0.0017185268125083533,0.826
0.001724324697324644,0.827
0.0017300730223813168,0.828
0.0017357678006217606,0.829
0.0017414038043343115,0.83
0.0017469748887502655,0.831
0.0017524742230035177,0.832
0.0017578942582215451,0.833
0.0017632264678931937,0.834
0.0017684612581390098,0.835
0.0017735883981483682,0.836
0.001778597775669941,0.837
0.0017834800220679588,0.838
0.0017882267345475454,0.839
0.001792830201023491,0.84
0.001797282735860875,0.841
0.001801576105044892,0.842
0.001805701582459516,0.843
0.0018096505800400454,0.844
0.0018134152464505454,0.845
0.0018169885492556022,0.846
0.0018203637728053178,0.847
0.0018235338047063348,0.848
0.0018264908979765955,0.849
0.0018292272170950046,0.85
0.0018317357110931938,0.851
0.0018340107448822818,0.852
0.001836048327139017,0.853
0.0018378460104471412,0.854
0.0018394025852006119,0.855
0.0018407176887342122,0.856
0.0018417914203800799,0.857
0.0018426240061904478,0.858
0.0018432155060102442,0.859
0.001843565515502919,0.86
0.001843672808760949,0.861
0.0018435349815517702,0.862
0.001843148357352181,0.863
0.0018425083511722222,0.864
0.001841610144396679,0.865
0.0018404494031202014,0.866
0.00183902290864242,0.867
0.00183732905724343,0.868
0.001835368200925651,0.869
0.0018331428024328182,0.87
0.001830657374051892,0.871
0.0018279181787868178,0.872
0.0018249327054200622,0.873
0.0018217089762747273,0.874
0.0018182547826532545,0.875
0.001814577002950068,0.876
0.00181068124665765,0.877
0.0018065719746277248,0.878
0.001802252978197693,0.879
0.0017977280106442337,0.88
0.0017930014623928773,0.881
0.0017880790091547754,0.882
0.001782968136491512,0.883
0.0017776784358550697,0.884
0.0017722215878673171,0.885
0.0017666109983596264,0.886
0.0017608611224532494,0.887
0.001754986588287472,0.888
0.0017490013759846196,0.889
0.0017429184347226782,0.89
0.001736749858607064,0.891
0.001730507269754427,0.892
0.00172420202725823,0.893
0.0017178451773362132,0.894
0.0017114472126055606,0.895
0.0017050177289315385,0.896
0.0016985651173459044,0.897
0.0016920964861266788,0.898
0.001685617900271572,0.899
0.001679134805287749,0.9
0.0016726524422805216,0.901
0.0016661761366645181,0.902
0.0016597113866730444,0.903
0.0016532637032687912,0.904
0.001646838215643765,0.905
0.0016404392258819313,0.906
0.0016340700740391984,0.907
0.0016277334941790786,0.908
0.0016214322243445383,0.909
0.0016151695388486964,0.91
0.001608949552009751,0.911
0.0016027772486790685,0.912
0.0015966582382421189,0.913
0.001590598284659396,0.914
0.0015846027201442564,0.915
0.0015786759035813435,0.916
0.0015728208842967569,0.917
0.001567039297561032,0.918
0.001561331412968815,0.919
0.0015556963027482677,0.92
0.001550132082480815,0.921
0.0015446360783515597,0.922
0.0015392048015317639,0.923
0.0015338338340830744,0.924
0.0015285179692577041,0.925
0.0015232518147455432,0.926
0.0015180306529364873,0.927
0.001512851201688565,0.928
0.0015077120633124775,0.929
0.0015026137893460125,0.93
0.0014975585764680733,0.931
0.0014925496761559252,0.932
0.001487590635940664,0.933
0.001482684556941371,0.934
0.0014778336460164931,0.935
0.0014730391967575267,0.936
0.0014683017888140071,0.937
0.0014636214241972572,0.938
0.001458997535641853,0.939
0.0014544289443299905,0.94
0.0014499138458497994,0.941
0.0014454498601839685,0.942
0.0014410341415903728,0.943
0.0014366635290492054,0.944
0.0014323347217367892,0.945
0.0014280444651886958,0.946
0.001423789717996971,0.947
0.0014195677415224075,0.948
0.0014153760361893476,0.949
0.0014112120572557724,0.95
0.0014070727828293373,0.951
0.001402954472120945,0.952
0.0013988529065319165,0.953
0.0013947639553609928,0.954
0.0013906840811877695,0.955
0.0013866105696584427,0.956
0.001382541448044665,0.957
0.0013784751351940123,0.958
0.0013744099145083226,0.959
0.0013703434024300446,0.96
0.001366272261728059,0.961
0.0013621922457145125,0.962
0.0013580983589865946,0.963
0.0013539849043323832,0.964
0.001349845374325604,0.965
0.0013456722792050619,0.966
0.001341457112135407,0.967
0.0013371906298822224,0.968
0.00133286342048916,0.969
0.0013284665952231274,0.97
0.0013239924329899841,0.971
0.0013194347978484012,0.972
0.001314789168494137,0.973
0.001310052199914081,0.974
0.0013052209667029529,0.975
0.0013002924152901712,0.976
0.0012952635347144887,0.977
0.0012901321138098706,0.978
0.0012848975100347715,0.979
0.0012795610447367397,0.98
0.0012741259590736084,0.981
0.0012685970185054049,0.982
0.0012629799215438315,0.983
0.001257280685764465,0.984
0.0012515051426973335,0.985
0.0012456585916580936,0.986
0.00123974558342252,0.987
0.0012337697675889336,0.988
0.0012277337739322657,0.989
0.0012216391825220954,0.99
0.0012154866453928242,0.991
0.0012092761435579342,0.992
0.0012030073411096723,0.993
0.0011966800296679422,0.994
0.0011902946398135265,0.995
0.0011838527417131395,0.996
0.0011773574196397914,0.997
0.0011708134094039683,0.998
0.0011642269323437978,0.999
0.0011576052242597964,1.0
0.0011509558643432762,1.001
0.0011442861983622197,1.002
0.0011376032115956115,1.003
0.0011309138807351802,1.004
0.0011242256634258383,1.005
0.0011175468178993987,1.006
0.0011108864635916858,1.007
0.0011042543886021798,1.008
0.001097660634473224,1.009
0.001091114992102702,1.01
0.0010846267060963877,1.011
0.0010782045822804662,1.012
0.0010718573257577956,1.013
0.0010655938152277571,1.014
0.0010594231916992605,1.015
0.001053354765056081,1.016
0.00104739777392617,1.017
0.0010415610660183758,1.018
0.001035852817038638,1.019
0.0010302804068505211,1.02
0.001024850448994368,1.021
0.0010195688543531724,1.022
0.0010144408459801678,1.023
0.0010094709254507633,1.024
0.0010046628081328763,1.025
0.0010000193486965204,1.026
0.0009955425058073516,1.027
0.0009912333840826045,1.028
0.000987092341561616,1.029
0.0009831191443235583,1.03
0.000979313168489924,1.031
0.0009756736242532764,1.032
0.0009721997238714021,1.033
0.0009688906882029286,1.034
0.0009657455608159124,1.035
0.0009627630117116007,1.036
0.0009599414136539702,1.037
0.0009572792156671002,1.038
0.0009547753347118994,1.039
0.0009524293108018571,1.04
0.0009502411637573516,1.041
0.0009482110169568787,1.042
0.0009463386576374028,1.043
0.0009446232832934828,1.044
0.0009430635356757171,1.045
0.0009416576524725886,1.046
0.0009404035515402983,1.047
0.0009392988300688189,1.048
0.0009383407352062219,1.049
0.0009375261577638673,1.05
0.0009368516859076168,1.051
0.0009363137304665937,1.052
0.0009359087016235092,1.053
0.0009356331860445463,1.054
0.0009354840497939084,1.055
0.0009354583849385625,1.056
0.0009355532682452814,1.057
0.0009357654698093059,1.058
0.0009360913881320276,1.059
0.0009365272980558259,1.06
0.000937069666027381,1.061
0.000937715262992923,1.062
0.0009384609953025305,1.063
0.0009393035684868986,1.064
0.0009402393075076297,1.065
0.000941264395326329,1.066
0.0009423754029327736,1.067
0.0009435697907498719,1.068
0.0009448461793134036,1.069
0.0009462043030010525,1.07
0.0009476446185360853,1.071
0.0009491677247138151,1.072
0.0009507740407714438,1.073
0.0009524640584013917,1.074
0.000954238905594375,1.075
0.0009561007496257397,1.076
0.0009580528328544184,1.077
0.0009600991635905988,1.078
0.0009622439871602328,1.079
0.000964491260214103,1.08
0.0009668443745567872,1.081
0.0009693061695808088,1.082
0.0009718790229159621,1.083
0.0009745648460073602,1.084
0.0009773649895355241,1.085
0.0009802801237546053,1.086
0.0009833101384423802,1.087
0.000986454082470399,1.088
0.0009897101398374574,1.089
0.0009930756207874587,1.09
0.0009965469475699757,1.091
0.0010001196470750793,1.092
0.0010037883888770302,1.093
0.0010075470757569046,1.094
0.0010113889369834912,1.095
0.00101530655569494,1.096
0.0010192918127279347,1.097
0.001023335846706099,1.098
0.001027429179409971,1.099
0.0010315620366281055,1.1
0.0010357247678396968,1.101
0.0010399082607587258,1.102
0.0010441042757065814,1.103
0.001048305635434301,1.104
0.0010525062292645942,1.105
0.0010567008354220389,1.106
0.0010608848093558506,1.107
0.001065053704540718,1.108
0.0010692028785992001,1.109
0.0010733271459880875,1.11
0.0010774206077181377,1.111
0.0010814767737144396,1.112
0.0010854889271293786,1.113
0.001089450571886459,1.114
0.0010933558324715948,1.115
0.0010971997114647865,1.116
0.0011009781269981866,1.117
0.0011046876892086986,1.118
0.0011083252403542502,1.119
0.0011118873345520744,1.12
0.0011153699967605334,1.121
0.001118768919957097,1.122
0.001122079828931702,1.123
0.001125298634119207,1.124
0.0011284212529923297,1.125
0.001131443321638261,1.126
0.0011343602256515294,1.127
0.001137167595858858,1.128
0.0011398619176392212,1.129
0.001142440839328339,1.13
0.0011449030243310561,1.131
0.0011472476245396634,1.132
0.001149473726573052,1.133
0.0011515802674092713,1.134
0.0011535665355749932,1.135
0.0011554328443396788,1.136
0.0011571809518459663,1.137
0.0011588141123201835,1.138
0.0011603368242356562,1.139
0.0011617543932927526,1.14
0.0011630724346983097,1.141
0.0011642964136952699,1.142
0.0011654312844280577,1.143
0.001166481250989164,1.144
0.0011674496496064,1.145
0.0011683389368124335,1.146
0.001169150759648077,1.147
0.0011698860773136349,1.148
0.0011705452980706234,1.149
0.0011711283876843803,1.15
0.0011716348974624956,1.151
0.0011720638627405497,1.152
0.0011724136089709522,1.153
0.0011726816688347988,1.154
0.0011728649824014456,1.155
0.0011729602778805563,1.156
0.0011729644043965933,1.157
0.0011728744917148806,1.158
0.0011726879157479846,1.159
0.0011724021071930302,1.16
0.0011720142831450524,1.161
0.0011715211941574122,1.162
0.0011709189601985927,1.163
0.0011702030303319371,1.164
0.0011693682610702733,1.165
0.0011684090821503883,1.166
0.0011673197063563918,1.167
0.001166094329470615,1.168
0.0011647272502286932,1.169
0.001163212829894002,1.17
0.0011615452546116746,1.171
0.0011597182462455245,1.172
0.0011577250583692156,1.173
0.001155558931468887,1.174
0.0011532137966022808,1.175
0.0011506849207462348,1.176
0.0011479693414207844,1.177
0.0011450660434748883,1.178
0.0011419758828903439,1.179
0.0011387013082730056,1.18
0.001135245950815385,1.181
0.0011316141476441829,1.182
0.0011278104461108873,1.183
0.0011238391304989165,1.184
0.0011197038637020028,1.185
0.0011154075988533874,1.186
0.0011109528193924245,1.187
0.0011063419782715688,1.188
0.0011015779760244597,1.189
0.0010966645915473935,1.19
0.0010916067993099199,1.191
0.0010864109062880176,1.192
0.0010810844745696628,1.193
0.001075636046257373,1.194
0.0010700747260105278,1.195
0.0010644096839785692,1.196
0.0010586496883936535,1.197
0.0010528028822013643,1.198
0.0010468769300962196,1.199
0.0010408793769305933,1.2
0.0010348179813414074,1.201
0.0010287009401832598,1.202
0.001022537018238999,1.203
0.001016335607934643,1.204
0.001010106725739287,1.205
0.001003860924308328,1.206
0.0009976090873530328,1.207
0.0009913620940728291,1.208
0.0009851304351130555,1.209
0.0009789239882130785,1.21
0.0009727520673463243,1.211
0.0009666235853613921,1.212
0.0009605471145999558,1.213
0.0009545307893510819,1.214
0.0009485821336259382,1.215
0.0009427079824025159,1.216
0.0009369145918624802,1.217
0.0009312078397276488,1.218
0.0009255933734066628,1.219
0.0009200766640169242,1.22
0.0009146629787279413,1.221
0.0009093572781776353,1.222
0.0009041640586183434,1.223
0.0008990872380603228,1.224
0.0008941302310381053,1.225
0.0008892962354135897,1.226
0.00088458859678792,1.227
0.0008800110960237479,1.228
0.0008755680597321513,1.229
0.0008712642374295622,1.23
0.0008671044707408593,1.231
0.0008630933383560532,1.232
0.0008592350250774639,1.233
0.0008555334375901988,1.234
0.0008519923280476896,1.235
0.0008486152379043926,1.236
0.0008454052978323796,1.237
0.000842365041020433,1.238
0.0008394963242366533,1.239
0.0008368003413053754,1.24
0.0008342777613399919,1.241
0.0008319290724927831,1.242
0.0008297550810482454,1.243
0.0008277574010722882,1.244
0.0008259387858432657,1.245
0.0008243032141110107,1.246
0.0008228557212609218,1.247
0.0008216020397910484,1.248
0.0008205481457792893,1.249
0.0008196998262601113,1.25
0.0008190624216394504,1.251
0.0008186408428378824,1.252
0.000818439783621839,1.253
0.000818463963656349,1.254
0.0008187183145830327,1.255
0.000819208106026429,1.256
0.0008199390403540337,1.257
0.000820917346440337,1.258
0.0008221498768576176,1.259
0.0008236441696986901,1.26
0.0008254084047067903,1.261
0.000827451191896498,1.262
0.0008297812125556662,1.263
0.0008324068895036568,1.264
0.0008353363141451342,1.265
0.0008385774374182247,1.266
0.0008421383013315914,1.267
0.0008460271387603964,1.268
0.0008502523399959486,1.269
0.0008548223613657031,1.27
0.0008597456482623093,1.271
0.0008650306121486349,1.272
0.0008706856642324442,1.273
0.0008767192895525751,1.274
0.000883140143242543,1.275
0.0008899571493568263,1.276
0.0008971795721393751,1.277
0.0009048170157231234,1.278
0.0009128793031983383,1.279
0.0009213762132589135,1.28
0.0009303171712123973,1.281
0.0009397111164087645,1.282
0.0009495666234958369,1.283
0.0009598920536328044,1.284
0.0009706955004478743,1.285
0.0009819845701877017,1.286
0.0009937662237948011,1.287
0.0010060467596027995,1.288
0.001018831815752701,1.289
0.0010321264631577589,1.29
0.0010459356109165756,1.291
0.0010602646411339875,1.292
0.0010751199430913435,1.293
0.0010905091054227232,1.294
0.0011064406896321576,1.295
0.0011229236715768237,1.296
0.0011399668651059596,1.297
0.0011575787403055096,1.298
0.0011757677264683335,1.299
0.0011945426721048933,1.3
0.0012139131499246843,1.301
0.00123388954660779,1.302
0.0012544829951051666,1.303
0.0012757052178554316,1.304
0.0012975683353275737,1.305
0.0013200846674269603,1.306
0.00134326653564761,1.307
0.0013671260696194107,1.308
0.001391675019502011,1.309
0.0014169245598351539,1.31
0.0014428850641839365,1.311
0.0014695659077553899,1.312
0.0014969754674322927,1.313
0.001525121416299108,1.314
0.0015540111982744994,1.315
0.0015836525056824818,1.316
0.001614053658109355,1.317
0.0016452238238662648,1.318
0.0016771730337005223,1.319
0.0017099119511714304,1.32
0.001743451389297366,1.321
0.0017778016797565259,1.322
0.0018129722271611282,1.323
0.0018489715547210341,1.324
0.0018858077252585414,1.325
0.0019234887608544594,1.326
0.001962022852002789,1.327
0.0020014183773809048,1.328
0.002041683836968513,1.329
0.0020828277904733606,1.33
0.0021248588403918896,1.331
0.002167785639092711,1.332
0.0022116168646512183,1.333
0.0022563611094371353,1.334
0.0023020266423907365,1.335
0.0023486210215946505,1.336
0.002396150597080263,1.337
0.002444620118119658,1.338
0.002494032733410908,1.339
0.002544390397066071,1.34
0.002595694369753428,1.341
0.002647945515508981,1.342
0.0027011442830738013,1.343
0.0027552903892339477,1.344
0.002810382296824723,1.345
0.002866416628568865,1.346
0.0029233876722763257,1.347
0.0029812871176845735,1.348
0.0030401041238461847,1.349
0.0030998257448172054,1.35
0.003160437643652447,1.351
0.003221924925804328,1.352
0.003284272861301087,1.353
0.003347467266271568,1.354
0.003411494378408894,1.355
0.0034763401672104925,1.356
0.003541989299629416,1.357
0.003608424448366993,1.358
0.0036756265794151886,1.359
0.003743576057812527,1.36
0.003812253932123729,1.361
0.003881643015545962,1.362
0.003951728688849936,1.363
0.004022499412239093,1.364
0.004093946900941847,1.365
0.004166065880073865,1.366
0.004238853320426283,1.367
0.00431230708728002,1.368
0.00438642423480972,1.369
0.004461199833446816,1.37
0.00453662723996181,1.371
0.004612699573929091,1.372
0.004689411297201157,1.373
0.004766759089319672,1.374
0.004844741796215239,1.375
0.004923359519752276,1.376
0.005002612051040338,1.377
0.005082497102711345,1.378
0.005163009183836543,1.379
0.005244139720492757,1.38
0.005325878038683374,1.381
0.005408212355459779,1.382
0.0054911302819976755,1.383
0.005574618695145685,1.384
0.00565866295376195,1.385
0.005743245666032548,1.386
0.0058283456958938855,1.387
0.0059139381995465265,1.388
0.005999995709127326,1.389
0.006086489565852002,1.39
0.006173391162366316,1.391
0.006260672895278561,1.392
0.00634830888690634,1.393
0.006436275505825406,1.394
0.006524551631225941,1.395
0.006613118510330279,1.396
0.0067019590004068225,1.397
0.0067910559951277925,1.398
0.00688039031306807,1.399
0.006969939467933076,1.4
0.007059678911751604,1.401
0.007149585606004764,1.402
0.007239642346906216,1.403
0.007329841452223878,1.404
0.007420186994191011,1.405
0.007510695111412624,1.406
0.007601392311584016,1.407
0.007692312092423181,1.408
0.007783490507707633,1.409
0.007874961803364913,1.41
0.00796675588306429,1.411
0.008058898482600562,1.412
0.008151412809522739,1.413
0.00824432094917532,1.414
0.008337644533131041,1.415
0.00843140489485561,1.416
0.008525622979569169,1.417
0.00862031916748458,1.418
0.008715513036068712,1.419
0.008811222986189504,1.42
0.00890746562479848,1.421
0.009004254840629519,1.422
0.009101600606563806,1.423
0.00919950764580457,1.424
0.009297974157654544,1.425
0.009396990783868707,1.426
0.009496539916432066,1.427
0.00959659533642341,1.428
0.009697122067699387,1.429
0.009798076263685214,1.43
0.009899405061086781,1.431
0.010001046664077569,1.432
0.010102931012186699,1.433
0.010204981037200567,1.434
0.010307114243381208,1.435
0.010409244341666651,1.436
0.010511282675997652,1.437
0.010613139161567572,1.438
0.010714722483501636,1.439
0.010815939385609371,1.44
0.010916692991366056,1.441
0.011016880537123639,1.442
0.011116391847912256,1.443
0.011215110033274097,1.444
0.011312914354410602,1.445
0.011409683901506203,1.446
0.01150530090848184,1.447
0.01159965308765032,1.448
0.011692634541408073,1.449
0.011784144901732976,1.45
0.011874086549425827,1.451
0.011962360400153561,1.452
0.01204886228139983,1.453
0.012133482769716476,1.454
0.012216111150561103,1.455
0.012296641153440951,1.456
0.01237497594736803,1.457
0.012451031318096214,1.458
0.012524736704603193,1.459
0.012596034061014129,1.46
0.012664874793864028,1.461
0.012731215247707896,1.462
0.012795011341011412,1.463
0.012856213453319347,1.464
0.012914763519233836,1.465
0.012970595512028386,1.466
0.013023638148560005,1.467
0.013073817994223028,1.468
0.013121062374087203,1.469
0.013165302224957884,1.47
0.013206474941757699,1.471
0.013244527049865978,1.472
0.013279416363905523,1.473
0.013311113215254267,1.474
0.013339600340012624,1.475
0.013364871103071035,1.476
0.013386925891710722,1.477
0.013405766736449111,1.478
0.013421391487682238,1.479
0.013433791099631366,1.48
0.013442952480702331,1.481
0.013448864869340809,1.482
0.013451526240099005,1.483
0.013450948233895782,1.484
0.013447159351523557,1.485
0.01344020635432215,1.486
0.013430153919745284,1.487
0.01341708262543077,1.488
0.01340108533149474,1.489
0.01338226206547311,1.49
0.013360713790915567,1.491
0.013336536748511665,1.492
0.013309820552912403,1.493
0.01328065142401507,1.494
0.013249118024812392,1.495
0.013215316718091789,1.496
0.013179355007192545,1.497
0.013141352979159584,1.498
0.01310144278663863,1.499
0.013059766384109979,1.5
0.01301647185609247,1.501
0.012971708744249489,1.502
0.012925623055359235,1.503
0.012878353454169208,1.504
0.012830030415960881,1.505
0.012780778368117455,1.506
0.012730718899382407,1.507
0.012679973364253926,1.508
0.012628664391704082,1.509
0.012576916212272889,1.51
0.012524853682400127,1.511
0.01247259992086558,1.512
0.01242027303626243,1.513
0.012367983738475323,1.514
0.012315835839244704,1.515
0.012263929415699903,1.516
0.012212364394115912,1.517
0.01216124267277046,1.518
0.01211066811144503,1.519
0.012060744406407926,1.52
0.012011571578514908,1.521
0.011963243019796432,1.522
0.011915845311782353,1.523
0.011869460940460777,1.524
0.011824171902746289,1.525
0.011780062464099088,1.526
0.011737220537257627,1.527
0.01169573764965675,1.528
0.011655707562597971,1.529
0.011617223707661797,1.53
0.011580375807806194,1.531
0.01154524670405596,1.532
0.011511911016890105,1.533
0.011480436134786024,1.534
0.011450883987854652,1.535
0.011423311943067439,1.536
0.011397772443103376,1.537
0.011374311740413773,1.538
0.011352968252798822,1.539
0.011333771106857442,1.54
0.011316739342535185,1.541
0.011301882041125358,1.542
0.01128919935778612,1.543
0.01127868417144055,1.544
0.011270323892308549,1.545
0.011264101929733664,1.546
0.011259998409053487,1.547
0.011257989892473142,1.548
0.01125804804928955,1.549
0.011260137701854704,1.55
0.01126421555864585,1.551
0.011270230930482954,1.552
0.011278128180160727,1.553
0.011287849521657694,1.554
0.011299337102647168,1.555
0.011312533922960702,1.556
0.01132738343253417,1.557
0.01134382782139215,1.558
0.011361805292033459,1.559
0.011381247455020048,1.56
0.01140207881478092,1.561
0.011424219170799105,1.562
0.011447587480499356,1.563
0.011472105257969146,1.564
0.011497698544610413,1.565
0.011524298043032273,1.566
0.011551837203900248,1.567
0.0115802485491306,1.568
0.0116094599294778,1.569
0.01163939364880225,1.57
0.011669969537299624,1.571
0.011701109614389364,1.572
0.011732741424745851,1.573
0.011764798794133372,1.574
0.011797219816761344,1.575
0.011829942639671492,1.576
0.011862901227410396,1.577
0.011896024396328276,1.578
0.011929239110828447,1.579
0.011962475351623881,1.58
0.0119956694382819,1.581
0.012028764493167173,1.582
0.012061707817491744,1.583
0.012094446153511223,1.584
0.012126922110577266,1.585
0.012159075272798085,1.586
0.012190847686737913,1.587
0.012222190198174488,1.588
0.012253066772139904,1.589
0.012283455756048582,1.59
0.012313347959162687,1.591
0.01234274191847087,1.592
0.012371637507583926,1.593
0.012400030531793421,1.594
0.012427911364282727,1.595
0.012455267764924421,1.596
0.012482088779059817,1.597
0.012508367017132335,1.598
0.012534098759515755,1.599
0.012559282395639939,1.6
0.012583915977513595,1.601
0.012607994737885996,1.602
0.012631509296678896,1.603
0.012654444990454677,1.604
0.012676782373214826,1.605
0.012698498553195577,1.606
0.012719568753227106,1.607
0.01273996736897203,1.608
0.0127596678504868,1.609
0.01277864092201156,1.61
0.012796851632839583,1.611
0.01281425768098627,1.612
0.012830811495747125,1.613
0.012846465510367602,1.614
0.012861177954602489,1.615
0.012874917171614706,1.616
0.012887663585309305,1.617
0.012899409016964321,1.618
0.012910153495404773,1.619
0.012919900088808438,1.62
0.012928649077420354,1.621
0.012936394113422938,1.622
0.01294312252297906,1.623
0.01294881883865632,1.624
0.012953468868562147,1.625
0.012957062658669418,1.626
0.012959595970505397,1.627
0.012961070209139348,1.628
0.012961490748093454,1.629
0.012960863664864767,1.63
0.012959191463827988,1.631
0.012956469717732991,1.632
0.012952686858574198,1.633
0.012947826912887227,1.634
0.01294187253687633,1.635
0.012934806055202731,1.636
0.012926607772543536,1.637
0.012917252563114816,1.638
0.012906707780371719,1.639
0.012894934708861779,1.64
0.012881891778871071,1.641
0.012867536031811587,1.642
0.012851821583322714,1.643
0.012834697510115798,1.644
0.012816109407795515,1.645
0.012796005889114911,1.646
0.012774346785073411,1.647
0.012751109134568478,1.648
0.012726288942175465,1.649
0.012699898120685027,1.65
0.012671957291864017,1.651
0.01264248782900619,1.652
0.012611508972301188,1.653
0.012579042397309401,1.654
0.012545119864915496,1.655
0.01250978866621979,1.656
0.012473113250952966,1.657
0.01243517361091885,1.658
0.012396061574008245,1.659
0.012355876354815455,1.66
0.012314720480526887,1.661
0.012272696673998579,1.662
0.012229905632737358,1.663
0.01218644412421348,1.664
0.012142402882258835,1.665
0.012097865008381139,1.666
0.012052906806073177,1.667
0.012007601869410032,1.668
0.011962026869024985,1.669
0.011916266860833373,1.67
0.011870418797388062,1.671
0.011824592616911397,1.672
0.011778909770128567,1.673
0.01173349952409088,1.674
0.011688493731918765,1.675
0.011644021342282552,1.676
0.011600204807469013,1.677
0.011557159895394166,1.678
0.011514997865353158,1.679
0.01147382773868612,1.68
0.011433757485412763,1.681
0.01139489408130305,1.682
0.011357342684419344,1.683
0.011321205202301525,1.684
0.011286578520244244,1.685
0.011253552633860771,1.686
0.011222208974456761,1.687
0.011192619402939091,1.688
0.01116484624414318,1.689
0.011138943098590441,1.69
0.011114955695748085,1.691
0.0110929221595356,1.692
0.011072872508585636,1.693
0.011054827970759481,1.694
0.011038801112656118,1.695
0.011024796925474967,1.696
0.011012813821142435,1.697
0.011002843497558423,1.698
0.010994869835791385,1.699
0.01098886842621331,1.7
0.010984808046518876,1.701
0.010982653385299917,1.702
0.010982367365793269,1.703
0.010983912059761826,1.704
0.010987247736221624,1.705
0.010992330464065158,1.706
0.010999110487866616,1.707
0.011007533793357435,1.708
0.011017546490140926,1.709
0.01102909944724751,1.71
0.011042151189784997,1.711
0.011056668385053427,1.712
0.011072624013035996,1.713
0.011089993775949207,1.714
0.011108751605217466,1.715
0.011128865633204189,1.716
0.011150296462160541,1.717
0.011172998458297419,1.718
0.01119692289060006,1.719
0.011222021622041474,1.72
0.01124825100472546,1.721
0.011275575711375026,1.722
0.011303971841966725,1.723
0.011333428526544913,1.724
0.011363947473646696,1.725
0.01139554037440405,1.726
0.011428224571627833,1.727
0.011462017762456643,1.728
0.01149693296747317,1.729
0.011532975494910419,1.73
0.011570142713253531,1.731
0.01160842546186761,1.732
0.011647809601188915,1.733
0.01168827746003175,1.734
0.011729809639413375,1.735
0.011772387487637115,1.736
0.011815996177386861,1.737
0.011860627933456202,1.738
0.01190628471133344,1.739
0.011952979599803978,1.74
0.012000736436731161,1.741
0.012049587521190992,1.742
0.012099569734381591,1.743
0.012150719687755794,1.744
0.012203068957828722,1.745
0.012256641092716436,1.746
0.012311451451158579,1.747
0.012367508907725134,1.748
0.012424817600945048,1.749
0.012483377842883487,1.75
0.01254318623937837,1.751
0.012604235392234058,1.752
0.012666513660957565,1.753
0.012730005457285358,1.754
0.012794692409526243,1.755
0.012860555473255082,1.756
0.012927577719924472,1.757
0.012995747187329439,1.758
0.013065058945915236,1.759
0.013135515543918874,1.76
0.013207125288340093,1.761
0.013279898309496248,1.762
0.013353841444808785,1.763
0.01342895467356087,1.764
0.013505231518004444,1.765
0.013582662549965896,1.766
0.013661239062353456,1.767
0.013740955022497722,1.768
0.013821806956640497,1.769
0.013903792026941747,1.77
0.01398690478561854,1.771
0.014071133334285888,1.772
0.014156456102829817,1.773
0.014242840509701123,1.774
0.014330243363512475,1.775
0.014418611358512225,1.776
0.01450788054662274,1.777
0.014597975529716936,1.778
0.014688809902278499,1.779
0.014780288279105363,1.78
0.014872308777600117,1.781
0.014964764807127134,1.782
0.015057545759488585,1.783
0.015150536603010299,1.784
0.015243616459745344,1.785
0.015336656278809476,1.786
0.015429516385201578,1.787
0.01552204579985253,1.788
0.015614084482623875,1.789
0.01570546718512466,1.79
0.01579602676490338,1.791
0.015885595771750506,1.792
0.01597400582356829,1.793
0.016061084601928923,1.794
0.016146651695236092,1.795
0.01623051696325071,1.796
0.01631248414801499,1.797
0.0163923577256134,1.798
0.016469948953407487,1.799
0.01654507851775182,1.8
0.016617574363563505,1.801
0.016687265581745808,1.802
0.01675397817008005,1.803
0.01681753928570661,1.804
0.01687778928978048,1.805
0.016934594741935014,1.806
0.016987856616540134,1.807
0.017037511319899126,1.808
0.017083524138001828,1.809
0.01712587671840485,1.81
0.01716455407591452,1.811
0.017199539659655306,1.812
0.01723082146899099,1.813
0.01725840254917941,1.814
0.017282308330082548,1.815
0.017302588625485397,1.816
0.017319314910600323,1.817
0.017332574011437993,1.818
0.017342459598719863,1.819
0.01734906324234315,1.82
0.017352467585570307,1.821
0.017352743875082968,1.822
0.017349953177693434,1.823
0.017344148210201533,1.824
0.01733537374313264,1.825
0.0173236655983152,1.826
0.01730904887553723,1.827
0.017291535928582805,1.828
0.01727112484490985,1.829
0.01724779950385489,1.83
0.01722153159834267,1.831
0.01719228368603706,1.832
0.017160011875773276,1.833
0.01712466705212193,1.834
0.01708619384276737,1.835
0.017044527827718096,1.836
0.01699959417141713,1.837
0.01695131105303948,1.838
0.016899597405764057,1.839
0.016844381778510404,1.84
0.016785609795611313,1.841
0.016723248757070618,1.842
0.016657288365985817,1.843
0.016587737071538513,1.844
0.01651461420383281,1.845
0.01643794021495244,1.846
0.016357730894723737,1.847
0.01627400025084687,1.848
0.016186769733693332,1.849
0.016096078113341673,1.85
0.016001988885753042,1.851
0.015904594392113554,1.852
0.015804016255758998,1.853
0.01570040186202353,1.854
0.015593916957962578,1.855
0.015484735454072003,1.856
0.015373030092098675,1.857
0.015258969487133586,1.858
0.015142723065200144,1.859
0.015024469140411272,1.86
0.014904401045904476,1.861
0.014782729641543615,1.862
0.014659682087229243,1.863
0.014535497038050595,1.864
0.014410417129979161,1.865
0.014284681473418529,1.866
0.01415852206658689,1.867
0.014032164767140464,1.868
0.013905830757054977,1.869
0.013779735382039146,1.87
0.013654086028949018,1.871
0.013529082231047559,1.872
0.013404918186788128,1.873
0.01328178516755923,1.874
0.013159871929793593,1.875
0.013039362996009654,1.876
0.012920435838950788,1.877
0.012803259082069144,1.878
0.012687993384352225,1.879
0.012574794257310054,1.88
0.012463814768349148,1.881
0.012355206971362472,1.882
0.012249121979975346,1.883
0.01214570904849669,1.884
0.01204511417133617,1.885
0.011947478648679526,1.886
0.011852937823531627,1.887
0.011761619891339775,1.888
0.011673644641301705,1.889
0.011589122500791126,1.89
0.011508154613393518,1.891
0.011430833883308322,1.892
0.011357245864051319,1.893
0.011287468541763216,1.894
0.011221571279574022,1.895
0.011159614236573542,1.896
0.011101649054360632,1.897
0.011047720059196197,1.898
0.010997864901818557,1.899
0.01095211434457727,1.9
0.010910491387258286,1.901
0.010873010279507999,1.902
0.010839676332455502,1.903
0.010810486910215108,1.904
0.010785432865227243,1.905
0.010764499445956106,1.906
0.010747666315570493,1.907
0.010734906850890378,1.908
0.010726187172286555,1.909
0.01072146544073848,1.91
0.010720691834079128,1.911
0.01072380937178788,1.912
0.010730755493963717,1.913
0.010741464059790519,1.914
0.010755867233517622,1.915
0.010773896611108244,1.916
0.010795482959633871,1.917
0.010820554313921878,1.918
0.010849033553222247,1.919
0.01088083808322474,1.92
0.01091588288765728,1.921
0.010954084896411356,1.922
0.010995365734595954,1.923
0.01103965135754912,1.924
0.011086868744154299,1.925
0.011136942247523705,1.926
0.011189793498498265,1.927
0.011245345410932521,1.928
0.011303526217400644,1.929
0.011364269353751946,1.93
0.011427509294581091,1.931
0.01149317838175759,1.932
0.0115612090822159,1.933
0.0116315394874076,1.934
0.01170411660526005,1.935
0.01177889488673223,1.936
0.01185583105295871,1.937
0.01193487885777664,1.938
0.012015987710823,1.939
0.012099105333757583,1.94
0.012184180877026562,1.941
0.012271165504646525,1.942
0.012360009933841747,1.943
0.012450660331507395,1.944
0.012543055489136423,1.945
0.012637127109891889,1.946
0.012732801500485929,1.947
0.012829999812353766,1.948
0.01292863628161109,1.949
0.013028616421423148,1.95
0.01312983710767915,1.951
0.013232188104101704,1.952
0.013335553157730835,1.953
0.013439809720998046,1.954
0.01354482750046936,1.955
0.013650466523865432,1.956
0.0137565758617198,1.957
0.013862994036551456,1.958
0.013969551117497541,1.959
0.014076071773434461,1.96
0.014182378713248726,1.961
0.014288296064021065,1.962
0.014393651951081433,1.963
0.014498279268038872,1.964
0.014602013678854596,1.965
0.014704689213065036,1.966
0.014806135023328577,1.967
0.014906178141985001,1.968
0.015004652869109906,1.969
0.015101412592842273,1.97
0.015196339405210783,1.971
0.01528934860235353,1.972
0.015380386580882716,1.973
0.015469422098286239,1.974
0.0155564337554186,1.975
0.01564140090572255,1.976
0.01572430469909138,1.977
0.015805137924119073,1.978
0.015883916668026517,1.979
0.015960688837899542,1.98
0.016035537911898785,1.981
0.016108581385982354,1.982
0.016179963878081745,1.983
0.016249845593895577,1.984
0.016318389553303263,1.985
0.016385754963946543,1.986
0.01645210090556145,1.987
0.01651759490018425,1.988
0.01658241855015259,1.989
0.01664676746240057,1.99
0.01671084622782755,1.991
0.01677486054747704,1.992
0.016839009290818715,1.993
0.016903478868479597,1.994
0.01696844073261384,1.995
0.01703405135511682,1.996
0.017100453522191895,1.997
0.017167777611767136,1.998
0.01723614175921942,1.999
0.017305650787581003,2.0
0.017376394801808186,2.001
0.01744844845783285,2.002
0.017521870892484585,2.003
0.017596705589998048,2.004
0.017672980161684358,2.005
0.01775070666834366,2.006
0.017829882536537653,2.007
0.017910491470228312,2.008
0.01799250392866032,2.009
0.018075877125714464,2.01
0.018160554578915706,2.011
0.018246465241354627,2.012
0.018333522827065227,2.013
0.01842162678872551,2.014
0.018510665984465362,2.015
0.018600524461500668,2.016
0.018691087751212376,2.017
0.018782247865818627,2.018
0.01887390522383023,2.019
0.018965966208500544,2.02
0.01905833686525298,2.021
0.01915091685520719,2.022
0.019243599192555236,2.023
0.01933627616262615,2.024
0.019428845847854377,2.025
0.01952121416312743,2.026
0.019613291188411246,2.027
0.019704983863608673,2.028
0.01979619001631926,2.029
0.0198867981485253,2.03
0.019976692004872378,2.031
0.020065755294545032,2.032
0.020153873422265933,2.033
0.020240931425092142,2.034
0.020326808993673933,2.035
0.020411376461379683,2.036
0.02049449689571674,2.037
0.020576034876596705,2.038
0.020655867170342568,2.039
0.020733890273958992,2.04
0.020810022302911523,2.041
0.020884198558021316,2.042
0.020956361703819218,2.043
0.021026450616923563,2.044
0.02109439497951028,2.045
0.0211601186735912,2.046
0.021223546667130284,2.047
0.021284608871230484,2.048
0.021343238947055775,2.049
0.02139936876855607,2.05
0.02145292175706163,2.051
0.02150381108527227,2.052
0.02155194573934865,2.053
0.02159724035510462,2.054
0.021639622871478147,2.055
0.021679036979664834,2.056
0.021715438390837637,2.057
0.021748786146186437,2.058
0.02177903504169503,2.059
0.021806137501981057,2.06
0.021830056711157914,2.061
0.02185078471435603,2.062
0.02186835894986672,2.063
0.021882874319441924,2.064
0.021894489680047584,2.065
0.0219034282211145,2.066
0.021909971778009154,2.067
0.02191444969056656,2.068
0.021917223279266988,2.069
