VaMe,time
-0.0023,0.001
0.0,0.002
0.0142,0.003
0.0217,0.004
0.0307,0.005
0.0487,0.006
0.0547,0.007
0.0375,0.008
0.015,0.009
0.0082,0.01
0.006,0.011
0.012,0.012
0.0007,0.013
-0.027,0.014
-0.042,0.015
-0.0405,0.016
-0.024,0.017
-0.0173,0.018
0.0067,0.019
0.0465,0.02
0.0532,0.021
0.0255,0.022
-0.0046,0.023
-0.0256,0.024
-0.0503,0.025
-0.057,0.026
-0.075,0.027
-0.0765,0.028
-0.0323,0.029
0.0007,0.03
0.0142,0.031
0.003,0.032
0.0,0.033
0.0045,0.034
0.0142,0.035
0.0427,0.036
0.06,0.037
0.0832,0.038
0.0975,0.039
0.075,0.04
0.0427,0.041
0.0007,0.042
-0.0413,0.043
-0.054,0.044
-0.0645,0.045
-0.0675,0.046
-0.0458,0.047
-0.015,0.048
0.0225,0.049
0.054,0.05
0.0495,0.051
0.0315,0.052
0.0082,0.053
-0.0091,0.054
-0.0181,0.055
-0.0346,0.056
-0.0353,0.057
-0.0091,0.058
0.0082,0.059
-0.0091,0.06
-0.0188,0.061
-0.0165,0.062
-0.0105,0.063
-0.0105,0.064
-0.0023,0.065
0.0142,0.066
0.0375,0.067
0.0622,0.068
0.0607,0.069
0.0592,0.07
0.054,0.071
0.0195,0.072
0.009,0.073
0.0202,0.074
-0.0143,0.075
-0.0675,0.076
-0.1013,0.077
-0.0885,0.078
-0.0615,0.079
-0.0615,0.08
-0.0533,0.081
-0.0248,0.082
0.0052,0.083
0.0135,0.084
0.0225,0.085
0.0345,0.086
0.0232,0.087
0.0127,0.088
0.015,0.089
0.0277,0.09
0.0247,0.091
0.0187,0.092
0.0217,0.093
0.018,0.094
0.0165,0.095
0.0187,0.096
0.0247,0.097
0.0255,0.098
0.015,0.099
0.0052,0.1
-0.0046,0.101
-0.0181,0.102
-0.0218,0.103
-0.012,0.104
-0.0015,0.105
0.0045,0.106
0.0067,0.107
-0.0038,0.108
-0.0098,0.109
-0.0075,0.11
-0.0158,0.111
-0.0143,0.112
-0.0128,0.113
-0.0173,0.114
-0.0113,0.115
-0.0008,0.116
0.0082,0.117
0.0187,0.118
0.0292,0.119
0.0165,0.12
-0.0008,0.121
-0.0091,0.122
-0.012,0.123
-0.0015,0.124
0.012,0.125
0.0127,0.126
0.0045,0.127
0.0022,0.128
0.0067,0.129
0.0105,0.13
0.0052,0.131
0.0045,0.132
0.0217,0.133
0.0217,0.134
0.0105,0.135
0.0105,0.136
0.0037,0.137
-0.003,0.138
-0.0008,0.139
0.0,0.14
-0.0113,0.141
-0.0083,0.142
0.009,0.143
0.0105,0.144
0.0105,0.145
0.0225,0.146
0.042,0.147
0.0382,0.148
0.0105,0.149
-0.0091,0.15
-0.03,0.151
-0.0465,0.152
-0.0503,0.153
-0.0706,0.154
-0.0713,0.155
-0.0338,0.156
-0.0075,0.157
0.0195,0.158
0.051,0.159
0.0405,0.16
0.018,0.161
0.003,0.162
-0.0293,0.163
-0.048,0.164
-0.0398,0.165
-0.012,0.166
0.0442,0.167
0.069,0.168
0.039,0.169
0.0052,0.17
-0.0195,0.171
-0.0405,0.172
-0.057,0.173
-0.0615,0.174
-0.039,0.175
-0.003,0.176
0.0285,0.177
0.0525,0.178
0.045,0.179
0.0322,0.18
0.0195,0.181
0.0007,0.182
-0.0091,0.183
-0.024,0.184
-0.024,0.185
-0.0023,0.186
0.0345,0.187
0.0442,0.188
0.021,0.189
0.0195,0.19
0.0157,0.191
0.0195,0.192
0.0217,0.193
0.0187,0.194
0.0202,0.195
0.0187,0.196
0.0255,0.197
0.021,0.198
0.0015,0.199
0.0052,0.2
0.018,0.201
0.0105,0.202
-0.003,0.203
-0.0143,0.204
-0.0098,0.205
-0.006,0.206
-0.0046,0.207
-0.0008,0.208
-0.003,0.209
0.003,0.21
0.0037,0.211
0.0015,0.212
-0.0038,0.213
0.0015,0.214
0.003,0.215
-0.0091,0.216
-0.0173,0.217
-0.027,0.218
-0.0315,0.219
-0.0218,0.22
-0.0143,0.221
-0.0068,0.222
0.0007,0.223
0.0007,0.224
-0.0075,0.225
-0.0105,0.226
-0.012,0.227
-0.0143,0.228
-0.0091,0.229
-0.0008,0.23
0.0082,0.231
0.012,0.232
0.0097,0.233
0.009,0.234
0.003,0.235
-0.0068,0.236
-0.0091,0.237
-0.0083,0.238
-0.0091,0.239
-0.006,0.24
0.0075,0.241
0.0195,0.242
0.0232,0.243
0.018,0.244
-0.0008,0.245
-0.0083,0.246
-0.0083,0.247
-0.012,0.248
-0.0135,0.249
-0.0195,0.25
-0.0181,0.251
-0.0128,0.252
-0.012,0.253
-0.0083,0.254
0.003,0.255
0.0195,0.256
0.0397,0.257
0.0495,0.258
0.0367,0.259
0.0172,0.26
0.006,0.261
-0.0038,0.262
-0.0053,0.263
-0.003,0.264
-0.0083,0.265
-0.0068,0.266
0.0,0.267
0.006,0.268
0.0172,0.269
0.0262,0.27
0.0307,0.271
0.0345,0.272
0.0142,0.273
-0.0233,0.274
-0.0436,0.275
-0.0593,0.276
-0.0645,0.277
-0.0533,0.278
-0.0428,0.279
-0.0233,0.28
-0.0008,0.281
0.012,0.282
0.0187,0.283
0.018,0.284
0.012,0.285
0.0105,0.286
0.0082,0.287
0.0135,0.288
0.0157,0.289
0.009,0.29
0.0045,0.291
-0.0008,0.292
0.0022,0.293
0.0127,0.294
0.0127,0.295
0.009,0.296
0.0142,0.297
0.0165,0.298
0.0247,0.299
0.0375,0.3
0.0292,0.301
0.0015,0.302
-0.0091,0.303
-0.0075,0.304
-0.003,0.305
0.0112,0.306
0.0157,0.307
0.0015,0.308
-0.0105,0.309
-0.0128,0.31
0.0105,0.311
0.0502,0.312
0.036,0.313
-0.0046,0.314
-0.0143,0.315
-0.0128,0.316
0.0045,0.317
-0.0091,0.318
-0.0405,0.319
-0.0405,0.32
-0.0218,0.321
-0.0113,0.322
-0.0195,0.323
-0.0346,0.324
-0.0375,0.325
-0.0105,0.326
0.0082,0.327
0.012,0.328
0.0105,0.329
0.0067,0.33
0.0082,0.331
0.0022,0.332
0.003,0.333
0.0052,0.334
0.0052,0.335
0.0082,0.336
0.0127,0.337
0.0157,0.338
0.0127,0.339
0.0067,0.34
0.0,0.341
0.0007,0.342
0.0015,0.343
0.0007,0.344
0.003,0.345
0.0052,0.346
0.0082,0.347
0.0082,0.348
0.0052,0.349
0.0007,0.35
-0.0008,0.351
-0.003,0.352
-0.0068,0.353
-0.0075,0.354
-0.0038,0.355
0.003,0.356
0.0015,0.357
-0.0015,0.358
-0.0038,0.359
-0.0038,0.36
0.0022,0.361
0.006,0.362
0.0052,0.363
0.0045,0.364
0.006,0.365
0.003,0.366
-0.0038,0.367
-0.003,0.368
-0.003,0.369
-0.0008,0.37
0.0015,0.371
-0.0015,0.372
-0.0023,0.373
0.0007,0.374
0.0052,0.375
0.018,0.376
0.024,0.377
0.0067,0.378
-0.0128,0.379
-0.0218,0.38
-0.0225,0.381
-0.0143,0.382
0.0015,0.383
0.003,0.384
-0.0015,0.385
0.0195,0.386
0.0217,0.387
0.0022,0.388
0.0,0.389
-0.0015,0.39
0.0037,0.391
0.0015,0.392
-0.0015,0.393
-0.003,0.394
-0.006,0.395
0.0,0.396
0.003,0.397
-0.0046,0.398
-0.0075,0.399
0.0052,0.4
0.0135,0.401
0.018,0.402
0.0105,0.403
-0.0038,0.404
-0.0008,0.405
0.0067,0.406
0.006,0.407
-0.0143,0.408
-0.0158,0.409
-0.0015,0.41
-0.0083,0.411
-0.0046,0.412
-0.0008,0.413
0.0037,0.414
0.0052,0.415
0.003,0.416
0.0052,0.417
-0.0008,0.418
0.003,0.419
0.0045,0.42
0.0052,0.421
0.0082,0.422
0.0097,0.423
0.0127,0.424
0.003,0.425
-0.0015,0.426
-0.0053,0.427
-0.0046,0.428
-0.0008,0.429
-0.0053,0.43
-0.0083,0.431
-0.0105,0.432
-0.0015,0.433
0.018,0.434
0.0187,0.435
0.012,0.436
0.009,0.437
0.0052,0.438
0.0045,0.439
-0.0008,0.44
-0.006,0.441
-0.0023,0.442
0.0112,0.443
0.012,0.444
-0.0038,0.445
-0.0098,0.446
-0.0188,0.447
-0.0248,0.448
-0.0263,0.449
-0.024,0.45
-0.024,0.451
-0.0278,0.452
-0.012,0.453
0.0015,0.454
0.0052,0.455
0.0157,0.456
0.015,0.457
0.0127,0.458
0.0112,0.459
0.0052,0.46
0.0165,0.461
0.045,0.462
0.0555,0.463
0.0352,0.464
0.0142,0.465
-0.0046,0.466
-0.0195,0.467
-0.0225,0.468
-0.0195,0.469
-0.0263,0.47
-0.033,0.471
-0.0158,0.472
-0.0008,0.473
0.006,0.474
0.0097,0.475
0.0052,0.476
0.0045,0.477
0.0007,0.478
-0.0015,0.479
-0.003,0.48
-0.0008,0.481
0.0067,0.482
0.006,0.483
0.0112,0.484
0.03,0.485
0.0502,0.486
0.0382,0.487
0.0097,0.488
-0.003,0.489
-0.012,0.49
-0.0143,0.491
-0.0158,0.492
-0.012,0.493
-0.0173,0.494
-0.0143,0.495
0.0045,0.496
0.0052,0.497
0.0037,0.498
0.0007,0.499
-0.003,0.5
-0.0023,0.501
-0.0053,0.502
-0.0083,0.503
-0.0098,0.504
-0.0128,0.505
-0.0128,0.506
-0.0083,0.507
0.003,0.508
0.0157,0.509
0.027,0.51
0.0232,0.511
0.006,0.512
-0.0038,0.513
-0.0053,0.514
-0.006,0.515
-0.006,0.516
-0.006,0.517
-0.0015,0.518
-0.0015,0.519
0.0,0.52
0.0052,0.521
0.006,0.522
0.0165,0.523
0.0337,0.524
0.0322,0.525
0.0142,0.526
0.0007,0.527
-0.0105,0.528
-0.0135,0.529
-0.0158,0.53
-0.0165,0.531
-0.0203,0.532
-0.0203,0.533
-0.0015,0.534
0.0097,0.535
0.0112,0.536
0.0105,0.537
0.0067,0.538
0.006,0.539
0.0052,0.54
0.0052,0.541
0.0067,0.542
0.006,0.543
0.0007,0.544
-0.0046,0.545
-0.0083,0.546
-0.0083,0.547
-0.0053,0.548
0.0015,0.549
0.0082,0.55
0.0097,0.551
0.0105,0.552
0.009,0.553
0.006,0.554
0.0015,0.555
0.0007,0.556
-0.0023,0.557
-0.0008,0.558
0.0015,0.559
0.0007,0.56
0.0007,0.561
0.0007,0.562
0.0007,0.563
-0.0023,0.564
-0.003,0.565
-0.0038,0.566
-0.0053,0.567
-0.006,0.568
-0.0053,0.569
-0.0046,0.57
-0.0068,0.571
-0.0098,0.572
-0.0105,0.573
-0.0053,0.574
-0.0053,0.575
-0.003,0.576
-0.0038,0.577
-0.0046,0.578
-0.0008,0.579
-0.0008,0.58
0.0015,0.581
-0.0008,0.582
-0.0046,0.583
-0.003,0.584
-0.0015,0.585
0.003,0.586
0.0067,0.587
0.012,0.588
0.0165,0.589
0.021,0.59
0.0247,0.591
0.0255,0.592
0.0217,0.593
0.0105,0.594
0.0045,0.595
-0.0008,0.596
-0.0068,0.597
-0.0053,0.598
-0.0083,0.599
-0.0083,0.6
-0.0068,0.601
-0.0046,0.602
-0.003,0.603
-0.0015,0.604
-0.0023,0.605
-0.0046,0.606
-0.0023,0.607
0.0015,0.608
0.0,0.609
-0.0053,0.61
-0.0015,0.611
0.0052,0.612
0.0067,0.613
0.0112,0.614
0.0135,0.615
0.0172,0.616
0.018,0.617
0.012,0.618
0.0112,0.619
0.009,0.62
0.0015,0.621
-0.003,0.622
-0.0083,0.623
-0.0075,0.624
-0.0083,0.625
-0.0113,0.626
-0.0113,0.627
-0.0091,0.628
-0.0053,0.629
-0.0023,0.63
0.0007,0.631
-0.0008,0.632
0.0015,0.633
0.003,0.634
0.0015,0.635
0.003,0.636
0.0045,0.637
0.0015,0.638
-0.0015,0.639
0.0067,0.64
0.0165,0.641
0.0135,0.642
0.0007,0.643
-0.0091,0.644
-0.0075,0.645
0.0015,0.646
0.0015,0.647
-0.0015,0.648
-0.0053,0.649
-0.0105,0.65
-0.012,0.651
-0.0098,0.652
-0.0068,0.653
-0.0173,0.654
-0.021,0.655
-0.0128,0.656
-0.0083,0.657
-0.0046,0.658
0.003,0.659
0.0097,0.66
0.012,0.661
0.012,0.662
0.0052,0.663
0.0052,0.664
0.0037,0.665
0.0,0.666
0.0015,0.667
-0.0008,0.668
-0.0023,0.669
-0.0015,0.67
0.0,0.671
0.003,0.672
0.0022,0.673
0.0015,0.674
0.0022,0.675
0.0052,0.676
0.0075,0.677
0.0045,0.678
0.0022,0.679
0.0007,0.68
0.0015,0.681
0.003,0.682
0.0052,0.683
0.0067,0.684
0.0075,0.685
0.0052,0.686
0.0022,0.687
0.0037,0.688
0.003,0.689
0.0015,0.69
0.0022,0.691
0.0037,0.692
0.006,0.693
0.0082,0.694
0.0105,0.695
0.009,0.696
0.0052,0.697
0.0007,0.698
-0.0023,0.699
-0.0038,0.7
-0.0015,0.701
0.0015,0.702
0.0007,0.703
0.0,0.704
0.0015,0.705
0.003,0.706
0.003,0.707
0.0052,0.708
0.0052,0.709
0.0045,0.71
0.0037,0.711
0.0015,0.712
0.0,0.713
-0.0008,0.714
0.0007,0.715
-0.0015,0.716
0.0007,0.717
0.0015,0.718
0.0015,0.719
0.0045,0.72
0.0045,0.721
0.003,0.722
0.0007,0.723
0.0007,0.724
0.0,0.725
-0.0015,0.726
-0.0008,0.727
0.0015,0.728
0.0015,0.729
0.0022,0.73
0.0007,0.731
-0.0008,0.732
0.0022,0.733
0.0015,0.734
-0.0008,0.735
-0.0046,0.736
-0.0083,0.737
-0.0113,0.738
-0.0143,0.739
-0.012,0.74
-0.0091,0.741
-0.006,0.742
-0.0068,0.743
-0.012,0.744
-0.012,0.745
-0.0075,0.746
-0.0053,0.747
-0.0015,0.748
0.0045,0.749
0.0097,0.75
0.0165,0.751
0.0217,0.752
0.024,0.753
0.0255,0.754
0.0172,0.755
0.0045,0.756
0.0015,0.757
0.0015,0.758
-0.0015,0.759
-0.0091,0.76
-0.0091,0.761
-0.0053,0.762
-0.0046,0.763
-0.0053,0.764
-0.0053,0.765
-0.0046,0.766
-0.0038,0.767
-0.003,0.768
-0.0008,0.769
0.0015,0.77
0.0022,0.771
0.0007,0.772
-0.003,0.773
-0.003,0.774
-0.0008,0.775
-0.003,0.776
-0.0008,0.777
0.003,0.778
0.006,0.779
0.009,0.78
0.0075,0.781
0.0037,0.782
0.0007,0.783
0.0007,0.784
0.0052,0.785
0.006,0.786
0.003,0.787
0.0015,0.788
0.0022,0.789
0.006,0.79
0.0225,0.791
0.0412,0.792
0.0345,0.793
0.0142,0.794
-0.0015,0.795
-0.0203,0.796
-0.0338,0.797
-0.0368,0.798
-0.033,0.799
-0.0285,0.8
-0.03,0.801
-0.0308,0.802
-0.0203,0.803
-0.0053,0.804
0.0045,0.805
0.0052,0.806
0.0045,0.807
0.0045,0.808
0.0052,0.809
0.0037,0.81
0.0037,0.811
0.0052,0.812
0.0052,0.813
0.009,0.814
0.0105,0.815
0.0105,0.816
0.0127,0.817
0.0142,0.818
0.012,0.819
0.0075,0.82
0.0052,0.821
0.0007,0.822
0.0007,0.823
0.0022,0.824
0.0015,0.825
0.003,0.826
0.0052,0.827
0.0082,0.828
0.0082,0.829
0.0052,0.83
0.006,0.831
0.0067,0.832
0.0067,0.833
0.0052,0.834
0.0052,0.835
0.0142,0.836
0.0262,0.837
0.0202,0.838
0.0037,0.839
-0.0023,0.84
-0.0083,0.841
-0.0105,0.842
-0.0098,0.843
-0.0083,0.844
-0.0053,0.845
-0.003,0.846
-0.0008,0.847
0.0007,0.848
0.0082,0.849
0.0067,0.85
0.006,0.851
0.0082,0.852
0.0052,0.853
0.0045,0.854
0.0045,0.855
0.0045,0.856
0.0075,0.857
0.006,0.858
0.0007,0.859
-0.0053,0.86
-0.0046,0.861
-0.003,0.862
-0.0046,0.863
-0.0046,0.864
-0.0053,0.865
-0.0038,0.866
0.0015,0.867
0.0022,0.868
0.0015,0.869
-0.0008,0.87
-0.0023,0.871
0.0,0.872
-0.0008,0.873
0.0007,0.874
0.0,0.875
-0.0008,0.876
0.0,0.877
-0.0015,0.878
0.0007,0.879
0.0007,0.88
-0.0008,0.881
0.0007,0.882
-0.0015,0.883
-0.0008,0.884
0.0007,0.885
0.0015,0.886
0.0037,0.887
0.0037,0.888
0.0052,0.889
0.0037,0.89
0.003,0.891
0.0045,0.892
0.0045,0.893
0.0022,0.894
0.0,0.895
-0.0023,0.896
-0.0046,0.897
-0.0046,0.898
-0.0008,0.899
0.003,0.9
0.0037,0.901
0.0037,0.902
0.0045,0.903
0.0052,0.904
0.006,0.905
0.003,0.906
0.0015,0.907
0.0015,0.908
0.0,0.909
0.0007,0.91
0.0015,0.911
0.0022,0.912
0.003,0.913
0.0037,0.914
0.0015,0.915
0.0,0.916
0.003,0.917
0.0015,0.918
-0.0023,0.919
-0.003,0.92
-0.0038,0.921
-0.003,0.922
-0.0008,0.923
-0.0023,0.924
-0.003,0.925
-0.0015,0.926
0.0,0.927
0.0007,0.928
0.003,0.929
0.0052,0.93
0.0045,0.931
0.003,0.932
0.0022,0.933
-0.0008,0.934
-0.0008,0.935
0.0007,0.936
0.0037,0.937
0.0052,0.938
0.0045,0.939
0.0022,0.94
0.0007,0.941
0.0015,0.942
0.003,0.943
0.003,0.944
0.003,0.945
0.0037,0.946
0.0037,0.947
0.0045,0.948
0.0037,0.949
0.0007,0.95
0.0007,0.951
-0.0008,0.952
-0.0015,0.953
-0.0023,0.954
-0.0046,0.955
-0.003,0.956
-0.0046,0.957
-0.0046,0.958
-0.0046,0.959
-0.0053,0.96
-0.003,0.961
-0.0008,0.962
0.0,0.963
-0.0015,0.964
-0.0008,0.965
-0.0015,0.966
-0.0046,0.967
-0.0015,0.968
-0.0015,0.969
-0.0023,0.97
-0.0038,0.971
-0.0046,0.972
-0.0053,0.973
-0.0068,0.974
-0.0083,0.975
-0.0091,0.976
-0.0068,0.977
-0.0068,0.978
-0.0053,0.979
-0.003,0.98
-0.0038,0.981
-0.0023,0.982
-0.0015,0.983
-0.0008,0.984
0.0007,0.985
0.0007,0.986
0.0015,0.987
0.0015,0.988
0.0045,0.989
0.0052,0.99
0.0037,0.991
0.0015,0.992
0.0007,0.993
0.0022,0.994
0.0052,0.995
0.0082,0.996
0.0082,0.997
0.0127,0.998
0.0127,0.999
0.0112,1.0
0.0105,1.001
0.0105,1.002
0.0105,1.003
0.0075,1.004
0.0037,1.005
0.0045,1.006
0.0015,1.007
-0.003,1.008
-0.003,1.009
-0.003,1.01
-0.0015,1.011
-0.0015,1.012
-0.0053,1.013
-0.0053,1.014
-0.0046,1.015
-0.0075,1.016
-0.0068,1.017
-0.0015,1.018
-0.0008,1.019
0.0015,1.02
0.003,1.021
0.003,1.022
0.0037,1.023
0.0037,1.024
0.0037,1.025
0.0037,1.026
0.0045,1.027
0.0052,1.028
0.0052,1.029
0.0082,1.03
0.0082,1.031
0.0052,1.032
0.003,1.033
-0.0008,1.034
-0.003,1.035
-0.0046,1.036
-0.0038,1.037
-0.0015,1.038
-0.0023,1.039
-0.0015,1.04
0.0,1.041
-0.0015,1.042
-0.0008,1.043
0.003,1.044
0.0052,1.045
0.0045,1.046
0.003,1.047
0.0045,1.048
0.0045,1.049
0.003,1.05
-0.0008,1.051
-0.0008,1.052
-0.0023,1.053
-0.0015,1.054
0.0,1.055
-0.0023,1.056
-0.003,1.057
-0.0068,1.058
-0.0053,1.059
-0.0046,1.06
-0.0038,1.061
-0.0008,1.062
0.0007,1.063
0.0015,1.064
0.0045,1.065
0.0052,1.066
0.0045,1.067
0.0067,1.068
0.0052,1.069
0.0015,1.07
-0.0008,1.071
-0.0046,1.072
-0.0046,1.073
-0.0038,1.074
-0.003,1.075
-0.0015,1.076
-0.0015,1.077
-0.0015,1.078
-0.0008,1.079
0.0007,1.08
0.0,1.081
0.0015,1.082
0.0015,1.083
0.0045,1.084
0.003,1.085
0.003,1.086
0.0007,1.087
-0.0008,1.088
0.0015,1.089
0.0007,1.09
0.0015,1.091
0.0037,1.092
0.003,1.093
0.0022,1.094
0.003,1.095
0.0015,1.096
0.0007,1.097
0.0,1.098
-0.0015,1.099
-0.003,1.1
-0.0015,1.101
-0.0008,1.102
0.0,1.103
0.0007,1.104
0.0007,1.105
-0.003,1.106
-0.003,1.107
-0.003,1.108
-0.0015,1.109
-0.0008,1.11
-0.0008,1.111
0.0015,1.112
0.0007,1.113
0.0,1.114
-0.0023,1.115
-0.0015,1.116
0.0007,1.117
0.0015,1.118
0.0022,1.119
0.0,1.12
0.0,1.121
0.0015,1.122
0.0007,1.123
-0.0015,1.124
-0.0015,1.125
0.0015,1.126
0.0022,1.127
0.0022,1.128
0.0007,1.129
0.0007,1.13
0.0015,1.131
0.0,1.132
0.0007,1.133
-0.0008,1.134
0.0007,1.135
0.0015,1.136
0.0015,1.137
0.003,1.138
0.0015,1.139
0.0022,1.14
0.0037,1.141
0.003,1.142
0.0022,1.143
0.0022,1.144
0.003,1.145
0.003,1.146
0.0052,1.147
0.0067,1.148
0.0067,1.149
0.0067,1.15
0.0082,1.151
0.009,1.152
0.009,1.153
0.0105,1.154
0.0082,1.155
0.006,1.156
0.0045,1.157
0.0,1.158
-0.0008,1.159
-0.0015,1.16
-0.0008,1.161
-0.0008,1.162
-0.0023,1.163
-0.0015,1.164
0.0,1.165
0.0007,1.166
0.0007,1.167
0.0,1.168
0.0037,1.169
0.0052,1.17
0.0045,1.171
0.0007,1.172
-0.0038,1.173
-0.0053,1.174
-0.0053,1.175
-0.0046,1.176
-0.0038,1.177
-0.0046,1.178
-0.0038,1.179
-0.0046,1.18
-0.0038,1.181
-0.003,1.182
-0.0046,1.183
-0.0046,1.184
-0.0008,1.185
0.0007,1.186
0.0015,1.187
0.0037,1.188
0.003,1.189
0.003,1.19
0.0045,1.191
0.0037,1.192
0.0045,1.193
0.0052,1.194
0.0045,1.195
0.0045,1.196
0.003,1.197
0.003,1.198
0.003,1.199
0.0015,1.2
0.0,1.201
-0.0008,1.202
-0.0008,1.203
-0.0015,1.204
-0.0008,1.205
0.0007,1.206
-0.0015,1.207
-0.0015,1.208
0.0007,1.209
0.003,1.21
0.0052,1.211
0.0052,1.212
0.0052,1.213
0.003,1.214
-0.0008,1.215
0.0015,1.216
0.0015,1.217
0.0045,1.218
0.0052,1.219
0.0037,1.22
0.003,1.221
0.0022,1.222
0.0015,1.223
0.0015,1.224
-0.0008,1.225
-0.0023,1.226
-0.0046,1.227
-0.0046,1.228
-0.003,1.229
-0.0038,1.23
-0.003,1.231
-0.0015,1.232
-0.0008,1.233
-0.0008,1.234
0.0007,1.235
-0.0008,1.236
0.0007,1.237
0.0022,1.238
0.003,1.239
0.0045,1.24
0.0007,1.241
0.0015,1.242
0.0037,1.243
0.0045,1.244
0.0067,1.245
0.0067,1.246
0.0067,1.247
0.0045,1.248
0.003,1.249
0.0007,1.25
-0.0008,1.251
0.0,1.252
0.0007,1.253
0.0015,1.254
0.0015,1.255
0.003,1.256
0.0007,1.257
0.0,1.258
0.0007,1.259
0.0007,1.26
0.0,1.261
-0.0008,1.262
-0.0008,1.263
-0.0023,1.264
-0.003,1.265
-0.0023,1.266
-0.0015,1.267
0.0,1.268
0.0007,1.269
0.003,1.27
0.0037,1.271
0.003,1.272
0.003,1.273
0.0007,1.274
0.0015,1.275
0.0007,1.276
-0.0008,1.277
-0.0015,1.278
-0.0015,1.279
0.0,1.28
0.0007,1.281
0.0022,1.282
0.0015,1.283
0.0015,1.284
-0.0008,1.285
-0.0023,1.286
-0.0015,1.287
-0.003,1.288
-0.0053,1.289
-0.006,1.29
-0.0068,1.291
-0.0068,1.292
-0.0068,1.293
-0.0053,1.294
-0.0023,1.295
0.0,1.296
0.0,1.297
0.0007,1.298
0.0007,1.299
0.0015,1.3
0.0037,1.301
0.0052,1.302
0.0015,1.303
-0.0008,1.304
-0.0015,1.305
-0.0008,1.306
-0.0008,1.307
-0.0015,1.308
0.0015,1.309
0.0,1.31
0.0015,1.311
0.0037,1.312
0.0015,1.313
0.0022,1.314
0.0045,1.315
0.006,1.316
0.0082,1.317
0.0082,1.318
0.009,1.319
0.009,1.32
0.009,1.321
0.0112,1.322
0.0105,1.323
0.009,1.324
0.0082,1.325
0.006,1.326
0.003,1.327
0.003,1.328
0.0045,1.329
0.003,1.33
0.0015,1.331
0.0007,1.332
0.003,1.333
0.0045,1.334
0.0052,1.335
0.006,1.336
0.006,1.337
0.0075,1.338
0.006,1.339
0.0052,1.34
0.0052,1.341
0.0022,1.342
0.0,1.343
-0.003,1.344
-0.0023,1.345
-0.0023,1.346
-0.0046,1.347
-0.006,1.348
-0.0075,1.349
-0.0083,1.35
-0.0091,1.351
-0.0075,1.352
-0.0068,1.353
-0.0068,1.354
-0.0046,1.355
-0.0015,1.356
0.0,1.357
0.0015,1.358
0.0007,1.359
0.0007,1.36
-0.0008,1.361
-0.0015,1.362
-0.0008,1.363
0.0,1.364
0.0022,1.365
0.0022,1.366
0.0015,1.367
0.0007,1.368
0.0,1.369
-0.0008,1.37
0.0,1.371
0.0015,1.372
0.0007,1.373
0.0015,1.374
0.003,1.375
0.003,1.376
0.0022,1.377
0.003,1.378
0.003,1.379
0.0015,1.38
0.0045,1.381
0.0037,1.382
0.0037,1.383
0.0037,1.384
0.0015,1.385
0.0007,1.386
-0.0015,1.387
-0.0015,1.388
-0.0015,1.389
-0.0023,1.39
0.0015,1.391
0.0015,1.392
0.0015,1.393
0.003,1.394
0.0022,1.395
0.0007,1.396
0.0,1.397
0.0007,1.398
-0.0008,1.399
-0.0023,1.4
-0.0046,1.401
-0.0083,1.402
-0.006,1.403
-0.0023,1.404
0.0007,1.405
0.0037,1.406
0.0045,1.407
0.0067,1.408
0.0067,1.409
0.0045,1.41
0.0052,1.411
0.0037,1.412
0.0037,1.413
0.003,1.414
-0.0008,1.415
-0.0023,1.416
-0.0038,1.417
-0.0023,1.418
-0.0008,1.419
0.0,1.42
-0.0015,1.421
-0.0015,1.422
-0.0008,1.423
-0.0015,1.424
-0.0015,1.425
-0.003,1.426
-0.0023,1.427
-0.0008,1.428
0.0,1.429
0.0007,1.43
0.0007,1.431
0.0022,1.432
0.0022,1.433
0.003,1.434
0.0045,1.435
0.0052,1.436
0.0052,1.437
0.0037,1.438
0.003,1.439
0.0015,1.44
0.003,1.441
0.0015,1.442
0.0015,1.443
0.0007,1.444
-0.0023,1.445
-0.0015,1.446
-0.0046,1.447
-0.0046,1.448
-0.0046,1.449
-0.0038,1.45
-0.003,1.451
-0.0023,1.452
-0.0015,1.453
-0.0015,1.454
0.0007,1.455
0.0007,1.456
0.0,1.457
-0.0008,1.458
-0.0015,1.459
-0.0015,1.46
-0.003,1.461
-0.0053,1.462
-0.006,1.463
-0.0038,1.464
-0.003,1.465
-0.003,1.466
0.0,1.467
0.0015,1.468
0.003,1.469
0.003,1.47
0.0022,1.471
0.0037,1.472
0.0045,1.473
0.0045,1.474
0.0082,1.475
0.0082,1.476
0.0082,1.477
0.0075,1.478
0.0052,1.479
0.0045,1.48
0.0007,1.481
0.0,1.482
-0.0023,1.483
-0.003,1.484
-0.0008,1.485
-0.0008,1.486
0.0,1.487
0.0007,1.488
0.0045,1.489
0.009,1.49
0.0112,1.491
0.0105,1.492
0.0097,1.493
0.0105,1.494
0.0075,1.495
0.0067,1.496
0.0052,1.497
0.0015,1.498
0.0007,1.499
0.0,1.5
0.0,1.501
0.003,1.502
0.0037,1.503
0.0037,1.504
0.0022,1.505
0.0045,1.506
0.0045,1.507
0.0007,1.508
-0.0008,1.509
-0.0023,1.51
-0.0015,1.511
0.0,1.512
0.0007,1.513
0.0,1.514
0.0,1.515
-0.0008,1.516
0.0,1.517
0.0015,1.518
0.0,1.519
0.0007,1.52
0.0,1.521
-0.0015,1.522
-0.0008,1.523
-0.0023,1.524
-0.003,1.525
-0.0053,1.526
-0.0068,1.527
-0.0083,1.528
-0.0083,1.529
-0.0053,1.53
-0.003,1.531
-0.0023,1.532
-0.0015,1.533
-0.0008,1.534
0.0007,1.535
0.0015,1.536
0.0007,1.537
0.003,1.538
0.0067,1.539
0.0045,1.54
0.0022,1.541
0.003,1.542
0.0015,1.543
0.0015,1.544
0.003,1.545
0.0045,1.546
0.0067,1.547
0.0045,1.548
0.0015,1.549
0.0007,1.55
0.0015,1.551
0.0022,1.552
0.003,1.553
0.0037,1.554
0.0015,1.555
0.0007,1.556
-0.0008,1.557
-0.0008,1.558
-0.0008,1.559
0.0007,1.56
0.0,1.561
-0.0015,1.562
-0.0008,1.563
-0.0015,1.564
-0.0008,1.565
-0.0008,1.566
-0.0008,1.567
-0.0008,1.568
-0.0015,1.569
-0.0015,1.57
-0.0038,1.571
-0.003,1.572
0.0,1.573
-0.0008,1.574
0.0007,1.575
0.0022,1.576
0.003,1.577
0.0045,1.578
0.0037,1.579
0.006,1.58
0.006,1.581
0.003,1.582
0.0015,1.583
0.0,1.584
-0.0008,1.585
-0.0008,1.586
0.0007,1.587
0.0015,1.588
0.0007,1.589
0.0007,1.59
0.0007,1.591
0.0015,1.592
0.0015,1.593
0.0007,1.594
0.003,1.595
0.0067,1.596
0.0082,1.597
0.0067,1.598
0.006,1.599
0.0052,1.6
0.003,1.601
0.0022,1.602
0.0015,1.603
0.0037,1.604
0.0045,1.605
0.0037,1.606
0.0045,1.607
0.0037,1.608
0.0007,1.609
-0.0015,1.61
-0.0015,1.611
-0.0023,1.612
-0.003,1.613
-0.0046,1.614
-0.0075,1.615
-0.0083,1.616
-0.0068,1.617
-0.0053,1.618
-0.0046,1.619
-0.003,1.62
-0.0038,1.621
-0.003,1.622
-0.0038,1.623
-0.0008,1.624
0.0007,1.625
0.0,1.626
-0.0008,1.627
-0.0008,1.628
-0.0008,1.629
-0.0015,1.63
0.0015,1.631
0.003,1.632
0.0052,1.633
0.0052,1.634
0.0052,1.635
0.009,1.636
0.0075,1.637
0.0075,1.638
0.0052,1.639
0.003,1.64
0.003,1.641
0.0015,1.642
0.0007,1.643
-0.0023,1.644
-0.0023,1.645
-0.003,1.646
-0.0046,1.647
-0.0038,1.648
-0.0008,1.649
0.0007,1.65
-0.0008,1.651
-0.0008,1.652
0.0,1.653
0.0015,1.654
0.003,1.655
0.0045,1.656
0.0052,1.657
0.0045,1.658
0.0015,1.659
0.0015,1.66
0.0015,1.661
0.0015,1.662
0.0007,1.663
0.0007,1.664
0.0007,1.665
0.0007,1.666
0.0,1.667
0.0,1.668
-0.0023,1.669
-0.0046,1.67
-0.0038,1.671
-0.0046,1.672
-0.0046,1.673
-0.0038,1.674
-0.0053,1.675
-0.003,1.676
-0.003,1.677
-0.0015,1.678
0.0015,1.679
-0.0008,1.68
0.0,1.681
0.0,1.682
-0.0015,1.683
-0.0015,1.684
-0.0015,1.685
-0.0008,1.686
0.0015,1.687
0.0045,1.688
0.0015,1.689
0.0007,1.69
0.0007,1.691
0.0015,1.692
0.0015,1.693
0.0,1.694
0.003,1.695
0.003,1.696
0.0015,1.697
0.003,1.698
0.0037,1.699
0.0067,1.7
0.0082,1.701
0.0082,1.702
0.009,1.703
0.0067,1.704
0.0045,1.705
0.0052,1.706
0.006,1.707
0.003,1.708
0.003,1.709
0.0015,1.71
-0.0008,1.711
0.0015,1.712
0.0,1.713
0.0007,1.714
-0.0015,1.715
-0.0015,1.716
-0.0008,1.717
-0.0008,1.718
0.0007,1.719
0.0007,1.72
0.0007,1.721
-0.0008,1.722
-0.0008,1.723
-0.003,1.724
-0.003,1.725
0.0,1.726
0.0015,1.727
0.003,1.728
0.0015,1.729
0.003,1.73
0.003,1.731
0.0015,1.732
0.0007,1.733
0.0015,1.734
0.0007,1.735
0.0015,1.736
0.0015,1.737
-0.0015,1.738
-0.0015,1.739
0.0,1.74
0.0015,1.741
0.0022,1.742
0.003,1.743
0.0007,1.744
-0.0008,1.745
-0.0015,1.746
0.0,1.747
0.0007,1.748
-0.0015,1.749
-0.0015,1.75
-0.0015,1.751
-0.0015,1.752
-0.0015,1.753
-0.0023,1.754
-0.0015,1.755
0.0022,1.756
0.006,1.757
0.0052,1.758
0.0052,1.759
0.0037,1.76
0.003,1.761
0.0022,1.762
0.0015,1.763
0.0015,1.764
0.0007,1.765
0.0007,1.766
-0.0008,1.767
-0.0008,1.768
0.0007,1.769
0.0015,1.77
0.0037,1.771
0.0045,1.772
0.0052,1.773
0.0075,1.774
0.0067,1.775
0.0082,1.776
0.0067,1.777
0.0015,1.778
0.0,1.779
-0.0015,1.78
-0.0008,1.781
-0.0023,1.782
-0.0023,1.783
-0.0008,1.784
-0.0053,1.785
-0.0046,1.786
-0.0053,1.787
-0.0038,1.788
-0.0015,1.789
-0.0008,1.79
0.003,1.791
0.0037,1.792
0.003,1.793
0.0022,1.794
0.0022,1.795
0.0015,1.796
0.003,1.797
0.0052,1.798
0.0045,1.799
0.003,1.8
0.003,1.801
0.0007,1.802
0.003,1.803
0.0045,1.804
0.0045,1.805
0.0015,1.806
-0.0008,1.807
0.0015,1.808
0.0015,1.809
0.0007,1.81
0.0015,1.811
0.0,1.812
-0.0015,1.813
-0.0023,1.814
-0.003,1.815
-0.003,1.816
-0.0023,1.817
-0.0023,1.818
-0.0023,1.819
-0.003,1.82
-0.0038,1.821
-0.003,1.822
-0.0015,1.823
0.0022,1.824
0.0007,1.825
-0.0008,1.826
0.0,1.827
-0.0008,1.828
0.0007,1.829
-0.0015,1.83
-0.0038,1.831
-0.0038,1.832
-0.0038,1.833
-0.0053,1.834
-0.0105,1.835
-0.0098,1.836
-0.0075,1.837
-0.0068,1.838
-0.0023,1.839
-0.0015,1.84
-0.003,1.841
0.0007,1.842
0.0007,1.843
0.0015,1.844
0.0015,1.845
0.0007,1.846
0.003,1.847
0.0037,1.848
0.0037,1.849
0.0037,1.85
0.0052,1.851
0.0045,1.852
0.0052,1.853
0.0067,1.854
0.0052,1.855
0.0037,1.856
0.0045,1.857
0.006,1.858
0.0075,1.859
0.009,1.86
0.009,1.861
0.0082,1.862
0.0067,1.863
0.006,1.864
0.0045,1.865
0.0045,1.866
0.0022,1.867
0.003,1.868
0.0045,1.869
0.0015,1.87
0.003,1.871
0.0045,1.872
0.0037,1.873
0.0022,1.874
0.0015,1.875
0.003,1.876
0.0,1.877
0.0,1.878
0.0007,1.879
-0.0015,1.88
0.0007,1.881
0.0007,1.882
0.0007,1.883
0.0,1.884
0.0,1.885
0.0015,1.886
0.0007,1.887
0.0007,1.888
0.0022,1.889
0.0015,1.89
0.0015,1.891
0.0015,1.892
0.0022,1.893
0.003,1.894
0.0015,1.895
0.003,1.896
0.0007,1.897
-0.0015,1.898
0.0,1.899
-0.0008,1.9
-0.0008,1.901
-0.0015,1.902
-0.0015,1.903
-0.0015,1.904
-0.0008,1.905
-0.0015,1.906
0.0007,1.907
0.0022,1.908
0.0007,1.909
0.0015,1.91
0.0015,1.911
0.0015,1.912
0.0007,1.913
-0.0008,1.914
-0.003,1.915
-0.003,1.916
-0.003,1.917
-0.0053,1.918
-0.0023,1.919
-0.0015,1.92
-0.003,1.921
-0.0015,1.922
-0.0023,1.923
-0.0023,1.924
-0.003,1.925
-0.003,1.926
-0.0068,1.927
-0.0053,1.928
-0.0046,1.929
-0.003,1.93
0.0,1.931
0.0015,1.932
0.0015,1.933
0.0022,1.934
0.0045,1.935
0.0045,1.936
0.0052,1.937
0.0037,1.938
0.0045,1.939
0.0052,1.94
0.0015,1.941
0.0015,1.942
0.0022,1.943
0.0037,1.944
0.0067,1.945
0.0075,1.946
0.0067,1.947
0.0045,1.948
0.0007,1.949
-0.0015,1.95
-0.0008,1.951
-0.0023,1.952
-0.003,1.953
-0.0015,1.954
-0.0023,1.955
-0.0046,1.956
-0.0053,1.957
-0.0053,1.958
-0.006,1.959
-0.0068,1.96
-0.0053,1.961
-0.0046,1.962
-0.0015,1.963
0.0007,1.964
0.0015,1.965
0.003,1.966
0.0045,1.967
0.0075,1.968
0.009,1.969
0.0082,1.97
0.009,1.971
0.0075,1.972
0.0067,1.973
0.009,1.974
0.0097,1.975
0.0082,1.976
0.0052,1.977
0.0052,1.978
0.0052,1.979
0.006,1.98
0.006,1.981
0.0045,1.982
0.0022,1.983
0.0015,1.984
-0.0023,1.985
-0.003,1.986
-0.0053,1.987
-0.0053,1.988
-0.0046,1.989
-0.0068,1.99
-0.0053,1.991
-0.0053,1.992
-0.0046,1.993
-0.003,1.994
-0.0015,1.995
0.0015,1.996
0.003,1.997
0.0052,1.998
0.0052,1.999
0.0067,2.0
0.0045,2.001
-0.0008,2.002
-0.0015,2.003
-0.0053,2.004
-0.0046,2.005
-0.0008,2.006
0.0,2.007
0.0015,2.008
0.0007,2.009
-0.0008,2.01
0.0,2.011
0.003,2.012
0.0045,2.013
0.0045,2.014
0.0045,2.015
0.0022,2.016
0.003,2.017
0.0015,2.018
0.0,2.019
0.0007,2.02
0.003,2.021
0.003,2.022
0.0045,2.023
0.0045,2.024
0.0022,2.025
0.0015,2.026
0.0007,2.027
0.0045,2.028
0.0037,2.029
0.003,2.03
0.0007,2.031
0.0007,2.032
0.0007,2.033
-0.0015,2.034
0.0007,2.035
0.0007,2.036
-0.0008,2.037
-0.0046,2.038
-0.0068,2.039
-0.0083,2.04
-0.0091,2.041
-0.0083,2.042
-0.0075,2.043
-0.0053,2.044
-0.0023,2.045
-0.003,2.046
-0.0015,2.047
-0.0015,2.048
-0.0053,2.049
-0.0068,2.05
-0.0068,2.051
-0.0015,2.052
0.0015,2.053
0.0015,2.054
0.0037,2.055
0.0052,2.056
0.0052,2.057
0.0045,2.058
0.0052,2.059
0.0067,2.06
0.0045,2.061
0.003,2.062
0.0015,2.063
0.0007,2.064
0.0007,2.065
0.003,2.066
0.0052,2.067
0.0075,2.068
0.0067,2.069
0.0082,2.07
0.012,2.071
0.0127,2.072
0.0142,2.073
0.0135,2.074
0.0127,2.075
0.0127,2.076
0.0105,2.077
0.0052,2.078
0.0007,2.079
-0.0008,2.08
-0.0038,2.081
-0.0053,2.082
-0.0075,2.083
-0.0098,2.084
-0.0091,2.085
-0.0075,2.086
-0.0075,2.087
-0.006,2.088
-0.003,2.089
-0.0015,2.09
-0.003,2.091
-0.0046,2.092
-0.006,2.093
-0.0075,2.094
-0.0083,2.095
-0.0053,2.096
-0.0023,2.097
0.0015,2.098
0.0015,2.099
0.0015,2.1
0.0022,2.101
0.0022,2.102
0.0045,2.103
0.003,2.104
0.003,2.105
0.0015,2.106
0.003,2.107
0.0045,2.108
0.0052,2.109
0.0052,2.11
0.0045,2.111
0.0045,2.112
0.0045,2.113
0.0052,2.114
0.0015,2.115
0.0007,2.116
0.0007,2.117
-0.0015,2.118
-0.0008,2.119
-0.003,2.12
-0.0015,2.121
0.0007,2.122
0.0007,2.123
0.0015,2.124
0.0007,2.125
-0.0008,2.126
-0.0008,2.127
0.0045,2.128
0.0045,2.129
0.0007,2.13
-0.0008,2.131
-0.0038,2.132
-0.0046,2.133
-0.0015,2.134
-0.003,2.135
-0.0046,2.136
-0.0023,2.137
-0.0023,2.138
-0.0008,2.139
0.0007,2.14
0.003,2.141
0.0045,2.142
0.003,2.143
0.003,2.144
0.003,2.145
0.0045,2.146
0.0045,2.147
0.0015,2.148
-0.0008,2.149
-0.0015,2.15
0.0007,2.151
0.0045,2.152
0.006,2.153
0.003,2.154
0.0007,2.155
0.0,2.156
-0.0008,2.157
-0.0015,2.158
-0.0015,2.159
-0.0023,2.16
-0.0015,2.161
0.0,2.162
0.003,2.163
0.0037,2.164
0.003,2.165
0.0015,2.166
0.0007,2.167
0.0007,2.168
0.0015,2.169
0.003,2.17
0.0022,2.171
0.0,2.172
-0.0008,2.173
0.003,2.174
0.003,2.175
0.003,2.176
0.0052,2.177
0.006,2.178
0.003,2.179
0.0007,2.18
0.003,2.181
0.0007,2.182
0.0015,2.183
0.0,2.184
-0.0015,2.185
-0.003,2.186
-0.003,2.187
-0.003,2.188
-0.0015,2.189
0.003,2.19
0.003,2.191
0.0037,2.192
0.003,2.193
0.0015,2.194
0.0007,2.195
0.0015,2.196
0.0015,2.197
0.003,2.198
0.0052,2.199
0.009,2.2
0.0105,2.201
0.0112,2.202
0.0082,2.203
0.0052,2.204
0.0045,2.205
0.0045,2.206
0.0045,2.207
0.003,2.208
0.0037,2.209
-0.0008,2.21
-0.0015,2.211
-0.0015,2.212
-0.0038,2.213
-0.0015,2.214
-0.0046,2.215
-0.0053,2.216
-0.0053,2.217
-0.0075,2.218
-0.0053,2.219
-0.0038,2.22
-0.0023,2.221
-0.0008,2.222
0.0,2.223
-0.0023,2.224
-0.0053,2.225
-0.0038,2.226
-0.0015,2.227
-0.0023,2.228
-0.0023,2.229
-0.0038,2.23
-0.0046,2.231
-0.0015,2.232
0.0,2.233
0.0015,2.234
0.0007,2.235
0.003,2.236
0.003,2.237
0.0007,2.238
0.0015,2.239
0.003,2.24
0.0067,2.241
0.0075,2.242
0.009,2.243
0.0097,2.244
0.009,2.245
0.009,2.246
0.0052,2.247
0.0052,2.248
0.0015,2.249
-0.0008,2.25
0.0007,2.251
0.0015,2.252
0.0022,2.253
0.0045,2.254
0.003,2.255
0.0007,2.256
0.0015,2.257
0.0022,2.258
0.0015,2.259
0.0007,2.26
-0.0015,2.261
-0.0015,2.262
-0.0015,2.263
-0.0008,2.264
-0.0008,2.265
-0.003,2.266
-0.0046,2.267
-0.003,2.268
-0.0008,2.269
-0.0015,2.27
-0.0023,2.271
-0.0038,2.272
-0.006,2.273
-0.0053,2.274
-0.0046,2.275
-0.0053,2.276
-0.0015,2.277
-0.0015,2.278
-0.0015,2.279
-0.0008,2.28
-0.0023,2.281
-0.0023,2.282
-0.0008,2.283
0.0015,2.284
0.003,2.285
0.0067,2.286
0.0052,2.287
0.0022,2.288
0.0007,2.289
-0.0008,2.29
0.0015,2.291
0.0015,2.292
0.0037,2.293
0.0052,2.294
0.009,2.295
0.009,2.296
0.009,2.297
0.0105,2.298
0.009,2.299
0.0105,2.3
0.0097,2.301
0.0052,2.302
0.0007,2.303
-0.0008,2.304
-0.0008,2.305
0.0,2.306
-0.0015,2.307
-0.003,2.308
-0.003,2.309
-0.003,2.31
-0.0008,2.311
-0.0008,2.312
-0.0046,2.313
-0.0083,2.314
-0.0046,2.315
-0.0046,2.316
-0.003,2.317
-0.003,2.318
-0.0023,2.319
0.0,2.32
-0.0023,2.321
-0.003,2.322
-0.003,2.323
-0.0023,2.324
-0.0008,2.325
0.0,2.326
0.0022,2.327
0.006,2.328
0.0067,2.329
0.009,2.33
0.0097,2.331
0.0067,2.332
0.0037,2.333
0.0007,2.334
0.0022,2.335
0.0015,2.336
-0.0015,2.337
-0.0015,2.338
-0.003,2.339
-0.006,2.34
-0.0105,2.341
-0.0098,2.342
-0.0105,2.343
-0.0105,2.344
-0.0083,2.345
-0.0068,2.346
-0.003,2.347
-0.0015,2.348
0.0022,2.349
0.0067,2.35
0.009,2.351
0.0097,2.352
0.009,2.353
0.0112,2.354
0.0135,2.355
0.0127,2.356
0.0082,2.357
0.0052,2.358
0.0052,2.359
0.003,2.36
0.0015,2.361
0.0007,2.362
-0.0023,2.363
-0.0023,2.364
0.0015,2.365
0.0,2.366
0.0,2.367
-0.0008,2.368
-0.0008,2.369
0.0,2.37
-0.0008,2.371
-0.0008,2.372
-0.0008,2.373
-0.0015,2.374
0.0007,2.375
0.003,2.376
0.0015,2.377
-0.0008,2.378
0.0,2.379
-0.0015,2.38
-0.0015,2.381
0.0007,2.382
0.0022,2.383
0.0015,2.384
-0.0015,2.385
-0.003,2.386
-0.0008,2.387
-0.0015,2.388
-0.003,2.389
-0.003,2.39
-0.0023,2.391
0.0015,2.392
0.003,2.393
0.0022,2.394
0.0022,2.395
0.0015,2.396
0.0045,2.397
0.0045,2.398
0.0037,2.399
0.003,2.4
0.003,2.401
0.0015,2.402
-0.0015,2.403
-0.003,2.404
-0.0046,2.405
-0.0053,2.406
-0.0053,2.407
-0.0023,2.408
-0.0015,2.409
0.0015,2.41
0.0007,2.411
-0.0023,2.412
-0.0008,2.413
0.0015,2.414
0.0067,2.415
0.0067,2.416
0.0045,2.417
0.0052,2.418
0.0067,2.419
0.0045,2.42
0.0007,2.421
0.0007,2.422
0.0007,2.423
0.0,2.424
-0.0015,2.425
-0.003,2.426
-0.0008,2.427
0.0,2.428
-0.0008,2.429
0.0022,2.43
0.003,2.431
0.003,2.432
0.003,2.433
0.0045,2.434
0.0052,2.435
0.006,2.436
0.006,2.437
0.0045,2.438
0.0045,2.439
0.0082,2.44
0.0067,2.441
0.0045,2.442
0.003,2.443
0.0007,2.444
0.003,2.445
0.003,2.446
0.0,2.447
0.0,2.448
0.0045,2.449
0.0045,2.45
0.0045,2.451
0.0075,2.452
0.0075,2.453
0.0075,2.454
0.0067,2.455
0.003,2.456
0.0045,2.457
0.006,2.458
0.0045,2.459
0.0,2.46
-0.0053,2.461
-0.0091,2.462
-0.012,2.463
-0.0143,2.464
-0.0158,2.465
-0.0128,2.466
-0.0091,2.467
-0.0075,2.468
-0.0068,2.469
-0.0053,2.47
-0.0053,2.471
-0.0068,2.472
-0.003,2.473
-0.0015,2.474
-0.0008,2.475
0.0007,2.476
-0.0008,2.477
0.0,2.478
0.0007,2.479
0.0007,2.48
0.0045,2.481
0.0052,2.482
0.0052,2.483
0.0112,2.484
0.009,2.485
0.009,2.486
0.0097,2.487
0.0067,2.488
0.0052,2.489
0.0015,2.49
0.0,2.491
-0.003,2.492
-0.003,2.493
-0.0015,2.494
-0.0008,2.495
0.0007,2.496
0.0037,2.497
0.0067,2.498
0.0037,2.499
0.0,2.5
-0.0008,2.501
0.0015,2.502
0.0037,2.503
0.006,2.504
0.0105,2.505
0.0105,2.506
0.0067,2.507
0.0045,2.508
0.0045,2.509
0.0045,2.51
0.0022,2.511
0.0022,2.512
0.003,2.513
0.003,2.514
-0.0008,2.515
-0.003,2.516
-0.0053,2.517
-0.0075,2.518
-0.0098,2.519
-0.0098,2.52
-0.0053,2.521
-0.0023,2.522
0.0007,2.523
0.0015,2.524
0.0007,2.525
0.003,2.526
0.003,2.527
0.0037,2.528
0.003,2.529
-0.0008,2.53
-0.006,2.531
-0.0091,2.532
-0.0083,2.533
-0.0075,2.534
-0.0068,2.535
-0.0015,2.536
0.0045,2.537
0.0082,2.538
0.0082,2.539
0.0037,2.54
0.0007,2.541
0.0007,2.542
-0.0015,2.543
-0.0015,2.544
-0.0008,2.545
-0.0053,2.546
-0.0083,2.547
-0.0113,2.548
-0.0083,2.549
-0.006,2.55
-0.0046,2.551
-0.0015,2.552
0.0007,2.553
0.003,2.554
0.0037,2.555
0.0007,2.556
-0.0008,2.557
0.003,2.558
0.0045,2.559
0.0045,2.56
0.0045,2.561
0.0037,2.562
0.0045,2.563
0.0045,2.564
0.0075,2.565
0.012,2.566
0.0127,2.567
0.009,2.568
0.0052,2.569
0.003,2.57
0.0015,2.571
0.0007,2.572
0.0007,2.573
0.0007,2.574
-0.0008,2.575
-0.0015,2.576
-0.0015,2.577
-0.0008,2.578
0.0007,2.579
0.0007,2.58
0.0022,2.581
0.003,2.582
0.0015,2.583
0.0007,2.584
0.0,2.585
-0.0015,2.586
-0.0023,2.587
0.0,2.588
0.0007,2.589
0.0,2.59
-0.003,2.591
-0.0053,2.592
-0.0046,2.593
-0.0053,2.594
-0.0046,2.595
-0.0023,2.596
0.0045,2.597
0.0142,2.598
0.012,2.599
0.0067,2.6
0.0037,2.601
0.0022,2.602
0.003,2.603
0.0045,2.604
0.009,2.605
0.0082,2.606
0.0067,2.607
0.0082,2.608
0.003,2.609
-0.0008,2.61
-0.0023,2.611
-0.0015,2.612
-0.0038,2.613
-0.0046,2.614
-0.0008,2.615
0.0045,2.616
0.003,2.617
0.0007,2.618
-0.0038,2.619
-0.0068,2.62
-0.0038,2.621
-0.0008,2.622
0.0007,2.623
0.0015,2.624
0.0045,2.625
0.0045,2.626
0.0015,2.627
-0.003,2.628
-0.0068,2.629
-0.0075,2.63
-0.0083,2.631
-0.0098,2.632
-0.0075,2.633
-0.0046,2.634
-0.0068,2.635
-0.0053,2.636
-0.006,2.637
-0.003,2.638
0.0082,2.639
0.0157,2.64
0.0187,2.641
0.0195,2.642
0.0135,2.643
0.0067,2.644
0.0045,2.645
0.0052,2.646
0.009,2.647
0.0052,2.648
0.0022,2.649
0.0015,2.65
0.0015,2.651
0.0007,2.652
-0.0015,2.653
-0.0046,2.654
-0.0053,2.655
-0.0053,2.656
-0.0053,2.657
-0.0046,2.658
-0.003,2.659
-0.0015,2.66
0.0007,2.661
0.0007,2.662
0.0015,2.663
0.0075,2.664
0.0105,2.665
0.0105,2.666
0.0105,2.667
0.0097,2.668
0.009,2.669
0.0015,2.67
-0.0023,2.671
-0.0008,2.672
-0.0015,2.673
0.0015,2.674
0.0007,2.675
0.0,2.676
-0.0015,2.677
-0.0015,2.678
0.0015,2.679
-0.003,2.68
-0.0053,2.681
-0.0053,2.682
-0.0023,2.683
-0.0008,2.684
-0.0023,2.685
-0.0008,2.686
-0.0008,2.687
0.0007,2.688
0.0052,2.689
0.0052,2.69
0.0007,2.691
0.0015,2.692
0.003,2.693
0.0022,2.694
0.0037,2.695
0.0067,2.696
0.0105,2.697
0.0127,2.698
0.009,2.699
0.003,2.7
-0.003,2.701
-0.0105,2.702
-0.012,2.703
-0.0068,2.704
-0.0038,2.705
-0.003,2.706
-0.0008,2.707
-0.0008,2.708
-0.0023,2.709
-0.0023,2.71
0.0007,2.711
0.0037,2.712
0.0067,2.713
0.0082,2.714
0.0097,2.715
0.009,2.716
0.009,2.717
0.0075,2.718
0.0037,2.719
0.0015,2.72
-0.0038,2.721
-0.0098,2.722
-0.0143,2.723
-0.015,2.724
-0.012,2.725
-0.0091,2.726
-0.0068,2.727
-0.0068,2.728
-0.0083,2.729
-0.012,2.73
-0.012,2.731
-0.0083,2.732
-0.0053,2.733
0.0007,2.734
0.0045,2.735
0.009,2.736
0.0142,2.737
0.0165,2.738
0.018,2.739
0.0082,2.74
0.0052,2.741
0.0015,2.742
-0.0023,2.743
-0.0015,2.744
-0.0038,2.745
-0.0008,2.746
0.0007,2.747
0.0045,2.748
0.0067,2.749
0.003,2.75
0.003,2.751
0.0007,2.752
0.0007,2.753
0.0045,2.754
0.0075,2.755
0.0127,2.756
0.0202,2.757
0.0157,2.758
0.009,2.759
0.003,2.76
-0.003,2.761
-0.0053,2.762
-0.0068,2.763
-0.0046,2.764
-0.0053,2.765
-0.0165,2.766
-0.0278,2.767
-0.0278,2.768
-0.0165,2.769
-0.0068,2.77
0.0007,2.771
0.0052,2.772
0.012,2.773
0.018,2.774
0.018,2.775
0.0127,2.776
0.0067,2.777
0.0067,2.778
0.0045,2.779
-0.0008,2.78
-0.0113,2.781
-0.0195,2.782
-0.0195,2.783
-0.0203,2.784
-0.0195,2.785
-0.0135,2.786
-0.003,2.787
0.0037,2.788
0.0075,2.789
0.0127,2.79
0.0142,2.791
0.0135,2.792
0.012,2.793
0.0165,2.794
0.0225,2.795
0.0165,2.796
0.0082,2.797
0.0052,2.798
0.006,2.799
0.0067,2.8
0.0045,2.801
0.0007,2.802
-0.0046,2.803
-0.0098,2.804
-0.0105,2.805
-0.0075,2.806
-0.0053,2.807
-0.003,2.808
-0.003,2.809
-0.0015,2.81
0.0037,2.811
0.0075,2.812
0.0105,2.813
0.0075,2.814
0.0045,2.815
-0.0053,2.816
-0.0128,2.817
-0.0083,2.818
-0.0015,2.819
-0.0008,2.82
-0.0008,2.821
0.0022,2.822
0.009,2.823
0.0097,2.824
0.0105,2.825
0.0127,2.826
0.0037,2.827
0.0022,2.828
0.0037,2.829
0.0037,2.83
0.0075,2.831
0.0052,2.832
0.0052,2.833
0.003,2.834
0.0015,2.835
0.0015,2.836
0.0007,2.837
-0.0023,2.838
-0.0046,2.839
-0.0008,2.84
0.0007,2.841
0.003,2.842
0.0082,2.843
0.009,2.844
0.0052,2.845
0.0052,2.846
0.0015,2.847
-0.0008,2.848
0.0052,2.849
0.0015,2.85
-0.0091,2.851
-0.0098,2.852
-0.0075,2.853
-0.0075,2.854
-0.0091,2.855
-0.0105,2.856
-0.0105,2.857
-0.012,2.858
-0.0083,2.859
0.0037,2.86
0.0082,2.861
0.0007,2.862
-0.003,2.863
0.0007,2.864
0.0157,2.865
0.0255,2.866
0.0157,2.867
0.0045,2.868
-0.0053,2.869
-0.0091,2.87
-0.0113,2.871
-0.0098,2.872
-0.0053,2.873
0.0015,2.874
0.0052,2.875
-0.003,2.876
-0.0046,2.877
-0.003,2.878
-0.0015,2.879
-0.0015,2.88
-0.0015,2.881
0.0015,2.882
0.003,2.883
0.0052,2.884
0.0082,2.885
0.006,2.886
0.003,2.887
0.0015,2.888
0.0052,2.889
0.0112,2.89
0.012,2.891
0.009,2.892
0.0082,2.893
0.0135,2.894
0.0202,2.895
0.0157,2.896
0.0082,2.897
0.0037,2.898
0.0,2.899
-0.0023,2.9
-0.0008,2.901
-0.0046,2.902
-0.0233,2.903
-0.0383,2.904
-0.0308,2.905
-0.0165,2.906
-0.0143,2.907
-0.0068,2.908
-0.0008,2.909
0.0082,2.91
0.0195,2.911
0.0172,2.912
0.0142,2.913
0.012,2.914
0.012,2.915
0.0157,2.916
0.0127,2.917
0.0067,2.918
0.0052,2.919
0.003,2.92
0.0007,2.921
0.0,2.922
-0.0008,2.923
-0.0008,2.924
0.0,2.925
0.0045,2.926
0.003,2.927
-0.0008,2.928
-0.0053,2.929
-0.0083,2.93
-0.0091,2.931
-0.0075,2.932
-0.0053,2.933
-0.0053,2.934
-0.003,2.935
-0.0023,2.936
0.0015,2.937
0.009,2.938
0.0127,2.939
0.0165,2.94
0.0232,2.941
0.0255,2.942
0.018,2.943
0.0037,2.944
-0.0075,2.945
-0.0143,2.946
-0.0218,2.947
-0.027,2.948
-0.0218,2.949
-0.0143,2.95
-0.0083,2.951
0.0,2.952
0.0007,2.953
0.0037,2.954
0.0052,2.955
0.0022,2.956
0.0015,2.957
-0.0008,2.958
-0.0008,2.959
-0.0015,2.96
-0.0015,2.961
0.0052,2.962
0.0075,2.963
-0.0038,2.964
-0.0075,2.965
-0.0083,2.966
-0.0053,2.967
0.0037,2.968
0.0067,2.969
0.0127,2.97
0.0187,2.971
0.0217,2.972
0.0255,2.973
0.0232,2.974
0.0135,2.975
-0.0091,2.976
-0.0225,2.977
-0.0263,2.978
-0.0256,2.979
-0.0181,2.98
-0.0165,2.981
-0.012,2.982
-0.0046,2.983
0.0052,2.984
0.024,2.985
0.0292,2.986
0.0225,2.987
0.0127,2.988
-0.0046,2.989
-0.0113,2.99
-0.0091,2.991
-0.0068,2.992
-0.0083,2.993
-0.0091,2.994
-0.0068,2.995
0.0015,2.996
0.018,2.997
0.018,2.998
0.0105,2.999
0.012,3.0
0.006,3.001
0.0015,3.002
0.0037,3.003
0.0007,3.004
-0.0083,3.005
-0.015,3.006
-0.021,3.007
-0.03,3.008
-0.0338,3.009
-0.024,3.01
-0.015,3.011
-0.0091,3.012
-0.0015,3.013
0.0052,3.014
0.0142,3.015
0.0142,3.016
0.0127,3.017
0.0232,3.018
0.0345,3.019
0.0345,3.02
0.0352,3.021
0.0307,3.022
0.018,3.023
0.0052,3.024
-0.0105,3.025
-0.0218,3.026
-0.024,3.027
-0.0285,3.028
-0.0323,3.029
-0.0256,3.03
-0.0113,3.031
0.0,3.032
0.0112,3.033
0.0112,3.034
0.0105,3.035
0.0172,3.036
0.0165,3.037
0.0232,3.038
0.0307,3.039
0.0292,3.04
0.0165,3.041
0.003,3.042
0.0082,3.043
0.0127,3.044
0.0217,3.045
0.024,3.046
0.0127,3.047
0.0015,3.048
-0.0053,3.049
-0.0068,3.05
-0.003,3.051
-0.003,3.052
-0.0075,3.053
-0.0068,3.054
-0.0015,3.055
0.0015,3.056
0.0037,3.057
-0.0075,3.058
-0.0173,3.059
-0.0053,3.06
0.0097,3.061
0.021,3.062
0.0157,3.063
0.0052,3.064
-0.0128,3.065
-0.033,3.066
-0.0353,3.067
-0.0263,3.068
-0.0181,3.069
-0.0256,3.07
-0.0218,3.071
-0.0015,3.072
0.0135,3.073
0.021,3.074
0.0232,3.075
0.024,3.076
0.015,3.077
0.0052,3.078
0.0015,3.079
-0.0015,3.08
0.0007,3.081
-0.0023,3.082
-0.006,3.083
-0.0083,3.084
-0.0143,3.085
-0.0091,3.086
-0.0008,3.087
0.003,3.088
0.0217,3.089
0.036,3.09
0.027,3.091
0.0157,3.092
0.0082,3.093
-0.0053,3.094
-0.0225,3.095
-0.0308,3.096
-0.0353,3.097
-0.045,3.098
-0.024,3.099
0.0037,3.1
0.0277,3.101
0.0435,3.102
0.0352,3.103
0.0277,3.104
0.0067,3.105
-0.0218,3.106
-0.0315,3.107
-0.033,3.108
-0.033,3.109
-0.0361,3.11
-0.0203,3.111
-0.0008,3.112
0.012,3.113
0.033,3.114
0.0472,3.115
0.045,3.116
0.024,3.117
0.006,3.118
0.0015,3.119
0.003,3.12
0.0052,3.121
0.0037,3.122
0.0045,3.123
0.0067,3.124
0.0172,3.125
0.0285,3.126
0.036,3.127
0.0502,3.128
0.051,3.129
0.033,3.13
0.0202,3.131
0.0015,3.132
-0.0293,3.133
-0.0518,3.134
-0.0593,3.135
-0.0608,3.136
-0.054,3.137
-0.0368,3.138
-0.0218,3.139
-0.015,3.14
-0.0135,3.141
-0.0068,3.142
0.0075,3.143
0.0165,3.144
0.0127,3.145
0.0015,3.146
-0.0046,3.147
-0.0158,3.148
-0.024,3.149
-0.0158,3.15
-0.012,3.151
-0.0091,3.152
-0.0105,3.153
-0.0083,3.154
0.006,3.155
0.0082,3.156
0.0225,3.157
0.0345,3.158
0.0285,3.159
0.0255,3.16
0.0217,3.161
0.0202,3.162
0.0052,3.163
-0.0053,3.164
-0.0068,3.165
-0.0083,3.166
-0.0091,3.167
-0.0181,3.168
-0.0015,3.169
0.039,3.17
0.0547,3.171
0.0352,3.172
0.0097,3.173
-0.0091,3.174
-0.0158,3.175
-0.0173,3.176
-0.0256,3.177
-0.0436,3.178
-0.0578,3.179
-0.0428,3.18
-0.033,3.181
-0.0248,3.182
0.0037,3.183
0.0292,3.184
0.057,3.185
0.0667,3.186
0.0577,3.187
0.0352,3.188
0.0015,3.189
-0.0233,3.19
-0.0323,3.191
-0.0225,3.192
-0.0218,3.193
-0.0181,3.194
-0.0105,3.195
-0.0083,3.196
-0.0091,3.197
-0.0143,3.198
0.0007,3.199
0.021,3.2
0.0382,3.201
0.0457,3.202
0.03,3.203
0.0127,3.204
0.0112,3.205
0.0112,3.206
0.0217,3.207
0.0232,3.208
0.0127,3.209
0.0052,3.21
-0.0128,3.211
-0.0165,3.212
-0.012,3.213
0.0097,3.214
0.0457,3.215
0.0367,3.216
-0.0023,3.217
-0.0158,3.218
-0.0128,3.219
-0.0308,3.22
-0.039,3.221
-0.057,3.222
-0.0803,3.223
-0.054,3.224
-0.0195,3.225
-0.0091,3.226
-0.0098,3.227
-0.0038,3.228
0.0157,3.229
0.027,3.23
0.0285,3.231
0.0255,3.232
0.0277,3.233
0.0292,3.234
0.0165,3.235
0.0045,3.236
-0.0008,3.237
0.003,3.238
-0.0128,3.239
-0.0308,3.24
-0.0188,3.241
-0.0068,3.242
0.0,3.243
0.0067,3.244
0.0307,3.245
0.0502,3.246
0.0555,3.247
0.063,3.248
0.036,3.249
-0.0008,3.25
-0.0225,3.251
-0.0195,3.252
-0.0046,3.253
-0.0068,3.254
-0.0113,3.255
-0.0105,3.256
-0.0075,3.257
0.0105,3.258
0.0517,3.259
0.0622,3.26
0.0352,3.261
0.009,3.262
0.0037,3.263
0.012,3.264
0.0067,3.265
-0.0181,3.266
-0.0398,3.267
-0.0315,3.268
-0.0308,3.269
-0.0503,3.27
-0.0593,3.271
-0.0346,3.272
0.0082,3.273
0.0255,3.274
0.045,3.275
0.039,3.276
0.0015,3.277
-0.0323,3.278
-0.048,3.279
-0.027,3.28
0.0127,3.281
0.0345,3.282
0.0307,3.283
0.0292,3.284
0.0015,3.285
-0.0443,3.286
-0.063,3.287
-0.0555,3.288
-0.0428,3.289
-0.0285,3.29
0.0105,3.291
0.0405,3.292
0.0562,3.293
0.0525,3.294
0.0217,3.295
-0.0053,3.296
-0.0218,3.297
-0.0143,3.298
-0.003,3.299
0.0135,3.3
0.0187,3.301
0.0112,3.302
0.0105,3.303
0.0007,3.304
-0.0038,3.305
