VaMe,time
0.0024360680771925943,0.001
-0.020941695349438526,0.002
-0.03762392571868006,0.003
-0.04254429580039654,0.004
-0.03345276766820247,0.005
-0.011592525323134852,0.006
0.018428593685722548,0.007
0.04994763879566735,0.008
0.07638437178243086,0.009
0.09311014194775973,0.01
0.09819575431166803,0.011
0.09212111516672589,0.012
0.07705276341072778,0.013
0.056126271162070085,0.014
0.03281810174112736,0.015
0.01034890292867555,0.016
-0.008819000110771157,0.017
-0.023253976752009724,0.018
-0.03255486973448829,0.019
-0.03711155173636182,0.02
-0.03776794426366234,0.021
-0.03563861364047859,0.022
-0.03213976428926317,0.023
-0.028989545610369847,0.024
-0.028006959518909497,0.025
-0.03074271502872661,0.026
-0.03793919214865397,0.027
-0.048880061537194056,0.028
-0.060958365476010995,0.029
-0.06992151266360862,0.03
-0.07103440108656257,0.031
-0.06080263293158453,0.032
-0.03840418669519342,0.033
-0.006206172212871367,0.034
0.03064465933952867,0.035
0.06530600921989402,0.036
0.0908068559979856,0.037
0.10182356636696141,0.038
0.09615819608673651,0.039
0.07540219540452996,0.04
0.04456310827204706,0.041
0.010727749219816188,0.042
-0.01892510999951823,0.043
-0.03907801653242495,0.044
-0.047372087646268046,0.045
-0.044349900180855856,0.046
-0.03263740984030561,0.047
-0.015934052907344842,0.048
0.001914246314199287,0.049
0.01769434472123904,0.05
0.029302513473440227,0.051
0.03578185176809997,0.052
0.03705172018245754,0.053
0.03359121652988314,0.054
0.02622492540364897,0.055
0.016015064683165398,0.056
0.004185231920680288,0.057
-0.007985547333505151,0.058
-0.01930304866175856,0.059
-0.02882390790995216,0.06
-0.03602028586325659,0.061
-0.04086479955153207,0.062
-0.04375134790207159,0.063
-0.04523185425401503,0.064
-0.045633876229379505,0.065
-0.044727381173269486,0.066
-0.04171006616937695,0.067
-0.03567625180701202,0.068
-0.026348743174715333,0.069
-0.014565076875598541,0.07
-0.0021560638469408314,0.071
0.008791344207265125,0.072
0.016985214288959754,0.073
0.02272126646240404,0.074
0.02783752492388409,0.075
0.0346720543701599,0.076
0.044507205717355586,0.077
0.056445002839957355,0.078
0.06751910817677591,0.079
0.07408927537364435,0.08
0.07356237220121499,0.081
0.06518911205138136,0.082
0.04971969104355226,0.083
0.028720957175829624,0.084
0.004155393446603504,0.085
-0.02172113647230012,0.086
-0.0462881555287533,0.087
-0.06661544582902987,0.088
-0.0799214674852969,0.089
-0.08432949210162106,0.09
-0.07943380030501905,0.091
-0.0662924852210791,0.092
-0.04698266193805161,0.093
-0.024099439537178517,0.094
-0.00038412639817240926,0.095
0.021489623242109065,0.096
0.0389939691677131,0.097
0.0498650843530114,0.098
0.05249944759253268,0.099
0.04648838560217054,0.1
0.032738291335291915,0.101
0.01300820694953609,0.102
-0.010571618777057885,0.103
-0.035502265904232284,0.104
-0.05858672908347698,0.105
-0.07579842966106586,0.106
-0.08279723225055934,0.107
-0.07604126509428775,0.108
-0.05401042844797237,0.109
-0.018190569537898195,0.11
0.026401888937515904,0.111
0.07163391543521128,0.112
0.1081084916544196,0.113
0.1281768881289756,0.114
0.12854299081504336,0.115
0.11080041218815578,0.116
0.0800402117737969,0.117
0.04290169077070184,0.118
0.005938449768986507,0.119
-0.025493754735283185,0.12
-0.04788987220563879,0.121
-0.05990213028592835,0.122
-0.062253473492212594,0.123
-0.05721530342971086,0.124
-0.047825032534173285,0.125
-0.037129649287469466,0.126
-0.02759500703338908,0.127
-0.020695071722071277,0.128
-0.01677336554974094,0.129
-0.015236189409255505,0.13
-0.014953720738291983,0.131
-0.014688671436485612,0.132
-0.013460443127172306,0.133
-0.010842574823121107,0.134
-0.007169499269039245,0.135
-0.0035206618060819456,0.136
-0.0013704169259702546,0.137
-0.002000016936183293,0.138
-0.0058989279757130746,0.139
-0.012322626227805358,0.14
-0.019134594447468577,0.141
-0.023121265349402426,0.142
-0.020918525584528374,0.143
-0.010358864740715196,0.144
0.008313097849250772,0.145
0.031917563708184556,0.146
0.054848554441538265,0.147
0.07073648203835169,0.148
0.07483677566607837,0.149
0.06591569809526572,0.15
0.04653179377951895,0.151
0.021809872918457596,0.152
-0.0024259785304680077,0.153
-0.021396437922732676,0.154
-0.03248412080021343,0.155
-0.03545827945406196,0.156
-0.03184182463020779,0.157
-0.023830062024174942,0.158
-0.013428125915706645,0.159
-0.0021870595747480685,0.16
0.008660207905880596,0.161
0.01798860658918997,0.162
0.024605240136558855,0.163
0.027208495850870824,0.164
0.024649523584368938,0.165
0.016494808296591033,0.166
0.0035656564509534,0.167
-0.012003554183186316,0.168
-0.02731346645250942,0.169
-0.03951316194916729,0.17
-0.04650911814280002,0.171
-0.0474404888587804,0.172
-0.042801471300080746,0.173
-0.0341480433207264,0.174
-0.023661226671766768,0.175
-0.013774812955287177,0.176
-0.006642571470721554,0.177
-0.003339990369341743,0.178
-0.003243968319378129,0.179
-0.00418612410171534,0.18
-0.0034895394497965514,0.181
0.0007671495868160725,0.182
0.009059535794113484,0.183
0.02040060143106204,0.184
0.03265278732890944,0.185
0.043078372819331016,0.186
0.04918208345026223,0.187
0.049556496826638416,0.188
0.04423513948122734,0.189
0.034458077325859926,0.19
0.022180507433751478,0.191
0.009545329799982964,0.192
-0.00162243578221128,0.193
-0.010144663882890422,0.194
-0.01555888662347767,0.195
-0.018049890695486886,0.196
-0.018365775806336193,0.197
-0.01765576426161632,0.198
-0.017051274121775786,0.199
-0.017080718192996273,0.2
-0.017391933949163385,0.201
-0.017098568273992584,0.202
-0.015523305992819737,0.203
-0.012816464865137517,0.204
-0.010033510172556801,0.205
-0.008589382071409201,0.206
-0.009375810062975456,0.207
-0.012059313545292272,0.208
-0.015040791610650084,0.209
-0.01614066408050733,0.21
-0.01355041857644559,0.211
-0.0064860777695250225,0.212
0.004653839549792063,0.213
0.018414641108103005,0.214
0.03246810879826168,0.215
0.0439355427830003,0.216
0.04998910526970936,0.217
0.04853795187908215,0.218
0.038683888228929916,0.219
0.020895687059155406,0.22
-0.00294715901216663,0.221
-0.029618170457079835,0.222
-0.05485571322737883,0.223
-0.07393815957773138,0.224
-0.08243845030698084,0.225
-0.07716657434887182,0.226
-0.05719339510371728,0.227
-0.024610847164744088,0.228
0.015333792635822113,0.229
0.05497643808829524,0.23
0.08589721907121425,0.231
0.10119633892885181,0.232
0.09762168826751041,0.233
0.07657215209967805,0.234
0.04348471502655218,0.235
0.006001316256598857,0.236
-0.02820319131478504,0.237
-0.05315391385044644,0.238
-0.0654938020662311,0.239
-0.06463065293392282,0.24
-0.05238175683052934,0.241
-0.03238007283451456,0.242
-0.009356584225703485,0.243
0.011689469456263722,0.244
0.02635313766298867,0.245
0.031592999682906645,0.246
0.026352930704906713,0.247
0.011974733579872856,0.248
-0.007831908995593797,0.249
-0.027771240465519268,0.25
-0.04242453791089739,0.251
-0.04776777668933586,0.252
-0.04208229268118652,0.253
-0.02610970320741491,0.254
-0.002787472819571168,0.255
0.023197880863710902,0.256
0.04629064150677417,0.257
0.06153036378658547,0.258
0.06600243992618203,0.259
0.05938582821941595,0.26
0.043405193254600224,0.261
0.020884214193842357,0.262
-0.004893304118311198,0.263
-0.030477389923571928,0.264
-0.052466344708600204,0.265
-0.06775267467038334,0.266
-0.07385604279617383,0.267
-0.0693998931269054,0.268
-0.05459674372631131,0.269
-0.0314528139269887,0.27
-0.0035747235835657575,0.271
0.024343914767316188,0.272
0.04741758955970955,0.273
0.061901568339689704,0.274
0.06644634923064008,0.275
0.062421024956997626,0.276
0.05303652912036203,0.277
0.041835993438974886,0.278
0.031389521939604995,0.279
0.022668431148280942,0.28
0.015081763750467641,0.281
0.007032885853641028,0.282
-0.0031764056485630962,0.283
-0.016482553422357632,0.284
-0.03258162117644929,0.285
-0.04983514019901649,0.286
-0.06547311910229592,0.287
-0.07616004813255521,0.288
-0.07889791829374043,0.289
-0.07193950396784633,0.29
-0.05533061708558466,0.291
-0.030969605071919475,0.292
-0.0023012389948210395,0.293
0.02626960317026361,0.294
0.05025471102090927,0.295
0.06613026282537603,0.296
0.07212772245667677,0.297
0.06836195236441908,0.298
0.05641922952265057,0.299
0.038811080547328805,0.3
0.018440512462123863,0.301
-0.0019056982830175252,0.302
-0.01989915253509375,0.303
-0.033754343736644134,0.304
-0.04220950837572377,0.305
-0.044613610405594605,0.306
-0.04107032020063335,0.307
-0.032448392144393864,0.308
-0.020219386448389488,0.309
-0.006246238469380843,0.31
0.007366989187037854,0.311
0.01846859751054203,0.312
0.025318202993381583,0.313
0.0271913780590458,0.314
0.02460979421499879,0.315
0.018947513506016853,0.316
0.011814672544640113,0.317
0.004713785033957005,0.318
-0.0010074681503747446,0.319
-0.0041845528849818285,0.32
-0.004054554127786523,0.321
-0.0006489305987329053,0.322
0.0049179046898171295,0.323
0.0105914783835744,0.324
0.01403003421465648,0.325
0.013512343428790905,0.326
0.008636412609183849,0.327
0.00045109009960276887,0.328
-0.009046523245606099,0.329
-0.01781218722427275,0.33
-0.02451895883001104,0.331
-0.028733884354898178,0.332
-0.0306069506170566,0.333
-0.030496195207589432,0.334
-0.02873928024724151,0.335
-0.025510546479037617,0.336
-0.02070733151091405,0.337
-0.013960965891491262,0.338
-0.004912916353788143,0.339
0.006311654630350587,0.34
0.018798082698076125,0.341
0.03101047837022103,0.342
0.04124421596125075,0.343
0.04793581393846527,0.344
0.04976744576824566,0.345
0.0458659004098985,0.346
0.036235847885411614,0.347
0.022067771022255104,0.348
0.005510786052294104,0.349
-0.010963575640151092,0.35
-0.025221280046859307,0.351
-0.035885472903146406,0.352
-0.042361298693926526,0.353
-0.04456943386599275,0.354
-0.04271430185965604,0.355
-0.03720774919626463,0.356
-0.028609978134710848,0.357
-0.01755493224235402,0.358
-0.0047917218586612026,0.359
0.00863572144031777,0.36
0.021259796324713285,0.361
0.0313415346078696,0.362
0.03735084221406242,0.363
0.038545635772295785,0.364
0.03526489515539477,0.365
0.028704815576068042,0.366
0.020356545058153912,0.367
0.01149452625731022,0.368
0.0029412686452752693,0.369
-0.004867601757679197,0.37
-0.011662337479929938,0.371
-0.017199850470614324,0.372
-0.021260998080703433,0.373
-0.02365780589021175,0.374
-0.02423069455420279,0.375
-0.022933416535362034,0.376
-0.0199910145583164,0.377
-0.015981220806818942,0.378
-0.011773816358612074,0.379
-0.008389717254170787,0.38
-0.0067785749100443965,0.381
-0.007466080919712044,0.382
-0.010191861155785124,0.383
-0.013784242221764737,0.384
-0.016389027356027475,0.385
-0.015998410820111532,0.386
-0.011142556177386014,0.387
-0.0015057299702219897,0.388
0.011822128901549486,0.389
0.026590457493634256,0.39
0.03997960088269784,0.391
0.04927449590638462,0.392
0.052521685335282675,0.393
0.04913238252574447,0.394
0.04011569203576436,0.395
0.027608469572544207,0.396
0.013924003754833051,0.397
0.0007441206575795091,0.398
-0.011104007968090017,0.399
-0.021309784961205922,0.4
-0.029585137897817318,0.401
-0.03541189834328316,0.402
-0.038107801410600335,0.403
-0.03709219046105411,0.404
-0.03222286518233679,0.405
-0.024039015949271807,0.406
-0.0137347447283746,0.407
-0.0028363355686190114,0.408
0.007236414781555775,0.409
0.015479152810212192,0.41
0.021356157128704766,0.411
0.02462633125615601,0.412
0.025089493419964366,0.413
0.022463403060198225,0.414
0.016499037163115973,0.415
0.007268096158983125,0.416
-0.004537094986495618,0.417
-0.017474017506054956,0.418
-0.029492523444233427,0.419
-0.03829561696624986,0.42
-0.041795018294070285,0.421
-0.038627990431699684,0.422
-0.028678332824707817,0.423
-0.013280559511173646,0.424
0.00513402143911934,0.425
0.02368186310072819,0.426
0.039598405139318164,0.427
0.05068953311037816,0.428
0.0556442818446988,0.429
0.05407520311481444,0.43
0.04630714529046885,0.431
0.03311980209373891,0.432
0.01558922379045512,0.433
-0.004911662102630381,0.434
-0.0265113067105987,0.435
-0.04660569683150085,0.436
-0.06196676276721838,0.437
-0.06940273860278279,0.438
-0.06681241232607629,0.439
-0.0541818999053255,0.44
-0.03396513680263518,0.441
-0.010488948929841,0.442
0.011413137757168842,0.443
0.027798164477301875,0.444
0.03641392528337272,0.445
0.036896778428681,0.446
0.03062716118467724,0.447
0.02027605347798026,0.448
0.009042628189616177,0.449
-0.0001724655302049918,0.45
-0.005294668683310037,0.451
-0.005188011207224267,0.452
0.00027251708382243153,0.453
0.009853002339842067,0.454
0.020819845617026864,0.455
0.029723482304109525,0.456
0.03384439880708705,0.457
0.032219000289826875,0.458
0.025639183324732417,0.459
0.015952412932270003,0.46
0.0052470274809564245,0.461
-0.004751618875171443,0.462
-0.012979195530064765,0.463
-0.01905836263232686,0.464
-0.023117263068963508,0.465
-0.025474668702484566,0.466
-0.02637397475761735,0.467
-0.025935973985883428,0.468
-0.02426921742417592,0.469
-0.021547246047719428,0.47
-0.0179992857426728,0.471
-0.01391927173767813,0.472
-0.009742622770436894,0.473
-0.006067341191499724,0.474
-0.0034964156432513395,0.475
-0.002402084014026349,0.476
-0.0027978666737857594,0.477
-0.004321434861352144,0.478
-0.006233356286884003,0.479
-0.007459553408578105,0.48
-0.006789060064079562,0.481
-0.0032418400260736642,0.482
0.0035239856514722064,0.483
0.012928171351060436,0.484
0.023397629430230688,0.485
0.03258541168669112,0.486
0.03797933485908039,0.487
0.03781779681118006,0.488
0.03188095623817309,0.489
0.02164383683436465,0.49
0.009696092766666865,0.491
-0.0011913593645973219,0.492
-0.008907854995613248,0.493
-0.012509529175366404,0.494
-0.012335810735074913,0.495
-0.009789946160318606,0.496
-0.006888076016426284,0.497
-0.005667156683796847,0.498
-0.0075376546487862925,0.499
-0.012777541758926928,0.5
-0.020393585542905452,0.501
-0.02838260766868364,0.502
-0.034270244637367636,0.503
-0.03581865277189604,0.504
-0.03174916355608907,0.505
-0.022181446140808626,0.506
-0.008567340171592244,0.507
0.006778669730875778,0.508
0.021288909965055648,0.509
0.03274478388503912,0.51
0.03979951707597642,0.511
0.04222975763654374,0.512
0.04070222864910466,0.513
0.036187356509936895,0.514
0.029489430800876574,0.515
0.021159236733397035,0.516
0.011614062874807828,0.517
0.0012722731887079926,0.518
-0.009241973315655787,0.519
-0.018873781046002965,0.52
-0.02620595490319565,0.521
-0.02992584776229954,0.522
-0.02936656706090407,0.523
-0.024765489889748814,0.524
-0.017189373501374297,0.525
-0.008303883541962917,0.526
-0.00011601902238451837,0.527
0.0053388806598361725,0.528
0.006430653794616794,0.529
0.002444080838171614,0.53
-0.006026967640485959,0.531
-0.016999889328938592,0.532
-0.027439804255296813,0.533
-0.03402130076730127,0.534
-0.03413093038705455,0.535
-0.026725605499795854,0.536
-0.012706670778039143,0.537
0.005290300257845554,0.538
0.023576556413924518,0.539
0.03836735669786066,0.54
0.046766535204698916,0.541
0.04746251159176975,0.542
0.040941081880547285,0.543
0.029256769422018877,0.544
0.01544499843976364,0.545
0.0026512033523600253,0.546
-0.006756750098048117,0.547
-0.011707730077213856,0.548
-0.012392024180631935,0.549
-0.009822032377859207,0.55
-0.0053537908568748365,0.551
-0.00042355672400463777,0.552
0.00361864356072696,0.553
0.005778238064011155,0.554
0.005673543912538607,0.555
0.0035846422246430887,0.556
0.0003099273034936484,0.557
-0.0031059843251040184,0.558
-0.0057518150661346875,0.559
-0.007186506929776158,0.56
-0.007510280565721897,0.561
-0.007135701140319582,0.562
-0.006470377179487432,0.563
-0.005774692504235777,0.564
-0.005250639893068555,0.565
-0.005205767840995451,0.566
-0.0061486220696923884,0.567
-0.008738233980883494,0.568
-0.013528923754738072,0.569
-0.020566920593930033,0.57
-0.029071028822068783,0.571
-0.03741260568547322,0.572
-0.043402404705292906,0.573
-0.044758900402253145,0.574
-0.0396413643182484,0.575
-0.02718089595210791,0.576
-0.007926740299071842,0.577
0.015967911390620773,0.578
0.0409886469584205,0.579
0.06294635851179507,0.58
0.07798081723912863,0.581
0.08358123526728849,0.582
0.0791363644844698,0.583
0.06579589806680347,0.584
0.04601032240093678,0.585
0.023092800523088437,0.586
0.0006854568759686564,0.587
-0.017992322818217693,0.588
-0.03087526438201942,0.589
-0.03738511651267816,0.59
-0.038249646810560506,0.591
-0.035019895164129206,0.592
-0.029536465326201362,0.593
-0.023464777896813154,0.594
-0.017984389713960852,0.595
-0.013741348602633256,0.596
-0.011007367716928024,0.597
-0.009787153005233633,0.598
-0.009751642737025043,0.599
-0.010187097107630404,0.6
-0.010194584646232178,0.601
-0.009081582825657453,0.602
-0.006646704779061714,0.603
-0.003169474637158285,0.604
0.000816952422978124,0.605
0.004776821089837957,0.606
0.00832827717902632,0.607
0.011298703947815705,0.608
0.013687902991248613,0.609
0.015534401460268209,0.61
0.016743611804233876,0.611
0.016974460449071697,0.612
0.015639161457112923,0.613
0.012066292017786931,0.614
0.005855436310806961,0.615
-0.002701115055644296,0.616
-0.012392048732854044,0.617
-0.021252275433519617,0.618
-0.02709724422608324,0.619
-0.028217037245042112,0.62
-0.023962025074649323,0.621
-0.015016939879038543,0.622
-0.0032838717272973368,0.623
0.008629285983515554,0.624
0.01824889884173648,0.625
0.024099108284246596,0.626
0.026039280680925016,0.627
0.02481564711935136,0.628
0.021267439888649854,0.629
0.01582354536039955,0.63
0.008515579322606995,0.631
-0.0006337210632889338,0.632
-0.011168702564037295,0.633
-0.021992612256354495,0.634
-0.031442094231192694,0.635
-0.03757762410557192,0.636
-0.03864213567505389,0.637
-0.03359559251480242,0.638
-0.02254662108547088,0.639
-0.006877469857063067,0.64
0.010994668463028035,0.641
0.028079982706279663,0.642
0.0414274211580053,0.643
0.04886550943091635,0.644
0.049557457042701834,0.645
0.04401389814049189,0.646
0.03367079519690994,0.647
0.020372690373474563,0.648
0.005953431044159329,0.649
-0.008011337216860724,0.65
-0.020280424388889804,0.651
-0.029909877078976688,0.652
-0.036175016482312604,0.653
-0.03855533657635568,0.654
-0.03684202032343284,0.655
-0.03129160744103941,0.656
-0.022684338942907174,0.657
-0.012223741548134815,0.658
-0.0013349225385858397,0.659
0.008554236930080995,0.66
0.016195744359291737,0.661
0.02062447829211593,0.662
0.021206935904785996,0.663
0.017743072176337474,0.664
0.010654305104320631,0.665
0.0011076073344989908,0.666
-0.00912920071972758,0.667
-0.018087536075045256,0.668
-0.024006749748592543,0.669
-0.02561086415531888,0.67
-0.02236179525243233,0.671
-0.01475229743587626,0.672
-0.0044336000896398374,0.673
0.006116236566743743,0.674
0.014414566823476905,0.675
0.01888267796363085,0.676
0.01929984469531706,0.677
0.016621328644752627,0.678
0.012401381456556847,0.679
0.008202045909704449,0.68
0.005233504208713732,0.681
0.004212049497833522,0.682
0.005306620723412691,0.683
0.008132505604069057,0.684
0.011830308890002039,0.685
0.015237464182317934,0.686
0.017133676727674334,0.687
0.01653994988301474,0.688
0.013006992923705916,0.689
0.00683649441828702,0.69
-0.0008535943084016407,0.691
-0.008406143891091181,0.692
-0.014239740494172422,0.693
-0.01744873953348578,0.694
-0.018037703542488095,0.695
-0.016756538371502795,0.696
-0.014738462424228573,0.697
-0.01310128598748853,0.698
-0.012564782734885784,0.699
-0.013207455744828268,0.7
-0.014520785409367912,0.701
-0.015719115783002693,0.702
-0.016087479602077924,0.703
-0.015201619207340644,0.704
-0.012980304503763057,0.705
-0.009580126797096699,0.706
-0.005194792809114612,0.707
8.609183245530678e-05,0.708
0.0062309272899368755,0.709
0.013087190130651929,0.71
0.020223304613437385,0.711
0.026845982013541426,0.712
0.03176812104287351,0.713
0.033520495804749154,0.714
0.03077186168693573,0.715
0.0229585959091161,0.716
0.010733483946458722,0.717
-0.0040599436950894035,0.718
-0.018837677327643763,0.719
-0.03088009379099721,0.72
-0.03790457639902299,0.721
-0.03857390158049052,0.722
-0.03283574513279321,0.723
-0.02191218816388614,0.724
-0.007933303304248837,0.725
0.006601329567270112,0.726
0.019375417847990586,0.727
0.02871646857865124,0.728
0.03380887509615258,0.729
0.03460413630574991,0.73
0.03158534484343821,0.731
0.025539255729967965,0.732
0.017366880182578735,0.733
0.007967107671419688,0.734
-0.001752402518122289,0.735
-0.010804125852571254,0.736
-0.01817277317244176,0.737
-0.023028577074936288,0.738
-0.024929171529635488,0.739
-0.023890819255847927,0.74
-0.02033618804812171,0.741
-0.01496392797380167,0.742
-0.008602147288522297,0.743
-0.0020919155865448923,0.744
0.003765043846261848,0.745
0.008201736203435783,0.746
0.01050629104721217,0.747
0.010144686177014209,0.748
0.00697531685703032,0.749
0.0014232159971512873,0.75
-0.005539211353659975,0.751
-0.012596027167803184,0.752
-0.018349956312795294,0.753
-0.02160625554566917,0.754
-0.021686720773711057,0.755
-0.01862064271121348,0.756
-0.013018097623506284,0.757
-0.005695065259822752,0.758
0.0026520657408251277,0.759
0.011510242710366724,0.76
0.020382990616103835,0.761
0.02855191431042623,0.762
0.03492054898499638,0.763
0.038084021857705694,0.764
0.03670933298236003,0.765
0.030105611626573114,0.766
0.018647330778915453,0.767
0.0037877835533189613,0.768
-0.012266491165118323,0.769
-0.026981194105636687,0.77
-0.03791816979607621,0.771
-0.04318855328386654,0.772
-0.0418789241675367,0.773
-0.03425598492759954,0.774
-0.021631029041359832,0.775
-0.00599183125857419,0.776
0.01039736625319623,0.777
0.025295017954699732,0.778
0.036665117737115914,0.779
0.04285794931477789,0.78
0.04288577287869122,0.781
0.03671932835354107,0.782
0.02542824475465544,0.783
0.011022789949167906,0.784
-0.003989556775633825,0.785
-0.017166253936900005,0.786
-0.02665366224983245,0.787
-0.03157123835836906,0.788
-0.032135517374988876,0.789
-0.029433823703573142,0.79
-0.024931920431390475,0.791
-0.01997926274304148,0.792
-0.015535052112504989,0.793
-0.012108669016591678,0.794
-0.009793029962238728,0.795
-0.008364105684906736,0.796
-0.007448018580772932,0.797
-0.006614196225670062,0.798
-0.005304420245843397,0.799
-0.00283285935394884,0.8
0.0013178734514055841,0.801
0.007115101635162988,0.802
0.013855516443754753,0.803
0.02037368416781641,0.804
0.02543114278710799,0.805
0.028104384132239514,0.806
0.028058477121335256,0.807
0.025638349503950258,0.808
0.02170518009755119,0.809
0.017274774055279832,0.81
0.013164491548493189,0.811
0.009799965282276717,0.812
0.0071974582169736165,0.813
0.005061842843883572,0.814
