VaMe,time
0.00015666493885405398,0.001
0.007873380844985296,0.002
0.015332046357816995,0.003
0.022326054616696178,0.004
0.028658799651567004,0.005
0.034077182321844736,0.006
0.03819337475332278,0.007
0.04048013405543592,0.008
0.04035302002025103,0.009
0.037309478344175084,0.01
0.031127634408159244,0.011
0.022100322080254517,0.012
0.011164316799853188,0.013
-0.0002270961441580408,0.014
-0.010468373019144666,0.015
-0.01819922940015471,0.016
-0.02255671842519953,0.017
-0.023284231987264748,0.018
-0.02074028509314498,0.019
-0.015771064183502635,0.02
-0.009461551147485049,0.021
-0.002867659622780703,0.022
0.003188912120910049,0.023
0.008197755057408442,0.024
0.011873130206499811,0.025
0.013993177377774878,0.026
0.0143173143874256,0.027
0.01264919639279861,0.028
0.008988884410445966,0.029
0.003665038542033833,0.03
-0.0026181937303620035,0.031
-0.008850523553881396,0.032
-0.013921489642219734,0.033
-0.01691981557950218,0.034
-0.01741059350209962,0.035
-0.015533066146597104,0.036
-0.011841543771204227,0.037
-0.007026679597346553,0.038
-0.0017209568790669254,0.039
0.003544775643418724,0.04
0.008268967141355046,0.041
0.01187141522965926,0.042
0.013675194348924809,0.043
0.013066244329687988,0.044
0.009762920715938012,0.045
0.004010832020025891,0.046
-0.003395945811439602,0.047
-0.011214899103802458,0.048
-0.017947638995697703,0.049
-0.022171257380456996,0.05
-0.02295165705180188,0.051
-0.02013186618228249,0.052
-0.014318982092859277,0.053
-0.006599641432340355,0.054
0.0018147546454786597,0.055
0.0098427354208519,0.056
0.016632043994065555,0.057
0.021525602932424948,0.058
0.02398848827502315,0.059
0.023606888467077602,0.06
0.02021155947306753,0.061
0.014084793366165579,0.062
0.006088924613209374,0.063
-0.0024389497318129654,0.064
-0.009987364313496507,0.065
-0.015218281898143686,0.066
-0.01728422288464646,0.067
-0.01604812534500554,0.068
-0.012083078572111825,0.069
-0.00643324231083758,0.07
-0.00029680210734936094,0.071
0.005227943808994393,0.072
0.00932592052537117,0.073
0.011568668143431864,0.074
0.011875037152215445,0.075
0.010362239848767439,0.076
0.007240666356811581,0.077
0.0028376638991591315,0.078
-0.0023223041169198877,0.079
-0.007505533498066727,0.08
-0.011886754820758053,0.081
-0.014754907763038451,0.082
-0.015695639117969448,0.083
-0.014670071001241576,0.084
-0.011997814417962566,0.085
-0.0082696555403669,0.086
-0.004165973723257729,0.087
-0.00019535163338364522,0.088
0.00350148916604073,0.089
0.007109468422075723,0.09
0.01085451860378234,0.091
0.014675490692145512,0.092
0.018070212441139863,0.093
0.020200501585429933,0.094
0.020194256010104925,0.095
0.017496299388812725,0.096
0.012144864997661554,0.097
0.004872027045169198,0.098
-0.0030566855320096156,0.099
-0.010208852529819052,0.1
-0.015399086527813329,0.101
-0.01799616606317926,0.102
-0.0180014865957082,0.103
-0.015892135336068435,0.104
-0.012339622238396008,0.105
-0.007936566909072308,0.106
-0.00306977652533968,0.107
0.001978841934479739,0.108
0.006799189699261654,0.109
0.010712589119355569,0.11
0.012897830741382638,0.111
0.012748843920644517,0.112
0.010216297537035448,0.113
0.005881902208029019,0.114
0.0007336491662170052,0.115
-0.00417372702597199,0.116
-0.007989899797994849,0.117
-0.010222998056562146,0.118
-0.010774539632013143,0.119
-0.009843734314257722,0.12
-0.00775378483874462,0.121
-0.0048253652611641535,0.122
-0.0013518322025304634,0.123
0.0023795001462150705,0.124
0.0060487407830455186,0.125
0.009246521452749835,0.126
0.011447771160747041,0.127
0.012077516441740299,0.128
0.010675713796121847,0.129
0.0071081662693420235,0.13
0.0017416320170711892,0.131
-0.004519108658332752,0.132
-0.010398517851175508,0.133
-0.014585692614847198,0.134
-0.01613077766260454,0.135
-0.014737701429814475,0.136
-0.010788786854999998,0.137
-0.005117432767166408,0.138
0.0012868254073135205,0.139
0.007497473039698182,0.14
0.012739268732942627,0.141
0.016357300738361974,0.142
0.01777884415375171,0.143
0.016584160458139992,0.144
0.012672614667974728,0.145
0.006400310976179778,0.146
-0.0014118729940191348,0.147
-0.00958862869128807,0.148
-0.016781264937919562,0.149
-0.021720641747079848,0.15
-0.023515393443020578,0.151
-0.021874840933178718,0.152
-0.01713648910575497,0.153
-0.010099340323850133,0.154
-0.0017851446340445495,0.155
0.006742400416293914,0.156
0.014461562625366289,0.157
0.02041079359172559,0.158
0.0236978072572041,0.159
0.02360593585210498,0.16
0.019881917514872335,0.161
0.013051334688512977,0.162
0.004426369818186726,0.163
-0.004280559153402687,0.164
-0.011452945955508703,0.165
-0.015911533561327424,0.166
-0.017092800489626806,0.167
-0.015121272041788092,0.168
-0.010716715383318379,0.169
-0.004898586671123677,0.17
0.001364541180346458,0.171
0.007345497645291615,0.172
0.012525872665744349,0.173
0.016460119878079108,0.174
0.018691002570304354,0.175
0.01877413737911199,0.176
0.016385504826044114,0.177
0.011475489686566883,0.178
0.004409437787574779,0.179
-0.003997072118601586,0.18
-0.0125820337437845,0.181
-0.020033784874340436,0.182
-0.025142971327922432,0.183
-0.02708440318407149,0.184
-0.025634662768773835,0.185
-0.021198639919045113,0.186
-0.014615131459262565,0.187
-0.006853010973824108,0.188
0.0012343853280368492,0.189
0.008988547184863393,0.19
0.015841641110954346,0.191
0.021123422474946394,0.192
0.02398689658235905,0.193
0.02360596736917019,0.194
0.01956900063366693,0.195
0.012222171966556833,0.196
0.002755019980002688,0.197
-0.0070229325523856355,0.198
-0.015138815728305404,0.199
-0.020000591124652616,0.2
-0.020840499924506647,0.201
-0.017877211914757267,0.202
-0.012131103759362659,0.203
-0.005006260477609369,0.204
0.002139687395520672,0.205
0.008286097551481103,0.206
0.012877851230298944,0.207
0.015774020289714138,0.208
0.017036860727713637,0.209
0.016708133172295213,0.21
0.014729112531550305,0.211
0.01105457217589026,0.212
0.00585501112986642,0.213
-0.0003564801630164361,0.214
-0.006726509293375984,0.215
-0.012193448288367112,0.216
-0.015757754961688488,0.217
-0.016819097596453152,0.218
-0.015396726263613407,0.219
-0.012071026706105837,0.22
-0.007694200770381987,0.221
-0.0030827966430459343,0.222
0.0011388130395437038,0.223
0.004527970782253231,0.224
0.006756842310378504,0.225
0.007575859429994412,0.226
0.00682799769495735,0.227
0.004542016089064836,0.228
0.001042194816860874,0.229
-0.003070208233745625,0.23
-0.007051843505366285,0.231
-0.010143196819453687,0.232
-0.01168198716310702,0.233
-0.011246397699949577,0.234
-0.008747540520153103,0.235
-0.004378434656543357,0.236
0.0015079983762027664,0.237
0.0084403918957068,0.238
0.015778598981695768,0.239
0.022674630194133728,0.24
0.028093066081399998,0.241
0.03089968208432129,0.242
0.03006243957675083,0.243
0.024977405751929856,0.244
0.015798632829131864,0.245
0.003571816071628943,0.246
-0.009929031270320897,0.247
-0.022589353850033782,0.248
-0.03241436090529996,0.249
-0.03794511993646506,0.25
-0.03855162637702938,0.251
-0.03449232678449329,0.252
-0.02667191923786288,0.253
-0.016246197647995314,0.254
-0.004353267821193313,0.255
0.00790969359340449,0.256
0.019364974494914942,0.257
0.028638166562265924,0.258
0.03418651223251629,0.259
0.034618428827068545,0.26
0.029265457274777838,0.261
0.018642544807931757,0.262
0.004464148711992575,0.263
-0.01074850122206898,0.264
-0.02425020168852704,0.265
-0.03366123720440338,0.266
-0.03743955327308481,0.267
-0.03516287882225277,0.268
-0.02755344250760706,0.269
-0.01620024958775901,0.27
-0.0030703828954547325,0.271
0.009951191298055167,0.272
0.02131163971964578,0.273
0.029844030573450774,0.274
0.03472896658979239,0.275
0.03545738840261674,0.276
0.03187077056017878,0.277
0.02430167214214188,0.278
0.013701129628122753,0.279
0.0015815040473009315,0.28
-0.010247513839069767,0.281
-0.020035190091935984,0.282
-0.026432317139067265,0.283
-0.02875341055896141,0.284
-0.027086129030488085,0.285
-0.022170166398856248,0.286
-0.015070589713936114,0.287
-0.00682235063838464,0.288
0.0017627400260679848,0.289
0.010068949927622913,0.29
0.017508375510657787,0.291
0.02334513704754872,0.292
0.026654829741146795,0.293
0.026534065496002724,0.294
0.022516174233643355,0.295
0.014930709540766399,0.296
0.00495552674788422,0.297
-0.005648868166491015,0.298
-0.014976646194701576,0.299
-0.021454944308498574,0.3
-0.02424451600180236,0.301
-0.023393834235583978,0.302
-0.01964855781466752,0.303
-0.014063961899165825,0.304
-0.007678378393130326,0.305
-0.0013509772262799487,0.306
0.004265654505840235,0.307
0.00865633104568019,0.308
0.011345407238426343,0.309
0.011887626731834336,0.31
0.010031309658479684,0.311
0.0059668037679054264,0.312
0.0004373211591918861,0.313
-0.005401697522033538,0.314
-0.01028672023359835,0.315
-0.013159003169374,0.316
-0.013396234166862498,0.317
-0.010939673673137513,0.318
-0.006277969154738101,0.319
-0.0002653995936633925,0.32
0.006126203623935532,0.321
0.011991805002652752,0.322
0.016602622136624747,0.323
0.019467374464157798,0.324
0.020310435511325695,0.325
0.01897980855235109,0.326
0.01540559957046354,0.327
0.00968127287100553,0.328
0.0021931379997327857,0.329
-0.006299253556244743,0.33
-0.014658308333882413,0.331
-0.021468810669031703,0.332
-0.02530608984606809,0.333
-0.0251432042552476,0.334
-0.02069092409483118,0.335
-0.01245486124399386,0.336
-0.001539536186699808,0.337
0.010574728171305595,0.338
0.022162616867277364,0.339
0.03138495722207716,0.34
0.0365499530183824,0.341
0.03649415559521698,0.342
0.030911070103784428,0.343
0.020472267072541805,0.344
0.006717126181125938,0.345
-0.008274334532324722,0.346
-0.02234334793632879,0.347
-0.03365356389387991,0.348
-0.0409131114847963,0.349
-0.04348131826022078,0.35
-0.0414127232608094,0.351
-0.035363701870329486,0.352
-0.026355537052487703,0.353
-0.015533359346433732,0.354
-0.004016969566414425,0.355
0.007169869529169289,0.356
0.01712237064291033,0.357
0.025038685535518718,0.358
0.030193006022272116,0.359
0.0319773855889659,0.36
0.03006997781567462,0.361
0.02465259416356256,0.362
0.016523004103608154,0.363
0.007021114375674981,0.364
-0.002225735381838505,0.365
-0.009682543288814403,0.366
-0.014297726382199054,0.367
-0.015741735303500305,0.368
-0.014349282097381252,0.369
-0.010807907573754192,0.37
-0.005848979231861263,0.371
-0.00013893666115572643,0.372
0.005675094944462137,0.373
0.010903403218477811,0.374
0.014796812975116041,0.375
0.0166023052372871,0.376
0.015728946295530406,0.377
0.011979794365579293,0.378
0.005710726396846936,0.379
-0.002170531887937815,0.38
-0.010347785069136023,0.381
-0.017344292474616302,0.382
-0.02184543582393171,0.383
-0.023025146028194925,0.384
-0.020740172787243775,0.385
-0.015484884551408638,0.386
-0.008151232248154342,0.387
0.00023403839019410557,0.388
0.008654584252637291,0.389
0.01613548488782946,0.39
0.021741483239991335,0.391
0.024606747462154896,0.392
0.024052387320096277,0.393
0.01981501663466551,0.394
0.01228644542578609,0.395
0.0025649784596160556,0.396
-0.00776713193155651,0.397
-0.016993247846142447,0.398
-0.023582980070992847,0.399
-0.02647771201203478,0.4
-0.025313180331083273,0.401
-0.020477404577105434,0.402
-0.01296871404530367,0.403
-0.004109923671344082,0.404
0.004761088991445726,0.405
0.012506248695435675,0.406
0.01828331278067108,0.407
0.021550054011016444,0.408
0.022004877409528605,0.409
0.019539312127941296,0.41
0.014303471746447135,0.411
0.006862199748015079,0.412
-0.0017464842046590937,0.413
-0.010176562062074672,0.414
-0.017063286305924304,0.415
-0.02129705409975486,0.416
-0.022255488796152665,0.417
-0.019946925594785177,0.418
-0.01495340585951488,0.419
-0.008174288006466933,0.42
-0.000548751003957481,0.421
0.007084782674116653,0.422
0.013999572466514778,0.423
0.01952457719859072,0.424
0.022982224537986654,0.425
0.02372451524766381,0.426
0.021328618291062376,0.427
0.01585113531823394,0.428
0.007954436005168996,0.429
-0.0011721186911250112,0.43
-0.010050628917281488,0.431
-0.01723907865552688,0.432
-0.021649518037008975,0.433
-0.02277671860893939,0.434
-0.020771593710436912,0.435
-0.016311160780307057,0.436
-0.010322215811203591,0.437
-0.003722916455616864,0.438
0.002702486679190606,0.439
0.008315761839010163,0.44
0.01259461612010628,0.441
0.015099237332221791,0.442
0.015485171008189132,0.443
0.013623849784349882,0.444
0.009763510393975527,0.445
0.004561377402997996,0.446
-0.0010569732365777954,0.447
-0.006097543020042405,0.448
-0.009673563922655427,0.449
-0.011178222568072535,0.45
-0.010442303005636429,0.451
-0.0077734826141776635,0.452
-0.0038234809846051107,0.453
0.0006428601814996344,0.454
0.004951601727231978,0.455
0.008615559595342184,0.456
0.011303869776472486,0.457
0.012736436929770494,0.458
0.012616280754439177,0.459
0.010681373916510807,0.46
0.006864932030935262,0.461
0.0014715581577967704,0.462
-0.004757351585712659,0.463
-0.010746097167128979,0.464
-0.015321271773516854,0.465
-0.017526043381127662,0.466
-0.01693479675656779,0.467
-0.013832867325654334,0.468
-0.009114546778329846,0.469
-0.003896107783739686,0.47
0.0009422944555879703,0.471
0.005013066365829916,0.472
0.008352126543907346,0.473
0.01110953462612243,0.474
0.01321917276463142,0.475
0.014270633117771022,0.476
0.013676757223785007,0.477
0.011024238240024018,0.478
0.006368144485775115,0.479
0.000306895978203248,0.48
-0.006148989249048005,0.481
-0.011816841775498556,0.482
-0.015625713524452745,0.483
-0.016896720856377282,0.484
-0.015516533203152482,0.485
-0.011894939724050648,0.486
-0.006737004168946409,0.487
-0.0008031435788244212,0.488
0.005211948884134558,0.489
0.010689844367090215,0.49
0.015045115729037684,0.491
0.017683052062938777,0.492
0.018041284556005087,0.493
0.015768601153853246,0.494
0.010951438593173844,0.495
0.004212385690407711,0.496
-0.0033884082725058108,0.497
-0.010574164024115838,0.498
-0.0161069018990722,0.499
-0.019053625880912424,0.5
-0.01902503747466178,0.501
-0.016254896693331237,0.502
-0.011433305143979389,0.503
-0.00541250734617367,0.504
0.0010183654443186093,0.505
0.007214563828643817,0.506
0.012636408246443118,0.507
0.016739578894364372,0.508
0.01890746397723801,0.509
0.018563021933165728,0.51
0.015441506433818688,0.511
0.009810551590829527,0.512
0.00247541201821301,0.513
-0.005389471266850033,0.514
-0.012472602460041105,0.515
-0.017573133250579905,0.516
-0.019859057638286153,0.517
-0.019076220730888122,0.518
-0.015578796248141114,0.519
-0.01013716260784404,0.52
-0.003651997158430125,0.521
0.0030559266328468422,0.522
0.009306196030752759,0.523
0.014488675423729485,0.524
0.017959992114996375,0.525
0.019065102686749064,0.526
0.01735825041856347,0.527
0.012876389297241537,0.528
0.0062407414111589525,0.529
-0.0014622668608525397,0.53
-0.008915500462048467,0.531
-0.014835435520617307,0.532
-0.018240743354001526,0.533
-0.01868925320791633,0.534
-0.0163725178142236,0.535
-0.011973262474698808,0.536
-0.006376129554721545,0.537
-0.00042833183047898647,0.538
0.005173978337040029,0.539
0.009902961297419216,0.54
0.013337423691690622,0.541
0.015087857680783292,0.542
0.014818561406119786,0.543
0.012385620093776714,0.544
0.007999393263153952,0.545
0.0022882215764832067,0.546
-0.0037961292440123378,0.547
-0.009175639223217283,0.548
-0.012864161741089284,0.549
-0.01418139928631649,0.55
-0.012932090796581124,0.551
-0.009454786342088455,0.552
-0.004464620509638964,0.553
0.0012207434813510485,0.554
0.006869852472406978,0.555
0.011873986512921379,0.556
0.015729462087841612,0.557
0.01802734337479514,0.558
0.018447483849686308,0.559
0.01678428084238735,0.56
0.013028371579996248,0.561
0.007453759535289207,0.562
0.000637198377684299,0.563
-0.006602944359921504,0.564
-0.013330361695908101,0.565
-0.018669265195808575,0.566
-0.021986450444439396,0.567
-0.02299036273135593,0.568
-0.021721334682025497,0.569
-0.018471642666168114,0.57
-0.01369158714543939,0.571
-0.007926521939894628,0.572
-0.0017838105291508911,0.573
0.00409414775752751,0.574
0.009050695633952286,0.575
0.01243763504675629,0.576
0.01370390433107899,0.577
0.012582975577725985,0.578
0.009281071022719958,0.579
0.004529067986320836,0.58
-0.0005568094516649776,0.581
-0.004771781640549923,0.582
-0.007176820844483585,0.583
-0.007359676430870888,0.584
-0.005468612557849527,0.585
-0.002022645853402822,0.586
0.002340725597798479,0.587
0.007015781398835015,0.588
0.011452882100021038,0.589
0.015128181590010012,0.59
0.017513965486069694,0.591
0.018085551177731495,0.592
0.01640950280866651,0.593
0.012327564370444511,0.594
0.006134474792361959,0.595
-0.001402769802147147,0.596
-0.009185484570600979,0.597
-0.015977197748067096,0.598
-0.020624877488981855,0.599
-0.022327018780346555,0.6
-0.02086666261580132,0.601
-0.01664857111746024,0.602
-0.010499883741258672,0.603
-0.003392769832068328,0.604
0.003736918263142961,0.605
0.010058024676594524,0.606
0.014870968491871599,0.607
0.017620901936527197,0.608
0.017913206549128084,0.609
0.015583968225195364,0.61
0.010826652719071893,0.611
0.004274366454842246,0.612
-0.003063452894021724,0.613
-0.009993274257210907,0.614
-0.015361740423789414,0.615
-0.018272003957112867,0.616
-0.018289635272232558,0.617
-0.015561698054531703,0.618
-0.010748558146875996,0.619
-0.00477694961866187,0.62
0.001438089921072829,0.621
0.007152214866239348,0.622
0.011816084098616396,0.623
0.015020179628226412,0.624
0.016414391685708424,0.625
0.015695930863315652,0.626
0.012734340374895962,0.627
0.007751974666394103,0.628
0.0013960363354760864,0.629
-0.005352441588049315,0.63
-0.011364104446132497,0.631
-0.015593178375945265,0.632
-0.017335520172502204,0.633
-0.01641958013255253,0.634
-0.013208884242709064,0.635
-0.008411880729694737,0.636
-0.0028284806336736413,0.637
0.002832688338423222,0.638
0.008020193166268652,0.639
0.012303530548689292,0.64
0.015278961532789074,0.641
0.016504657549417698,0.642
0.015564532681241264,0.643
0.012282920310111363,0.644
0.006955079561702284,0.645
0.0003893776948425417,0.646
-0.006281576459230427,0.647
-0.011876695662327776,0.648
-0.015411200523310808,0.649
-0.01630842317431814,0.65
-0.014555596185644322,0.651
-0.010681737741578866,0.652
-0.005506169464627351,0.653
0.0001730674424240977,0.654
0.005736170039198184,0.655
0.010711867840666515,0.656
0.014662659460896598,0.657
0.01709884008366764,0.658
0.017505997987317858,0.659
0.01550868719968865,0.66
0.011098823220768208,0.661
0.004776198546119031,0.662
-0.0024968915263431576,0.663
-0.009486666779913621,0.664
-0.014955375032475566,0.665
-0.017959266172414477,0.666
-0.018095398590544393,0.667
-0.015586888139252575,0.668
-0.0111448379490788,0.669
-0.005675708935516849,0.67
-1.9779614221561265e-05,0.671
0.0051459277297183905,0.672
0.009285343772077327,0.673
0.011969772121761438,0.674
0.0128633810629955,0.675
0.011747056191316265,0.676
0.008627313731536593,0.677
0.0038730201510378186,0.678
-0.0017691550354019595,0.679
-0.007319317425332231,0.68
-0.011764677135562906,0.681
-0.014251133077964294,0.682
-0.014297352980622076,0.683
-0.011976688292218507,0.684
-0.007890520547088675,0.685
-0.0028908857030470183,0.686
0.0022474537343066914,0.687
0.00698982091280247,0.688
0.011015311996924225,0.689
0.014099377926652713,0.69
0.01598626708570991,0.691
0.016326724315691297,0.692
0.01476106655827015,0.693
0.011135684087207392,0.694
0.005704617080144801,0.695
-0.0008417483974236629,0.696
-0.007522278689859633,0.697
-0.013266344968145745,0.698
-0.017110623306911266,0.699
-0.018407536200059558,0.7
-0.017000908640560784,0.701
-0.013247602852519203,0.702
-0.00784489994367489,0.703
-0.0015960773874337281,0.704
0.004730830280447086,0.705
0.010438633932472456,0.706
0.014892409395631757,0.707
0.01750701119241627,0.708
0.017783731548905297,0.709
0.015452323843517928,0.71
0.010672794338434634,0.711
0.004132234578879972,0.712
-0.0030706159282695715,0.713
-0.009687462276172619,0.714
-0.014605841423715866,0.715
-0.017085569308979438,0.716
-0.016908328881375573,0.717
-0.014384358222444275,0.718
-0.010182256273333872,0.719
-0.005078790176888654,0.72
0.00022291139546729062,0.721
0.005169316547919085,0.722
0.009352158281509041,0.723
0.012433106724948215,0.724
0.014052111185465276,0.725
0.013837133615331065,0.726
0.011565995818882313,0.727
0.007365360083324614,0.728
0.0017878222980368058,0.729
-0.004264240369171396,0.73
-0.00970906819625822,0.731
-0.013523028380807975,0.732
-0.015019027435474903,0.733
-0.014042579525899202,0.734
-0.010952426305512752,0.735
-0.006413769106215094,0.736
-0.0011671256570050723,0.737
0.0041077478015500435,0.738
0.008843399590923506,0.739
0.01258519369553169,0.74
0.014932921216171229,0.741
0.015479693815272942,0.742
0.013877972068672237,0.743
0.010061327695256373,0.744
0.004445500194826682,0.745
-0.002090162285852621,0.746
-0.008424884480446973,0.747
-0.01346768789509341,0.748
-0.0163953462439168,0.749
-0.016833641085953706,0.75
-0.014909806996113658,0.751
-0.011130733519055431,0.752
-0.006162527970999491,0.753
-0.0006395372643947821,0.754
0.004909174038742349,0.755
0.010013714722682756,0.756
0.01418003857807521,0.757
0.01686772399139086,0.758
0.017560147303697253,0.759
0.01589906351604026,0.76
0.011849445377336778,0.761
0.005823786597556419,0.762
-0.0013237997773481072,0.763
-0.008444758095644276,0.764
-0.014332880584659822,0.765
-0.01799638396546968,0.766
-0.018895496929017454,0.767
-0.017048882623398626,0.768
-0.012943281325414826,0.769
-0.007307775218584097,0.77
-0.0009131772454784875,0.771
0.005508728517048536,0.772
0.011258772207272186,0.773
0.01564969336305168,0.774
0.018025169247322764,0.775
0.017866903800262592,0.776
0.014992216212243446,0.777
0.009720243693016996,0.778
0.002865062203244686,0.779
-0.004431401801625777,0.78
-0.010926330432761342,0.781
-0.01552178620971119,0.782
-0.01751094493367923,0.783
-0.016744078924735346,0.784
-0.013614606498248324,0.785
-0.008851695415494286,0.786
-0.003247676810414841,0.787
0.0025038808233651317,0.788
0.007820513318834394,0.789
0.012178200956605233,0.79
0.01506183211202746,0.791
0.01596596726724037,0.792
0.014505140990005798,0.793
0.010624687564928176,0.794
0.0047632227856353425,0.795
-0.0021706564870567313,0.796
-0.008979952858360538,0.797
-0.014432622609736866,0.798
-0.01753922098756611,0.799
-0.01780251703950282,0.8
-0.015337875211802193,0.801
-0.010761620276718946,0.802
-0.0048988860119143565,0.803
0.001469917664565868,0.804
0.007680812964445069,0.805
0.013140999423285343,0.806
0.017283140145508462,0.807
0.019556539245109854,0.808
0.019480112695410293,0.809
0.01679317579952775,0.81
0.01164746519323411,0.811
0.004694799903819826,0.812
-0.0030145197551420303,0.813
-0.010259882894923803,0.814
-0.015894084692163163,0.815
-0.019067076782806454,0.816
-0.01941071384677722,0.817
-0.017102479711075657,0.818
-0.01274933549188474,0.819
-0.007153899874870298,0.82
-0.0010972669199355806,0.821
0.004771487222500323,0.822
0.00992828429708124,0.823
0.013889521614804829,0.824
0.016136153835850202,0.825
0.016159288864938316,0.826
0.013661163410934023,0.827
0.008787390432616926,0.828
0.0022233027718706545,0.829
-0.004900828220089317,0.83
-0.01125166631684076,0.831
-0.015618628479375521,0.832
-0.017244132789532223,0.833
-0.01602466550421042,0.834
-0.012455757917687101,0.835
-0.007350351225662294,0.836
-0.0015342922724641283,0.837
0.004306618164468471,0.838
0.009629499755150364,0.839
0.013960998377935598,0.84
0.016808305239056996,0.841
0.017649151435169364,0.842
0.016077709818672344,0.843
0.012040857444797874,0.844
0.005989650125094341,0.845
-0.001163492302746657,0.846
-0.008242020032189778,0.847
-0.01405685137546324,0.848
-0.017652420736794454,0.849
-0.018513834088475775,0.85
-0.016672449236655843,0.851
-0.012639115304947508,0.852
-0.0071820384427145195,0.853
-0.0010865447573525802,0.854
0.004968121434347782,0.855
0.010401788274671156,0.856
0.01467063538714395,0.857
0.017229182911023103,0.858
0.017582328881832626,0.859
0.015448316056539412,0.86
0.01094563016049644,0.861
0.004665092612700137,0.862
-0.002415838083091037,0.863
-0.009120815292243867,0.864
-0.01431011177368382,0.865
-0.01713062357204945,0.866
-0.01721790769463758,0.867
-0.014753840912378765,0.868
-0.010340872347993005,0.869
-0.004776598783216186,0.87
0.0011438941935083592,0.871
0.006735620755929593,0.872
0.011435034793275569,0.873
0.014739464953865055,0.874
0.016157216092610647,0.875
0.015266887518426257,0.876
0.0119024195825607,0.877
0.006351377891839878,0.878
-0.000590294255073864,0.879
-0.007755034707503161,0.88
-0.013858635012382147,0.881
-0.01778256698638592,0.882
-0.018827435327502907,0.883
-0.016880321887098707,0.884
-0.01241697586048672,0.885
-0.006317550395209283,0.886
0.0004046296120038072,0.887
0.006827586944704345,0.888
0.012239499435731965,0.889
0.01614138476902995,0.89
0.018159597251865816,0.891
0.017984917553557273,0.892
0.015455102920158866,0.893
0.010734318767391459,0.894
0.004417649606612914,0.895
-0.002541742920781965,0.896
-0.00903353554894887,0.897
-0.014016101967350649,0.898
-0.01672235136840337,0.899
-0.016834359109624664,0.9
-0.01455993263469442,0.901
-0.010519391904718308,0.902
-0.005473827373214393,0.903
-8.679162031117346e-05,0.904
0.0051312464375775635,0.905
0.009741674563417423,0.906
0.013288000992327867,0.907
0.015273598782400958,0.908
0.015231149631641848,0.909
0.012883810244190266,0.91
0.008330555298750006,0.911
0.0021302731990432686,0.912
-0.00476611999004655,0.913
-0.011190124615850231,0.914
-0.015993551866528313,0.915
-0.0183189124688038,0.916
-0.017822671362337495,0.917
-0.014730623347441615,0.918
-0.009683745571672168,0.919
-0.003485272555138388,0.92
0.0030981345142536225,0.921
0.009404104207459345,0.922
0.014817595783744015,0.923
0.018687563932416804,0.924
0.020349247294931153,0.925
0.019288593615364186,0.926
0.015375411397609224,0.927
0.009032261271437225,0.928
0.001222801919975569,0.929
-0.006743119157001119,0.93
-0.013504516740987307,0.931
-0.01795794309244979,0.932
-0.019498737030341676,0.933
-0.018115857326553776,0.934
-0.014303096746431203,0.935
-0.008842299540726037,0.936
-0.002583042691830613,0.937
0.003699576608242751,0.938
0.009365120120225359,0.939
0.013881031186758314,0.94
0.016730100641933286,0.941
0.017383828261426405,0.942
0.015456991854873488,0.943
0.010956194591268701,0.944
0.0044228346651362365,0.945
-0.0031231946966228242,0.946
-0.010392323899975683,0.947
-0.01609489290897014,0.948
-0.019225636137170928,0.949
-0.01933164176377874,0.95
-0.016631203614548628,0.951
-0.011855016604287309,0.952
-0.005900548007235557,0.953
0.00045593969411594423,0.954
0.0066395536862332806,0.955
0.012182631897117909,0.956
0.016576604274239088,0.957
0.019193141172703484,0.958
0.019381054691054986,0.959
0.016746124930804854,0.96
0.011433806275110153,0.961
0.004199124734768137,0.962
-0.003756861488078599,0.963
-0.01106489837273362,0.964
-0.016489368027251684,0.965
-0.01919528962873192,0.966
-0.018911791919135612,0.967
-0.015934724622587656,0.968
-0.010960667892805894,0.969
-0.004837047379633566,0.97
0.0016303051650839121,0.971
0.007743610011251298,0.972
0.012887566085156468,0.973
0.016476833713828864,0.974
0.017956767565743065,0.975
0.01692262682694782,0.976
0.013317740170506973,0.977
0.007575242111557625,0.978
0.0005985305845172553,0.979
-0.006415125959920389,0.98
-0.012232495535224826,0.981
-0.015856838654385357,0.982
-0.016766164788261966,0.983
-0.015028785089502016,0.984
-0.01119742329326393,0.985
-0.006030890203176947,0.986
-0.0002533336949736525,0.987
0.005522824893428786,0.988
0.010763163078604353,0.989
0.014931492567706744,0.99
0.0174172420336866,0.991
0.017577531897507007,0.992
0.01494774862414288,0.993
0.009513616546791065,0.994
0.0018597366328797743,0.995
-0.006887636581571149,0.996
-0.015266058983816397,0.997
-0.021758941698927305,0.998
-0.02512209288472052,0.999
-0.024696295202213253,1.0
-0.02057758405389198,1.001
-0.013531151120600752,1.002
-0.004707327671773354,1.003
0.004636761892487265,1.004
0.013304436157842577,1.005
0.02026775575910163,1.006
0.02474434991305739,1.007
0.02620856214775631,1.008
0.02439479233167333,1.009
0.01940378155097879,1.01
0.01183849445622266,1.011
0.002788982673595132,1.012
-0.006358130723553715,1.013
-0.01418870454537075,1.014
-0.01953798086143501,1.015
-0.02172802101651333,1.016
-0.020688453309522375,1.017
-0.01690312531103764,1.018
-0.011213253219000484,1.019
-0.0045647037280167006,1.02
0.0021902041430777756,1.021
0.008359931163554416,1.022
0.013368936916189414,1.023
0.016679114682751506,1.024
0.017773818492197047,1.025
0.016278284787029834,1.026
0.012170903751859176,1.027
0.005926067055073679,1.028
-0.0015175402261307094,1.029
-0.00892771204165186,1.03
-0.015014050314047046,1.031
-0.018706487901171097,1.032
-0.01943582330870635,1.033
-0.017277437437954034,1.034
-0.01284320644834661,1.035
-0.0069942405346747945,1.036
-0.0005766211234442853,1.037
0.005694488497245643,1.038
0.011228208331838786,1.039
0.015501937026841486,1.04
0.018014786745513062,1.041
0.01831468745790248,1.042
0.016128145651413257,1.043
0.011531403027430075,1.044
0.005056560382842299,1.045
-0.0023340423876086302,1.046
-0.009406092510275908,1.047
-0.014903039592900437,1.048
-0.017834611035369572,1.049
-0.017739026560873165,1.05
-0.014807539296792977,1.051
-0.009766900599935773,1.052
-0.0035823187984192306,1.053
0.0028106483471098255,1.054
0.008633539041281895,1.055
0.013288188348091408,1.056
0.016315044315886852,1.057
0.017324398549637,1.058
0.01599485404343361,1.059
0.012209864968050443,1.06
0.006259484408848252,1.061
-0.0010605117695455775,1.062
-0.008548811914246512,1.063
-0.014865957820987492,1.064
-0.018863351965024654,1.065
-0.019863639409786502,1.066
-0.017812023994956135,1.067
-0.01324352769819052,1.068
-0.007071837052807641,1.069
-0.0003069964078008477,1.07
0.006166119971197167,1.071
0.011681630160990327,1.072
0.015755542619238713,1.073
0.01798391013022259,1.074
0.01799646921102309,1.075
0.015556687045015541,1.076
0.010771031419963013,1.077
0.00422780643705507,1.078
-0.0030693006358256582,1.079
-0.009918794706923506,1.08
-0.015171831342085629,1.081
-0.01796397581724218,1.082
-0.017906659374202154,1.083
-0.015168483774324231,1.084
-0.010369905523758261,1.085
-0.004347666455220069,1.086
0.002056802481745866,1.087
0.008110039739663958,1.088
0.013209457591438848,1.089
0.0168378736318537,1.09
0.018507865382384556,1.091
0.017789272974148874,1.092
0.014470980601058317,1.093
0.008780196109433114,1.094
0.0014769283063935297,1.095
-0.006279289012908808,1.096
-0.013200758690323132,1.097
-0.01814380939952092,1.098
-0.02034262780931703,1.099
-0.019582380188351952,1.1
-0.01622720294489056,1.101
-0.011050639763839267,1.102
-0.004956075355839659,1.103
0.001239016910488141,1.104
0.006877145615301812,1.105
0.011450210152754704,1.106
0.014559446381017053,1.107
0.01588193612231424,1.108
0.01520422776742198,1.109
0.012522444087329172,1.11
0.008130598810980152,1.111
0.0026435417142522235,1.112
-0.0030658955569110844,1.113
-0.008024950317119584,1.114
-0.011383351079099244,1.115
-0.012636944885067612,1.116
-0.011762186679570755,1.117
-0.00916344177818276,1.118
-0.0054424175585843304,1.119
-0.0011590742131233282,1.12
0.0032567381771695008,1.121
0.007451490962704713,1.122
0.0110418461077923,1.123
0.013531319280442738,1.124
0.014336173519005353,1.125
0.01297523259725664,1.126
0.009331986256172865,1.127
0.003797124319598871,1.128
-0.002785337047878765,1.129
-0.009294558895460478,1.13
-0.014565352851150267,1.131
-0.017646548596261268,1.132
-0.018034976015539123,1.133
-0.015800318201766802,1.134
-0.011508502730085248,1.135
-0.005965934076145088,1.136
3.819017821627924e-05,1.137
0.005842723658677098,1.138
0.010887350893148084,1.139
0.014647075801853149,1.14
0.01660893560649434,1.141
0.016328849740725567,1.142
0.013595915552190526,1.143
0.008639907594656823,1.144
0.0021989967761231704,1.145
-0.004636509958462094,1.146
-0.010688396996957946,1.147
-0.014934329938611747,1.148
-0.01671162469425883,1.149
-0.01586393818245184,1.15
-0.012741283409864319,1.151
-0.008017504521291682,1.152
-0.002445891309786448,1.153
0.003297754227895231,1.154
0.008650588316646416,1.155
0.01311849407504149,1.156
0.01621289525041139,1.157
0.01744549293154709,1.158
0.01642853897142008,1.159
0.013045040423247395,1.16
0.007587478832583967,1.161
0.0007853819006874822,1.162
-0.006290480915444677,1.163
-0.012423986476309228,1.164
-0.01652423660590205,1.165
-0.01792447228256257,1.166
-0.0165769323831367,1.167
-0.012994172651377546,1.168
-0.007969764686176271,1.169
-0.0022917782699696044,1.17
0.00339293413202554,1.171
0.008572681211810986,1.172
0.01278749885969704,1.173
0.015534236884884202,1.174
0.016266175248348943,1.175
0.014564480580199065,1.176
0.010400007014745955,1.177
0.004283624787308165,1.178
-0.002800062996731675,1.179
-0.009605376519631306,1.18
-0.014888182170486252,1.181
-0.017686661138299316,1.182
-0.017565887763762375,1.183
-0.014711964446071524,1.184
-0.009816412707449481,1.185
-0.0038195658478577935,1.186
0.00234200619692888,1.187
0.00788832957004402,1.188
0.012250816733789105,1.189
0.015044312998784747,1.19
0.01598544385824843,1.191
0.014864046305859245,1.192
0.011656235951176416,1.193
0.006684961499454056,1.194
0.0006418142175801767,1.195
-0.005547542517826048,1.196
-0.010889773650014827,1.197
-0.014485367864222828,1.198
-0.015730034133130844,1.199
-0.014504858135614725,1.2
-0.011200787869049605,1.201
-0.006518753814115601,1.202
-0.0011979709830582483,1.203
0.004136643630196066,1.204
0.008981222276935017,1.205
0.012893954058439558,1.206
0.01543563851750104,1.207
0.016158242740117772,1.208
0.014691354564827985,1.209
0.010932300413921368,1.21
0.005227051644604149,1.211
-0.0016089103389464073,1.212
-0.008445486150104466,1.213
-0.014080645372856347,1.214
-0.017512864115953822,1.215
-0.018199871217817864,1.216
-0.01619654901215364,1.217
-0.012068539481144279,1.218
-0.006629726796442068,1.219
-0.0006794457554016903,1.22
0.005129872470415222,1.221
0.01028664232059766,1.222
0.014332243771971629,1.223
0.016775203219550342,1.224
0.017114166141264767,1.225
0.015014625066049109,1.226
0.010535600620229426,1.227
0.004238440181752877,1.228
-0.002891248992597623,1.229
-0.00965479036782616,1.23
-0.014898883080087438,1.231
-0.017765279338225484,1.232
-0.01788358356161591,1.233
-0.015429479820335799,1.234
-0.010994748807673791,1.235
-0.005340682102094061,1.236
0.000799444830420396,1.237
0.0067869461591690584,1.238
0.012061219771217487,1.239
0.01608456413097572,1.24
0.018284563003608423,1.241
0.01810274749629607,1.242
0.015213227195363327,1.243
0.009787470721628678,1.244
0.0026025675517744777,1.245
-0.0050917813053393945,1.246
-0.01187557335882132,1.247
-0.01650970238378244,1.248
-0.01824238803836907,1.249
-0.01698330399900192,1.25
-0.013268559905568944,1.251
-0.008014649063563084,1.252
-0.0021938505987288033,1.253
0.003383530873604602,1.254
0.008118612639333663,1.255
0.011569499489025664,1.256
0.013381174245309433,1.257
0.013274560921949528,1.258
0.01113107921565017,1.259
0.007135904733218594,1.26
0.001864995019054743,1.261
-0.0037842110718721974,1.262
-0.008797936142161835,1.263
-0.012283470410993909,1.264
-0.013661480479447942,1.265
-0.012784041432750477,1.266
-0.009938642714310076,1.267
-0.0057091304697750415,1.268
-0.0007707161496648675,1.269
0.0042499553156570185,1.27
0.008824976428731184,1.271
0.012530626954499935,1.272
0.01500149340858291,1.273
0.015859711718586633,1.274
0.014738987922717665,1.275
0.011459527682845505,1.276
0.0062369354805066335,1.277
-0.0002493039776956625,1.278
-0.00697695313291319,1.279
-0.01280376043787458,1.28
-0.016706913495621842,1.281
-0.0180218054238813,1.282
-0.016633213403533114,1.283
-0.01298430969605459,1.284
-0.007854276772237979,1.285
-0.0020722710218182717,1.286
0.003650684854222582,1.287
0.008761101459275089,1.288
0.012834105215376335,1.289
0.015507685603560728,1.29
0.016422559336672395,1.291
0.015254793117350268,1.292
0.011878528485587387,1.293
0.006552382762129987,1.294
-1.7680189159331838e-05,1.295
-0.006784038109452613,1.296
-0.012577152521766872,1.297
-0.016371656753162517,1.298
-0.01754836838830912,1.299
-0.01605850857364883,1.3
-0.012383094918916409,1.301
-0.0072989766370574055,1.302
-0.001605532965715145,1.303
0.004028299630019906,1.304
0.009073822414085718,1.305
0.013077061630011207,1.306
0.015573460368702842,1.307
0.016064983085160953,1.308
0.014160124742330093,1.309
0.009832287853874487,1.31
0.003591208929844674,1.311
-0.0035671892555813336,1.312
-0.010382810328192632,1.313
-0.015617843943702428,1.314
-0.01833677115744081,1.315
-0.01811530644313757,1.316
-0.01510342948061683,1.317
-0.009913642646950846,1.318
-0.003411797846943934,1.319
0.0034677901044720652,1.32
0.00985050040288723,1.321
0.015011069528352655,1.322
0.01839681397622553,1.323
0.019587076888504574,1.324
0.018287355304123485,1.325
0.014442811885642034,1.326
0.008401569661895276,1.327
0.0009641545931467604,1.328
-0.0067380099888690965,1.329
-0.013461318860100066,1.33
-0.018098383558542274,1.331
-0.019931632253933487,1.332
-0.018824801328543517,1.333
-0.01522616362552011,1.334
-0.009946317277415672,1.335
-0.003861059367378635,1.336
0.0022837131517414316,1.337
0.007929003572750757,1.338
0.012652862099343869,1.339
0.016055003871891155,1.34
0.017678841013363075,1.341
0.01708070282648687,1.342
0.014041809660724538,1.343
0.00877899478997678,1.344
0.001999458100124178,1.345
-0.0052172331288491275,1.346
-0.011633038770682435,1.347
-0.016115171915626586,1.348
-0.017915370067723473,1.349
-0.01686472991509978,1.35
-0.013359460552035737,1.351
-0.00813492334977741,1.352
-0.001997416106197621,1.353
0.004318965154990572,1.354
0.01015975356553585,1.355
0.01489933295232346,1.356
0.017896799669019175,1.357
0.018530283293820872,1.358
0.016379365565072395,1.359
0.011487806232193969,1.36
0.004501601425878446,1.361
-0.003433660576262754,1.362
-0.010942251872706936,1.363
-0.01672747703964596,1.364
-0.01985431518622068,1.365
-0.019949584611206963,1.366
-0.017235259683471987,1.367
-0.01237824730365812,1.368
-0.006248437599405328,1.369
0.00029624097651940215,1.37
0.006521859133772386,1.371
0.01182168762823795,1.372
0.015658649827883175,1.373
0.017520388975834317,1.374
0.016978367051922637,1.375
0.013875523557386586,1.376
0.008512895102772894,1.377
0.001679598084355244,1.378
-0.00548771604001646,1.379
-0.011731663553364914,1.38
-0.015928746630521382,1.381
-0.017352501987558434,1.382
-0.015868716441749604,1.383
-0.011927915378721784,1.384
-0.006339126885170782,1.385
7.419055688946478e-06,1.386
0.006303503177695897,1.387
0.011860267156082259,1.388
0.01608307314429148,1.389
0.018429141667063737,1.39
0.018424153898261266,1.391
0.0158078716159568,1.392
0.010726734600078629,1.393
0.0038023456870635657,1.394
-0.003972284463923916,1.395
-0.011413930984619085,1.396
-0.017333994418854064,1.397
-0.020740569561840685,1.398
-0.02105909431695184,1.399
-0.018297004391129863,1.4
-0.01304232801873383,1.401
-0.006256678577055758,1.402
0.0010124989455235437,1.403
0.007833455586269284,1.404
0.01347138843832479,1.405
0.017384327170962593,1.406
0.01916350949542587,1.407
0.018503813872282084,1.408
0.01529728679715123,1.409
0.009801089139395308,1.41
0.0027243261448545667,1.411
-0.00484824177468506,1.412
-0.011669945599031504,1.413
-0.016616209031267884,1.414
-0.01894442649218684,1.415
-0.018440309366204066,1.416
-0.015401666570668365,1.417
-0.010471544912200577,1.418
-0.004424481027953655,1.419
0.001973263638478872,1.42
0.008015140448030759,1.421
0.01307276129518174,1.422
0.0165966097149967,1.423
0.018101203793214383,1.424
0.017210540303399413,1.425
0.013825044819722717,1.426
0.008296594935706966,1.427
0.0014391326842322855,1.428
-0.005636727059045244,1.429
-0.01176073634663658,1.43
-0.015937245327263212,1.431
-0.017551534588480782,1.432
-0.01650293911564067,1.433
-0.013182407762077034,1.434
-0.00828186093921622,1.435
-0.0025567612184478005,1.436
0.003315561671546707,1.437
0.00875705010808089,1.438
0.01324595210144738,1.439
0.016254498925417086,1.44
0.01723165764702359,1.441
0.015722025127455512,1.442
0.011609447876922486,1.443
0.005315998306528712,1.444
-0.0022047119077497498,1.445
-0.009672060394808965,1.446
-0.015770559422049513,1.447
-0.01944860719387439,1.448
-0.020163964017833103,1.449
-0.017980393523776853,1.45
-0.013449094697539214,1.451
-0.0073510545438880805,1.452
-0.00047451337957923786,1.453
0.00647183389816229,1.454
0.012836829415756446,1.455
0.01796068359288843,1.456
0.021133934471794895,1.457
0.021674303670246725,1.458
0.01916168164102283,1.459
0.013711446658753292,1.46
0.0060818460926695146,1.461
-0.002459851202333834,1.462
-0.010428177532632189,1.463
-0.016462564560011075,1.464
-0.01963914990820088,1.465
-0.019659552761231724,1.466
-0.016839262861065248,1.467
-0.01190673598875762,1.468
-0.005742639506256423,1.469
0.0008013091854720138,1.47
0.006964179720262274,1.471
0.012057192722866006,1.472
0.0154275181039184,1.473
0.016475210690303894,1.474
0.014787266158197556,1.475
0.01037254781263659,1.476
0.003835892755507854,1.477
-0.003681614896520288,1.478
-0.010779682001510372,1.479
-0.01613478448049582,1.48
-0.018783444859842464,1.481
-0.018325871745348287,1.482
-0.015004088820154228,1.483
-0.00957425065218327,1.484
-0.0030082517134650618,1.485
0.0037873370287692144,1.486
0.010102417677096241,1.487
0.015427203621431669,1.488
0.019391399054041712,1.489
0.021683975361191238,1.49
0.021999564636058035,1.491
0.020074884461939065,1.492
0.015848591902923977,1.493
0.009649618308750456,1.494
0.0022541840275285925,1.495
-0.005247131859297448,1.496
-0.011706445204065781,1.497
-0.01621087538981816,1.498
-0.01833282002195007,1.499
-0.018227942587936783,1.5
-0.016505223355940905,1.501
-0.013936430773808963,1.502
-0.011170022036796939,1.503
-0.008588082448801836,1.504
-0.006343130185882852,1.505
-0.004514992062908767,1.506
-0.003261006659040685,1.507
-0.0028123753462724324,1.508
-0.0032878049625480483,1.509
-0.004480846517675028,1.51
-0.005798545853114142,1.511
-0.00637944842359753,1.512
-0.005307548078406297,1.513
-0.0018706333379794778,1.514
0.004146777135871361,1.515
0.012220497768440733,1.516
0.021054536186247298,1.517
0.028863152380535134,1.518
0.033894928453819875,1.519
0.03496839516990293,1.52
0.031791220828645037,1.521
0.02495571861379275,1.522
0.01564355588580623,1.523
0.005188380121971765,1.524
-0.005297693952127245,1.525
-0.015058593932273044,1.526
-0.023585251501161406,1.527
-0.030429290259504315,1.528
-0.03508845491266983,1.529
-0.03701199666927176,1.53
-0.03571898790192261,1.531
-0.030987559470892705,1.532
-0.023024594541796558,1.533
-0.012521088781424038,1.534
-0.0005831900601590271,1.535
0.011403735160873863,1.536
0.021951998038268826,1.537
0.02971764563506228,1.538
0.03379525220274576,1.539
0.03392037613350932,1.54
0.030445408665878283,1.541
0.024125010399751984,1.542
0.015877573283751122,1.543
0.006646571920178964,1.544
-0.0026268289564325147,1.545
-0.010984783083655051,1.546
-0.01749989074435135,1.547
-0.02144736915816245,1.548
-0.022512186010008924,1.549
-0.02087837754862315,1.55
-0.017125716434710492,1.551
-0.012000630104670932,1.552
-0.006210941705838982,1.553
-0.00033666063421295284,1.554
0.005139730449932711,1.555
0.009729621438801243,1.556
0.012866835442506068,1.557
0.013980335368247844,1.558
0.012700331931232465,1.559
0.009062243510424476,1.56
0.003588930544055473,1.561
-0.0027728873447300088,1.562
-0.008826689959061476,1.563
-0.01338318830500732,1.564
-0.015568826781337865,1.565
-0.015071614857725613,1.566
-0.012175388161512453,1.567
-0.007560732152161714,1.568
-0.002024420316534736,1.569
0.003710299529577071,1.57
0.009047953520241124,1.571
0.013485687803359148,1.572
0.01654343394528479,1.573
0.017726899454109105,1.574
0.01661392726819086,1.575
0.013072588120802558,1.576
0.00745869798117515,1.577
0.0006363818911156142,1.578
-0.0061927793366144,1.579
-0.01177904706577603,1.58
-0.015146268766323702,1.581
-0.015850052574966453,1.582
-0.014065962889466582,1.583
-0.010451900843231408,1.584
-0.0058488690622197905,1.585
-0.0009971240200286515,1.586
0.003570859808151063,1.587
0.0074743018131473,1.588
0.010399334518325146,1.589
0.012049745076014053,1.59
0.012135660993790492,1.591
0.010446256677830664,1.592
0.007006306458779851,1.593
0.0021959799918176274,1.594
-0.003260433005403778,1.595
-0.008418214089373861,1.596
-0.01230625896214855,1.597
-0.014169681856221309,1.598
-0.01368967677353607,1.599
-0.011052612570694152,1.6
-0.006817386683329235,1.601
-0.0016897345528404668,1.602
0.003644961739756529,1.603
0.008582505833341211,1.604
0.012587064910725069,1.605
0.015154214391070642,1.606
0.015819355671635994,1.607
0.014270771653011724,1.608
0.010540704219138749,1.609
0.005128622292309573,1.61
-0.0010741522703916655,1.611
-0.007013437790316179,1.612
-0.011715745076076478,1.613
-0.014471122540688943,1.614
-0.01494956326439382,1.615
-0.01324661760579675,1.616
-0.009824854481940763,1.617
-0.005334324451873365,1.618
-0.00039852865163218304,1.619
0.0044948101226183305,1.62
0.00897520121532202,1.621
0.012711631909308465,1.622
0.015320730919103506,1.623
0.016336876267706798,1.624
0.015337232813821478,1.625
0.012169289443914575,1.626
0.007101104182768464,1.627
0.0007928008475642408,1.628
-0.005865026012493429,1.629
-0.011953418379965247,1.63
-0.01670870830824265,1.631
-0.01966181422954502,1.632
-0.02068841205874952,1.633
-0.019925627635562947,1.634
-0.017612066687882937,1.635
-0.013988540365645723,1.636
-0.009320623349840214,1.637
-0.003969347187036389,1.638
0.001577206504970418,1.639
0.006721274129901867,1.64
0.01081834400152931,1.641
0.013311479655351614,1.642
0.013915953175274906,1.643
0.012750864565744027,1.644
0.010331185098145302,1.645
0.007429006922765715,1.646
0.00485425819143512,1.647
0.0032116624122753737,1.648
0.002722906741630642,1.649
0.0032035538594523253,1.65
0.004214330889325459,1.651
0.005299985669985794,1.652
0.006171766022274578,1.653
0.006731766961804788,1.654
0.0069522917538806335,1.655
0.006726447484741711,1.656
0.0058066078955761385,1.657
0.00388055519093889,1.658
0.0007527998870791329,1.659
-0.0034753013516026746,1.66
-0.008329850136540778,1.661
-0.01303162663313542,1.662
-0.016688557272408762,1.663
-0.018555291848040504,1.664
-0.018259538921205222,1.665
-0.015876893137151966,1.666
-0.011813919012025074,1.667
-0.00660708032069925,1.668
-0.0007889361213413692,1.669
0.005135142922332984,1.67
0.010653192677080167,1.671
0.015211149563321171,1.672
0.01820293459448268,1.673
0.019023483594766733,1.674
0.017238483810299316,1.675
0.012820431755237314,1.676
0.006268611050483637,1.677
-0.0014738459362504423,1.678
-0.009208896086227726,1.679
-0.015690643919499047,1.68
-0.01985270642196019,1.681
-0.02104947569002276,1.682
-0.01922378683637829,1.683
-0.014877934284102314,1.684
-0.008848090838955274,1.685
-0.00204846852874765,1.686
0.004679731132313665,1.687
0.010623635435675616,1.688
0.015203812472686392,1.689
0.017958512178864197,1.69
0.018556778909088675,1.691
0.016878230391401405,1.692
0.013104673690775486,1.693
0.00772154708299271,1.694
0.0014366684095413142,1.695
-0.004900732374657822,1.696
-0.01037972913013172,1.697
-0.014163009288968331,1.698
-0.0156686203680389,1.699
-0.014709193130267357,1.7
-0.011520792467696885,1.701
-0.00667998189278546,1.702
-0.0009466057113008672,1.703
0.004887279559171932,1.704
0.010068125272832525,1.705
0.013886069798360752,1.706
0.01570364643765946,1.707
0.01508414048516088,1.708
0.011982372891542954,1.709
0.00685001809753346,1.71
0.0005530809151031444,1.711
-0.005839680018842763,1.712
-0.011266395731102314,1.713
-0.014849106820558707,1.714
-0.016065410255593302,1.715
-0.014835280204452525,1.716
-0.011448134234282203,1.717
-0.006423412230143812,1.718
-0.000413305442408127,1.719
0.005852288346367766,1.72
0.011597720263190264,1.721
0.01603714138605771,1.722
0.018460528279011016,1.723
0.018367569512340705,1.724
0.015602248255168892,1.725
0.010441168902245621,1.726
0.003589205695778023,1.727
-0.003936280663892877,1.728
-0.010994119683714406,1.729
-0.01653392221822904,1.73
-0.01981516929204608,1.731
-0.020576771875364785,1.732
-0.019056210058204407,1.733
-0.015816778481495937,1.734
-0.011494214994324512,1.735
-0.006638495538900989,1.736
-0.0016999517540067911,1.737
0.002916263547041304,1.738
0.006787368761266257,1.739
0.009457240945510002,1.74
0.01054219806474827,1.741
0.00992760930972473,1.742
0.007907397174710744,1.743
0.00515118575500738,1.744
0.0025013975644701523,1.745
0.0006969444124661021,1.746
0.00013355231970164387,1.747
0.0007409107403055882,1.748
0.0020549448792531455,1.749
0.0035079245875985657,1.75
0.004787497491627227,1.751
0.005983591696960128,1.752
0.007388176775913171,1.753
0.009148946414782845,1.754
0.011066231006257166,1.755
0.01260875184361606,1.756
0.01306655838888226,1.757
0.011773794870734166,1.758
0.008361296792630707,1.759
0.002943453678705678,1.76
-0.003862540121662303,1.761
-0.011075046308871626,1.762
-0.017575885991175228,1.763
-0.02238495913828495,1.764
-0.02491023096396492,1.765
-0.02505645196953132,1.766
-0.023137439361819865,1.767
-0.01966594700638887,1.768
-0.015154403922356187,1.769
-0.010007439585001308,1.77
-0.0045300628792165525,1.771
0.0009614008381453727,1.772
0.006032391078219448,1.773
0.010161971839481136,1.774
0.01292426858917968,1.775
0.014195279286347078,1.776
0.014215716612676845,1.777
0.013454209284552515,1.778
0.012394876787657471,1.779
0.011383316257026556,1.78
0.010546968234562918,1.781
0.009782455271843996,1.782
0.008878170669301237,1.783
0.0077619183640815674,1.784
0.006639612917450944,1.785
0.005842659150830011,1.786
0.0055362671069869645,1.787
0.005556676598541278,1.788
0.005439806728901648,1.789
0.0045555106421743385,1.79
0.002313110896043716,1.791
-0.0015780150209062677,1.792
-0.006901906378983342,1.793
-0.012908867055775694,1.794
-0.01850499831729953,1.795
-0.02258621678027753,1.796
-0.02436690124999697,1.797
-0.023589311020646077,1.798
-0.020557020398518505,1.799
-0.015962735776036904,1.8
-0.010590983837693288,1.801
-0.005072368384337894,1.802
0.00019154142563175392,1.803
0.004956402762435128,1.804
0.009022759726269368,1.805
0.012156513373314652,1.806
0.014073911856463636,1.807
0.014525774735739285,1.808
0.013450313642494235,1.809
0.01106298379476353,1.81
0.007819154072307221,1.811
0.0043395995515117134,1.812
0.0013439923454936482,1.813
-0.0004936415480398833,1.814
-0.0007709800767828062,1.815
0.000488655104508181,1.816
0.0028775770973403377,1.817
0.0058013264828940215,1.818
0.008676324066223167,1.819
0.011017199402964167,1.82
0.012437179961011343,1.821
0.012613255676432447,1.822
0.011235111173244921,1.823
0.008009649862713358,1.824
0.0028093807603309165,1.825
-0.004103453218420691,1.826
-0.011970496424327053,1.827
-0.01964599587500115,1.828
-0.025842975842117567,1.829
-0.029401074088110914,1.83
-0.029543489786535964,1.831
-0.026092019317617527,1.832
-0.019531107379212747,1.833
-0.010853667232693225,1.834
-0.00126574706461512,1.835
0.008086970864084164,1.836
0.01625339761252164,1.837
0.022485283298529966,1.838
0.026208798649580242,1.839
0.02703599562516612,1.84
0.02485487788445767,1.841
0.019948654926501087,1.842
0.013021824397047604,1.843
0.005094997152888937,1.844
-0.002662686857062003,1.845
-0.009132578037248052,1.846
-0.01347885450423132,1.847
-0.0153501231297925,1.848
-0.014952083891978423,1.849
-0.01292586364497089,1.85
-0.010060804407763314,1.851
-0.007008921871029276,1.852
-0.004171469711449895,1.853
-0.001755678008453509,1.854
0.00011510478107104721,1.855
0.0013137092523163585,1.856
0.0016815052559932828,1.857
0.001103079748293361,1.858
-0.0003469755291405694,1.859
-0.002295113024592203,1.86
-0.004085238181271015,1.861
-0.004950869154322997,1.862
-0.004294145512799454,1.863
-0.001935019079397836,1.864
0.0018013421307027965,1.865
0.0062072463779105115,1.866
0.010475283024882579,1.867
0.01399778015370432,1.868
0.016509238768406678,1.869
0.018000081263699178,1.87
0.01850699316815476,1.871
0.017942336142812147,1.872
0.01601780415556484,1.873
0.012275473403311404,1.874
0.0063054394068469055,1.875
-0.0018759208703416658,1.876
-0.011546156199597223,1.877
-0.021334579089311766,1.878
-0.029585358059105414,1.879
-0.03481130558829109,1.88
-0.03605478755158335,1.881
-0.033076084118659504,1.882
-0.02634101991521826,1.883
-0.0168192967538237,1.884
-0.0057075131545975015,1.885
0.0057657226447972295,1.886
0.016413141942893276,1.887
0.025112493626136007,1.888
0.030866324391282646,1.889
0.0329555956133956,1.89
0.031153210475734504,1.891
0.02586716319899447,1.892
0.018093824898807183,1.893
0.009166689779533574,1.894
0.0004136475608363635,1.895
-0.0070994461019250376,1.896
-0.012662898384210036,1.897
-0.015949164641454367,1.898
-0.017031760344305882,1.899
-0.016314240479466897,1.9
-0.014331946192509456,1.901
-0.01153295926494401,1.902
-0.008174346357730039,1.903
-0.004397229966751593,1.904
-0.0004315436238179469,1.905
0.0032298742364795657,1.906
0.005864099327835341,1.907
0.006779312224008864,1.908
0.005645820630122491,1.909
0.0027271652898698813,1.91
-0.0010892844480975398,1.911
-0.004512854141320795,1.912
-0.006278465150096012,1.913
-0.005640334394351686,1.914
-0.0027152301757889558,1.915
0.0015596218544753242,1.916
0.005882236031815901,1.917
0.00914974570073536,1.918
0.010785878415239022,1.919
0.010760842036199796,1.92
0.009429810994332153,1.921
0.0072977146071338365,1.922
0.0047866759891073115,1.923
0.002134699973588937,1.924
-0.00050312607002904,1.925
-0.002902388216747904,1.926
-0.004775534962306434,1.927
-0.0059136518114744265,1.928
-0.006284951573250653,1.929
-0.006016631328392438,1.93
-0.005325220980755723,1.931
-0.004460588401618751,1.932
-0.0036453342309529613,1.933
-0.002979126526901606,1.934
-0.002379210545260647,1.935
-0.00165263846694536,1.936
-0.0006544307927482782,1.937
0.0006043043109010865,1.938
0.0019477445592677742,1.939
0.003064223823309364,1.94
0.0035318068769919562,1.941
0.0028944175830517994,1.942
0.0008518921593815283,1.943
-0.002484970084775208,1.944
-0.006453788303087544,1.945
-0.009966910743402115,1.946
-0.01187451131795507,1.947
-0.01138600469115123,1.948
-0.008344893500489224,1.949
-0.0032507275473601435,1.95
0.0029207410374842485,1.951
0.00897715597858139,1.952
0.013778099687914401,1.953
0.016480481141975062,1.954
0.016702302376745453,1.955
0.014569125003968722,1.956
0.010654724046640328,1.957
0.005832660121597901,1.958
0.0010820342515746944,1.959
-0.002695793814221087,1.96
-0.0048264114738773645,1.961
-0.004971778095526575,1.962
-0.0031997421137781186,1.963
-5.32832259139359e-06,1.964
0.0037625342736168307,1.965
0.007097015990169377,1.966
0.009097211315607194,1.967
0.009205275134757752,1.968
0.00732857015887806,1.969
0.0037984310899827614,1.97
-0.0008038559144185393,1.971
-0.005883214877035712,1.972
-0.011028923766645942,1.973
-0.01602994222127079,1.974
-0.020669876432911176,1.975
-0.02449797284598075,1.976
-0.026797110404535678,1.977
-0.026741552350867323,1.978
-0.023631321710498875,1.979
-0.017178469876868566,1.98
-0.00780620296881227,1.981
0.0032269655919259167,1.982
0.014077893667372818,1.983
0.02287161215336984,1.984
0.028209921186553,1.985
0.029408275954049917,1.986
0.026544899866692312,1.987
0.02044901777559397,1.988
0.01256532592862961,1.989
0.00454939790847341,1.99
-0.002307562706965496,1.991
-0.007444187567099371,1.992
-0.010966610796187076,1.993
-0.013282610790315067,1.994
-0.014670033937783862,1.995
-0.01500983863211975,1.996
-0.013831502180648408,1.997
-0.010650300524487191,1.998
-0.005375833494175891,1.999
0.001528247083657078,2.0
0.00922285864709305,2.001
0.01675703369578485,2.002
0.023190854865722973,2.003
0.027636856017742552,2.004
0.029339019054159976,2.005
0.02777392381755484,2.006
0.022757797469682737,2.007
0.014608959937454981,2.008
0.004307252821445387,2.009
-0.006566666963863923,2.01
-0.016220412100573373,2.011
-0.02318205298368982,2.012
-0.026691793967435453,2.013
-0.02682328042607177,2.014
-0.024346804925249498,2.015
-0.020373567593255055,2.016
-0.015894806231696722,2.017
-0.01147184799190071,2.018
-0.007255350459251095,2.019
-0.0031969471585694205,2.02
0.0007672026462848526,2.021
0.004594040719365209,2.022
0.00807387882189108,2.023
0.010866692245519102,2.024
0.012562207442794784,2.025
0.012685401219157021,2.026
0.010699597064510088,2.027
0.006124012317567478,2.028
-0.0011700169308957022,2.029
-0.010586392674885719,2.03
-0.020644411368653984,2.031
-0.029265767436176825,2.032
-0.03437704079547551,2.033
-0.0344439333512804,2.034
-0.02874549261796187,2.035
-0.01748830678140291,2.036
-0.0018500109608173773,2.037
0.016103939985201612,2.038
0.033677520451883554,2.039
0.047972094297992936,2.04
0.05648686350898299,2.041
0.05776529335372588,2.042
0.05181889691437459,2.043
0.040139610448959424,2.044
0.0252699547318868,2.045
0.010056195521612726,2.046
-0.0031350756078718433,2.047
-0.01293300545481656,2.048
-0.019039343251746374,2.049
-0.021924550386124304,2.05
-0.02238606998375118,2.051
-0.021187735608143538,2.052
-0.018878126940012292,2.053
-0.01581929018283455,2.054
-0.0123697668665301,2.055
-0.009051181739423854,2.056
-0.006551212300544616,2.057
-0.00555662277601409,2.058
-0.006501152392256549,2.059
-0.009347215597651967,2.06
-0.013510063678336329,2.061
-0.017959951386640312,2.062
-0.02147443772861916,2.063
-0.022978285767071126,2.064
-0.021839890866006392,2.065
-0.017954900937453364,2.066
-0.011588772251498894,2.067
-0.0031544882668473914,2.068
0.006893412033450223,2.069
0.018016561071772838,2.07
0.029460996587916823,2.071
0.04010304212580117,2.072
0.04838121206598523,2.073
0.05249082282055368,2.074
0.05090634841673678,2.075
0.04300657986713339,2.076
0.029457575948792978,2.077
0.01213924577669458,2.078
-0.00638764718078293,2.079
-0.02362057971671358,2.08
-0.03768408642025761,2.081
-0.04751207130558467,2.082
-0.05267853371409447,2.083
-0.053103401743075956,2.084
-0.04890923764851206,2.085
-0.04049284699554289,2.086
-0.02861623363566332,2.087
-0.014392083500861972,2.088
0.0007346981620157978,2.089
0.014991913903093504,2.09
0.026469907544306493,2.091
0.033579095896213086,2.092
0.03555834813842172,2.093
0.03272533725320859,2.094
0.026349338729559597,2.095
0.01830688401239959,2.096
0.010717227313921834,2.097
0.005540169886205083,2.098
0.004100728487668915,2.099
0.0067329007303894885,2.1
0.012735084972168109,2.101
0.020571757788173925,2.102
0.028156258922999906,2.103
0.03314621584684555,2.104
0.03327694142809503,2.105
0.026797777033832133,2.106
0.012985875750682233,2.107
-0.007459139049055059,2.108
-0.03236274074380119,2.109
-0.0584136095840681,2.11
-0.08173696154475753,2.111
-0.09851417278096157,2.112
-0.1055685372908454,2.113
-0.10090489943909978,2.114
-0.08413577854906892,2.115
-0.05663780145137842,2.116
-0.021360619885380204,2.117
0.017598557383808142,2.118
0.055531854858512426,2.119
0.08776675215816462,2.12
0.11041633828065105,2.121
0.12109864175185628,2.122
0.11935364081416881,2.123
0.10653169004810506,2.124
0.08524608732166175,2.125
0.058717118138829724,2.126
0.030210396480791605,2.127
0.0026083419364735794,2.128
-0.021850268177943822,2.129
-0.04165874596569252,2.13
-0.05603258034439751,2.131
-0.06484644352627737,2.132
-0.06846989786694149,2.133
-0.06751068381375945,2.134
-0.06259803977983616,2.135
-0.054290693599119,2.136
-0.04311606835126969,2.137
-0.02973300731298986,2.138
-0.01512973282120831,2.139
-0.0006991679641121381,2.14
0.011910993544324941,2.141
0.021131817164313973,2.142
0.02584726709944586,2.143
0.025699718377181976,2.144
0.02126334840286853,2.145
0.013993458064134856,2.146
0.005876769977512446,2.147
-0.0011200559056034544,2.148
-0.005538123141702706,2.149
-0.006656679985334119,2.15
-0.0044712960093259225,2.151
0.0004627577403287351,2.152
0.007211371458121518,2.153
0.01462965564867264,2.154
0.021507164476502857,2.155
0.02666210508428822,2.156
0.0290180226658642,2.157
0.027762460723728077,2.158
0.022568849812911834,2.159
0.013717702537756933,2.16
0.0020737888217453922,2.161
-0.010961111516801373,2.162
-0.02354135952842023,2.163
-0.03368114675673761,2.164
-0.039739354112411446,2.165
-0.0408145124678734,2.166
-0.03683226822531412,2.167
-0.028374206255611108,2.168
-0.01644025595921397,2.169
-0.0022751864141397535,2.17
0.012682022467172625,2.171
0.02677848548376257,2.172
0.038224044340433715,2.173
0.04536158589800179,2.174
0.04710075932241802,2.175
0.04335980770811247,2.176
0.03519378254878652,2.177
0.024396663799492593,2.178
0.01280818371200864,2.179
0.0017606462237162634,2.18
-0.008125671356449628,2.181
-0.01683890748676804,2.182
-0.02469423091257677,2.183
-0.03201210936601827,2.184
-0.0388689810126239,2.185
-0.04500262251876144,2.186
-0.04987842984018696,2.187
-0.052833299411951314,2.188
-0.053205579057840305,2.189
-0.050391007029457056,2.19
-0.04383471634873497,2.191
-0.033103869205657964,2.192
-0.018146141199098253,2.193
0.00039642169991895227,2.194
0.021045537157679216,2.195
0.04166348332812123,2.196
0.05992489583717118,2.197
0.07383794989960528,2.198
0.08203705227363929,2.199
0.08382515903521039,2.2
0.07918854578418884,2.201
0.0688998083123274,2.202
0.0544968450076926,2.203
0.037917240118920593,2.204
0.020941204434830503,2.205
0.004770582700510974,2.206
-0.010090086446299036,2.207
-0.023640893655961358,2.208
-0.03600654154993904,2.209
-0.047104456930375106,2.21
-0.05654099468429139,2.211
-0.0637465364929749,2.212
-0.06821487210652581,2.213
-0.06966182007082831,2.214
-0.06797695877338844,2.215
-0.0630191383824975,2.216
-0.05448936113619495,2.217
-0.042086897315206685,2.218
-0.025912824944130348,2.219
-0.006831809090527387,2.22
0.013531807390863869,2.221
0.03318594999218843,2.222
0.050209756865483665,2.223
0.06293824908068645,2.224
0.06996558790157774,2.225
0.07022047961792005,2.226
0.06322902877921423,2.227
0.049499175125674456,2.228
0.030809572352870043,2.229
0.01009122270974113,2.23
-0.009211954871580687,2.231
-0.024006029634999124,2.232
-0.03221553990881068,2.233
-0.03308302881365859,2.234
-0.02715884017184699,2.235
-0.01610871890857478,2.236
-0.00240525445851469,2.237
0.011087566543145994,2.238
0.02162993030372789,2.239
0.027195174333102954,2.24
0.026946317978906998,2.241
0.02128858723185245,2.242
0.01144216476508592,2.243
-0.0011248458257589703,2.244
-0.015037393935633437,2.245
-0.029062109628537242,2.246
-0.04198839488086302,2.247
-0.052465499245073495,2.248
-0.058945105456349976,2.249
-0.05986211282156269,2.25
-0.0540105113068975,2.251
-0.04094145912486768,2.252
-0.021248887981007887,2.253
0.003276196018526747,2.254
0.0295970799222455,2.255
0.05361636679905898,2.256
0.07090237295580999,2.257
0.07801410288759807,2.258
0.0738185864646839,2.259
0.0599596277405476,2.26
0.0402049516703518,2.261
0.019068724224754547,2.262
0.0003751358802644561,2.263
-0.01365687828557344,2.264
-0.022567231656716782,2.265
-0.02717235121244627,2.266
-0.02877707579732002,2.267
-0.0284953034652774,2.268
-0.026996202485274002,2.269
-0.024630345059552743,2.27
-0.021617173541373366,2.271
-0.01811295902681551,2.272
-0.014214618494120743,2.273
-0.009962744162386614,2.274
-0.005372941439283099,2.275
-0.0005284483417439537,2.276
0.004340997361862861,2.277
0.008892817613586134,2.278
0.012771673336114906,2.279
0.015693553944959405,2.28
0.017496391821327877,2.281
0.0181758203498237,2.282
0.01792070391303347,2.283
0.01707627867944132,2.284
0.015947805247666348,2.285
0.014542271712852701,2.286
0.012455295103565151,2.287
0.00897263314532506,2.288
0.003300246870948218,2.289
-0.005140413151039309,2.29
-0.016361099514514726,2.291
-0.029514744048864082,2.292
-0.04285743489767208,2.293
-0.05404263311781235,2.294
-0.06066266077172016,2.295
-0.06082638069044832,2.296
-0.05355776929009413,2.297
-0.03897341593115544,2.298
-0.018322998862023866,2.299
0.0060655434761434784,2.3
0.030972802037717198,2.301
0.05268312788959141,2.302
0.06769451578094074,2.303
0.07370641343539007,2.304
0.07043113131527029,2.305
0.059667717312113414,2.306
0.04458895002893716,2.307
0.028681185930113512,2.308
0.014822878005760294,2.309
0.004730741089104711,2.31
-0.001216254452431908,2.311
-0.0037813862627121427,2.312
-0.004390498183766321,2.313
-0.004596514391042192,2.314
-0.0056359695835089905,2.315
-0.008085400667588769,2.316
-0.011702111441179372,2.317
-0.015620749467533205,2.318
-0.01886043942743018,2.319
-0.020824257613846226,2.32
-0.02153961548302685,2.321
-0.021633195242745627,2.322
-0.022123959412188518,2.323
-0.024051991417162636,2.324
-0.027990315572232187,2.325
-0.03366422998327198,2.326
-0.039871665526140264,2.327
-0.04464701972677191,2.328
-0.045596327727558617,2.329
-0.04048856428255392,2.33
-0.028066773178979373,2.331
-0.00871381275666638,2.332
0.01545813141542949,2.333
0.041149457131707305,2.334
0.06462103756423201,2.335
0.08217210403360278,2.336
0.09038719200050949,2.337
0.0865953950348903,2.338
0.06968958475707206,2.339
0.04094857000621121,2.34
0.004373936861457988,2.341
-0.03376581440090024,2.342
-0.06616347061638579,2.343
-0.08616146760410359,2.344
-0.0894198646706508,2.345
-0.07501742051907181,2.346
-0.04563749389448765,2.347
-0.006916219010085635,2.348
0.03372414793670663,2.349
0.06853964488596975,2.35
0.09110811883069439,2.351
0.09779319897616454,2.352
0.08843018408230055,2.353
0.06590370515903018,2.354
0.03490521810034751,2.355
0.0005608555479697412,2.356
-0.032512757396611754,2.357
-0.06061131294406437,2.358
-0.0809964825078121,2.359
-0.09186193425232884,2.36
-0.09239393225834953,2.361
-0.08292155912473924,2.362
-0.0650173212663971,2.363
-0.04138352270403625,2.364
-0.015396670013280886,2.365
0.009619060017257475,2.366
0.03108491993891508,2.367
0.047515350781501264,2.368
0.058391696076264196,2.369
0.06373422175664056,2.37
0.06375030147842027,2.371
0.058712549312137416,2.372
0.04892821860546294,2.373
0.03481507579750849,2.374
0.01719865020915791,2.375
-0.002381169275004441,2.376
-0.021686197808353975,2.377
-0.03816175246208002,2.378
-0.049495772937406125,2.379
-0.05411979940018658,2.38
-0.05149581218380644,2.381
-0.042205958967921994,2.382
-0.027870542024527642,2.383
-0.010763633397433721,2.384
0.006835635031140986,2.385
0.023108157243536966,2.386
0.03663616823266862,2.387
0.04610969144364008,2.388
0.050328867888287755,2.389
0.04858421885520082,2.39
0.04105808415264112,2.391
0.028906658297750423,2.392
0.013964393938701344,2.393
-0.0017032524616224255,2.394
-0.01612840483031178,2.395
-0.02760798939269055,2.396
-0.03484969026830355,2.397
-0.037165559029838174,2.398
-0.03459779943198915,2.399
-0.027840098769181216,2.4
-0.018030485914604055,2.401
-0.006638400842855507,2.402
0.004475499129906399,2.403
0.013028542598981405,2.404
0.016604133042656913,2.405
0.013290065443360184,2.406
0.0023945565659709814,2.407
-0.015052867472492003,2.408
-0.03616720513880045,2.409
-0.05653805186026596,2.41
-0.07108754776395029,2.411
-0.07531469220962236,2.412
-0.06654462164393163,2.413
-0.04476101294829783,2.414
-0.01273179263327368,2.415
0.024643064592461537,2.416
0.06150395294017594,2.417
0.09222830974581278,2.418
0.11237877152398741,2.419
0.11944203822227242,2.42
0.11321760340633828,2.421
0.09555077424697192,2.422
0.06950155872485034,2.423
0.0384738981367274,2.424
0.005741506363693448,2.425
-0.0256005976718836,2.426
-0.05254097792302265,2.427
-0.07221859161652967,2.428
-0.08225429416798434,2.429
-0.08127150897776403,2.43
-0.06945580324528151,2.431
-0.048901757319234095,2.432
-0.023443674044172035,2.433
0.002138409251348113,2.434
0.02332192328047248,2.435
0.037018342460671746,2.436
0.0422425752121035,2.437
0.04000921574232041,2.438
0.03260135000434842,2.439
0.02266704904064026,2.44
0.01256098785313763,2.441
0.004005526428021587,2.442
-0.0021286498882637137,2.443
-0.006025860350813016,2.444
-0.008922779753513833,2.445
-0.01267716833329304,2.446
-0.01902516907169985,2.447
-0.028905126157186038,2.448
-0.042097543690556044,2.449
-0.05715782043873514,2.45
-0.07155402320362188,2.451
-0.08207331497193229,2.452
-0.08555282717003658,2.453
-0.0796874468056146,2.454
-0.06355681023418974,2.455
-0.03785744210326442,2.456
-0.00507001363429857,2.457
0.03053298023637282,2.458
0.06353628703962427,2.459
0.08888345528968651,2.46
0.10353223426845883,2.461
0.10714133431068218,2.462
0.10145413368079985,2.463
0.08914621535832952,2.464
0.07297542026127812,2.465
0.055426856657525794,2.466
0.03862199360839374,2.467
0.024157350244376208,2.468
0.012729109454798224,2.469
0.003846510984904225,2.47
-0.003907140298839613,2.471
-0.012081751521699028,2.472
-0.021594725435625527,2.473
-0.03243145602029544,2.474
-0.0437561909074723,2.475
-0.0542203927163096,2.476
-0.062342629785507114,2.477
-0.06684155247892233,2.478
-0.06681220245223886,2.479
-0.06175694736929881,2.48
-0.051658607287560596,2.481
-0.03723009427036317,2.482
-0.02011308589751523,2.483
