VaMe,time
0.0067,0.001
0.0045,0.002
0.0015,0.003
0.0,0.004
-0.0038,0.005
-0.0075,0.006
-0.0083,0.007
-0.0083,0.008
-0.0053,0.009
-0.003,0.01
-0.0053,0.011
-0.0068,0.012
-0.003,0.013
-0.0008,0.014
-0.0015,0.015
-0.0023,0.016
-0.0053,0.017
-0.0083,0.018
-0.0053,0.019
0.0022,0.02
0.009,0.021
0.0112,0.022
0.0127,0.023
0.0075,0.024
0.003,0.025
-0.0008,0.026
0.0007,0.027
0.0045,0.028
0.0045,0.029
0.0037,0.03
0.0022,0.031
0.0015,0.032
0.0007,0.033
0.003,0.034
0.0082,0.035
0.0067,0.036
0.0022,0.037
-0.0015,0.038
-0.0083,0.039
-0.0128,0.04
-0.0105,0.041
-0.0053,0.042
-0.0046,0.043
-0.0091,0.044
-0.0135,0.045
-0.0046,0.046
0.0082,0.047
0.0127,0.048
0.012,0.049
0.015,0.05
0.0165,0.051
0.0067,0.052
-0.0008,0.053
-0.0046,0.054
-0.0046,0.055
-0.0023,0.056
-0.0038,0.057
-0.006,0.058
-0.0068,0.059
-0.006,0.06
-0.0015,0.061
0.0052,0.062
0.0052,0.063
0.0015,0.064
-0.0008,0.065
-0.003,0.066
-0.0038,0.067
-0.0015,0.068
0.0015,0.069
0.0022,0.07
0.0015,0.071
0.0007,0.072
-0.0008,0.073
-0.0015,0.074
0.0037,0.075
0.0082,0.076
0.0007,0.077
-0.003,0.078
-0.003,0.079
-0.0015,0.08
-0.0008,0.081
-0.0008,0.082
0.0007,0.083
-0.0008,0.084
-0.0046,0.085
-0.003,0.086
-0.0008,0.087
0.0015,0.088
0.0075,0.089
0.009,0.09
0.0045,0.091
0.0,0.092
-0.0008,0.093
-0.0008,0.094
0.0015,0.095
0.003,0.096
0.0022,0.097
0.0007,0.098
0.0022,0.099
0.0045,0.1
0.0037,0.101
0.0037,0.102
0.0,0.103
-0.0053,0.104
-0.0128,0.105
-0.0181,0.106
-0.0158,0.107
-0.0113,0.108
-0.0068,0.109
-0.0008,0.11
0.0075,0.111
0.0052,0.112
0.003,0.113
-0.0008,0.114
-0.0015,0.115
0.0052,0.116
0.009,0.117
0.0067,0.118
0.0052,0.119
0.0037,0.12
-0.0008,0.121
-0.006,0.122
-0.0098,0.123
-0.0075,0.124
-0.006,0.125
-0.003,0.126
0.0007,0.127
0.0045,0.128
0.009,0.129
0.009,0.13
0.0142,0.131
0.0135,0.132
0.0045,0.133
0.0007,0.134
-0.0008,0.135
-0.0046,0.136
-0.0083,0.137
-0.0083,0.138
-0.0053,0.139
-0.0023,0.14
0.0067,0.141
0.0127,0.142
0.0067,0.143
0.0,0.144
-0.0053,0.145
-0.0083,0.146
-0.006,0.147
-0.003,0.148
-0.0015,0.149
-0.0008,0.15
0.0015,0.151
0.0022,0.152
-0.0015,0.153
-0.0046,0.154
-0.0046,0.155
-0.0046,0.156
-0.003,0.157
0.0007,0.158
0.0,0.159
-0.0008,0.16
-0.0008,0.161
-0.0046,0.162
-0.0075,0.163
-0.0083,0.164
-0.0083,0.165
-0.0068,0.166
-0.0038,0.167
-0.0023,0.168
-0.003,0.169
-0.0008,0.17
0.0007,0.171
-0.0008,0.172
0.003,0.173
0.0082,0.174
0.006,0.175
0.0045,0.176
0.006,0.177
0.0075,0.178
0.0067,0.179
0.0,0.18
-0.006,0.181
-0.0091,0.182
-0.0046,0.183
0.0045,0.184
0.0157,0.185
0.0202,0.186
0.0172,0.187
0.012,0.188
0.006,0.189
0.012,0.19
0.0105,0.191
-0.0008,0.192
-0.0015,0.193
0.0015,0.194
0.0007,0.195
-0.0091,0.196
-0.015,0.197
-0.0128,0.198
-0.012,0.199
-0.0113,0.2
-0.0143,0.201
-0.0128,0.202
-0.0083,0.203
0.0,0.204
0.0045,0.205
0.0052,0.206
0.0067,0.207
0.0037,0.208
-0.0008,0.209
0.0015,0.21
0.0052,0.211
0.0052,0.212
-0.0008,0.213
-0.0105,0.214
-0.0203,0.215
-0.0285,0.216
-0.024,0.217
-0.012,0.218
-0.0008,0.219
0.0157,0.22
0.0397,0.221
0.0427,0.222
0.0232,0.223
0.0045,0.224
-0.0091,0.225
-0.0113,0.226
-0.0105,0.227
-0.0083,0.228
-0.0046,0.229
-0.0046,0.23
-0.0083,0.231
-0.0113,0.232
-0.006,0.233
-0.0053,0.234
-0.006,0.235
0.003,0.236
0.0202,0.237
0.0217,0.238
0.0067,0.239
0.0067,0.24
0.0082,0.241
0.0067,0.242
0.0052,0.243
-0.0023,0.244
-0.0008,0.245
0.0007,0.246
0.0022,0.247
0.0007,0.248
-0.0015,0.249
-0.0015,0.25
-0.003,0.251
-0.0038,0.252
-0.0046,0.253
-0.0023,0.254
-0.003,0.255
-0.0158,0.256
-0.0181,0.257
-0.0091,0.258
-0.006,0.259
-0.0038,0.26
0.0157,0.261
0.0277,0.262
0.0052,0.263
-0.0023,0.264
-0.0015,0.265
-0.0098,0.266
-0.0091,0.267
-0.0098,0.268
-0.0046,0.269
-0.003,0.27
0.0037,0.271
0.009,0.272
0.003,0.273
0.003,0.274
0.0,0.275
0.0015,0.276
0.0067,0.277
0.009,0.278
0.0142,0.279
0.0135,0.28
0.0142,0.281
0.018,0.282
0.0105,0.283
0.0007,0.284
-0.0068,0.285
-0.0143,0.286
-0.015,0.287
-0.0068,0.288
0.0052,0.289
0.009,0.29
0.0075,0.291
-0.0023,0.292
-0.0105,0.293
-0.0113,0.294
-0.0091,0.295
-0.006,0.296
-0.0068,0.297
-0.0075,0.298
-0.0068,0.299
-0.0068,0.3
-0.0091,0.301
-0.0083,0.302
-0.0068,0.303
-0.0046,0.304
-0.0015,0.305
0.0045,0.306
0.0105,0.307
0.0112,0.308
0.0067,0.309
0.0037,0.31
0.003,0.311
0.0007,0.312
0.0007,0.313
0.003,0.314
0.0075,0.315
0.0067,0.316
0.009,0.317
0.012,0.318
0.0097,0.319
0.0082,0.32
0.0007,0.321
-0.0068,0.322
-0.0165,0.323
-0.0195,0.324
-0.0218,0.325
-0.0218,0.326
-0.0143,0.327
0.0015,0.328
0.015,0.329
0.0112,0.33
0.0142,0.331
-0.0008,0.332
-0.0218,0.333
-0.0203,0.334
-0.015,0.335
-0.0083,0.336
-0.0046,0.337
0.0202,0.338
0.0427,0.339
0.0337,0.34
0.0195,0.341
0.0075,0.342
-0.006,0.343
-0.0091,0.344
-0.0046,0.345
-0.0068,0.346
-0.0091,0.347
-0.0098,0.348
-0.0091,0.349
-0.003,0.35
0.0037,0.351
0.0045,0.352
0.0007,0.353
-0.0053,0.354
-0.006,0.355
-0.0008,0.356
0.0022,0.357
0.003,0.358
-0.003,0.359
-0.0091,0.36
-0.0143,0.361
-0.012,0.362
-0.0053,0.363
0.0022,0.364
0.012,0.365
0.018,0.366
0.0225,0.367
0.0142,0.368
0.0082,0.369
0.0075,0.37
0.009,0.371
0.0105,0.372
0.0067,0.373
0.0067,0.374
0.003,0.375
-0.0038,0.376
-0.0083,0.377
-0.0075,0.378
-0.0046,0.379
-0.003,0.38
-0.0091,0.381
-0.0158,0.382
-0.0218,0.383
-0.0278,0.384
-0.0181,0.385
-0.003,0.386
0.0157,0.387
0.0277,0.388
0.0277,0.389
0.0165,0.39
0.0022,0.391
0.0007,0.392
-0.003,0.393
-0.0053,0.394
-0.003,0.395
-0.0053,0.396
-0.003,0.397
0.0007,0.398
0.0037,0.399
0.0067,0.4
0.0082,0.401
0.0037,0.402
0.0,0.403
-0.0008,0.404
0.0,0.405
-0.0053,0.406
-0.0113,0.407
-0.0143,0.408
-0.015,0.409
-0.003,0.41
0.0045,0.411
0.0105,0.412
0.0022,0.413
-0.0091,0.414
-0.0091,0.415
-0.0158,0.416
-0.015,0.417
-0.0143,0.418
-0.012,0.419
-0.0038,0.42
0.012,0.421
0.0217,0.422
0.018,0.423
0.0187,0.424
0.0157,0.425
0.0105,0.426
0.0045,0.427
0.003,0.428
0.0037,0.429
-0.0008,0.43
-0.0068,0.431
-0.0113,0.432
-0.0165,0.433
-0.0233,0.434
-0.0233,0.435
-0.0195,0.436
-0.012,0.437
0.0,0.438
0.0157,0.439
0.0195,0.44
0.006,0.441
-0.0008,0.442
0.0007,0.443
0.0067,0.444
0.027,0.445
0.0277,0.446
0.0097,0.447
0.0082,0.448
0.0082,0.449
0.009,0.45
-0.0038,0.451
-0.0105,0.452
-0.0105,0.453
-0.0143,0.454
-0.0091,0.455
-0.0158,0.456
-0.0173,0.457
-0.0135,0.458
-0.0023,0.459
0.006,0.46
-0.0046,0.461
-0.0068,0.462
-0.0068,0.463
-0.0075,0.464
0.006,0.465
0.0142,0.466
0.0112,0.467
0.0142,0.468
0.0105,0.469
0.0105,0.47
0.0112,0.471
-0.0008,0.472
-0.0053,0.473
-0.006,0.474
-0.0053,0.475
-0.0008,0.476
-0.0015,0.477
0.0007,0.478
0.0045,0.479
0.0052,0.48
0.0045,0.481
-0.0008,0.482
-0.003,0.483
-0.003,0.484
-0.003,0.485
-0.006,0.486
-0.0053,0.487
0.0037,0.488
0.012,0.489
0.0172,0.49
0.0195,0.491
0.0127,0.492
0.0052,0.493
-0.0008,0.494
-0.0068,0.495
-0.0091,0.496
-0.0091,0.497
-0.0158,0.498
-0.0308,0.499
-0.0593,0.5
-0.078,0.501
-0.0675,0.502
-0.0495,0.503
-0.0195,0.504
0.0,0.505
-0.0165,0.506
-0.024,0.507
-0.021,0.508
-0.0173,0.509
-0.0105,0.51
-0.003,0.511
0.0202,0.512
0.0367,0.513
0.0307,0.514
0.0202,0.515
0.0225,0.516
0.027,0.517
0.0292,0.518
0.03,0.519
0.0292,0.52
0.0367,0.521
0.0345,0.522
0.024,0.523
0.0232,0.524
0.0247,0.525
0.024,0.526
0.0255,0.527
0.0202,0.528
0.0142,0.529
0.009,0.53
0.0067,0.531
0.0045,0.532
-0.0008,0.533
-0.003,0.534
-0.0083,0.535
-0.0143,0.536
-0.0181,0.537
-0.0165,0.538
-0.0091,0.539
-0.0008,0.54
0.0097,0.541
0.021,0.542
0.0292,0.543
0.0217,0.544
0.0022,0.545
-0.0105,0.546
-0.012,0.547
-0.0075,0.548
-0.006,0.549
-0.0053,0.55
0.0007,0.551
0.0045,0.552
0.006,0.553
0.009,0.554
0.0067,0.555
0.003,0.556
0.0022,0.557
0.003,0.558
0.0015,0.559
-0.0038,0.56
-0.0091,0.561
-0.0135,0.562
-0.0135,0.563
-0.0113,0.564
-0.0053,0.565
0.0022,0.566
0.0045,0.567
-0.0046,0.568
-0.0083,0.569
-0.0091,0.57
-0.0143,0.571
-0.015,0.572
-0.012,0.573
-0.0113,0.574
-0.003,0.575
0.0097,0.576
0.0135,0.577
0.0135,0.578
0.0082,0.579
0.0067,0.58
0.0037,0.581
-0.0075,0.582
-0.0068,0.583
-0.0015,0.584
0.0015,0.585
0.0045,0.586
0.0045,0.587
0.0067,0.588
0.0067,0.589
0.006,0.59
0.006,0.591
0.0045,0.592
0.0045,0.593
0.0022,0.594
-0.0008,0.595
-0.0015,0.596
-0.0023,0.597
-0.0038,0.598
-0.0046,0.599
-0.006,0.6
-0.0075,0.601
-0.0091,0.602
-0.0068,0.603
-0.0046,0.604
-0.0038,0.605
-0.0015,0.606
0.0052,0.607
0.0067,0.608
-0.0023,0.609
-0.0053,0.61
-0.006,0.611
-0.0053,0.612
-0.0068,0.613
-0.0068,0.614
-0.0075,0.615
-0.0091,0.616
-0.0068,0.617
-0.0105,0.618
-0.0068,0.619
-0.006,0.62
-0.0075,0.621
0.0007,0.622
0.0007,0.623
-0.0038,0.624
-0.0023,0.625
0.009,0.626
0.0112,0.627
0.0067,0.628
0.012,0.629
0.0127,0.63
0.003,0.631
-0.0068,0.632
-0.0038,0.633
-0.0008,0.634
0.0015,0.635
0.0075,0.636
0.009,0.637
0.0105,0.638
0.0142,0.639
0.0202,0.64
0.0172,0.641
0.006,0.642
-0.0008,0.643
-0.0053,0.644
-0.012,0.645
-0.0143,0.646
-0.0128,0.647
-0.0128,0.648
-0.0091,0.649
0.0015,0.65
0.0105,0.651
0.009,0.652
0.0037,0.653
0.0015,0.654
-0.0015,0.655
-0.0046,0.656
-0.0053,0.657
-0.0046,0.658
-0.003,0.659
0.0,0.66
0.0022,0.661
-0.003,0.662
-0.0053,0.663
-0.003,0.664
0.0015,0.665
0.0045,0.666
0.0007,0.667
-0.0008,0.668
0.0007,0.669
-0.0023,0.67
-0.0038,0.671
-0.0046,0.672
-0.0008,0.673
-0.0008,0.674
0.0037,0.675
0.0127,0.676
0.0127,0.677
0.0067,0.678
0.0007,0.679
-0.0008,0.68
0.0007,0.681
0.003,0.682
0.0052,0.683
0.0045,0.684
0.003,0.685
0.0015,0.686
0.0,0.687
-0.0008,0.688
-0.003,0.689
-0.0046,0.69
-0.006,0.691
-0.0083,0.692
-0.0098,0.693
-0.0098,0.694
-0.0083,0.695
-0.006,0.696
-0.006,0.697
-0.0053,0.698
-0.0075,0.699
-0.0083,0.7
-0.0053,0.701
-0.0023,0.702
0.003,0.703
0.0015,0.704
0.0022,0.705
0.0015,0.706
-0.0046,0.707
-0.0023,0.708
-0.0008,0.709
-0.0008,0.71
0.0015,0.711
0.0022,0.712
0.0022,0.713
0.0007,0.714
0.0022,0.715
0.0022,0.716
0.0007,0.717
0.0022,0.718
0.0015,0.719
-0.0046,0.72
-0.012,0.721
-0.012,0.722
-0.0068,0.723
0.0037,0.724
0.0112,0.725
0.0217,0.726
0.0277,0.727
0.018,0.728
0.009,0.729
-0.0015,0.73
-0.0023,0.731
0.0082,0.732
0.018,0.733
0.0172,0.734
0.015,0.735
0.009,0.736
-0.003,0.737
-0.0038,0.738
-0.0068,0.739
-0.0075,0.74
-0.0068,0.741
-0.0091,0.742
-0.0083,0.743
-0.0113,0.744
-0.0105,0.745
-0.0105,0.746
-0.0105,0.747
-0.0105,0.748
-0.0105,0.749
-0.0091,0.75
-0.0091,0.751
-0.0068,0.752
-0.0015,0.753
-0.0008,0.754
0.0007,0.755
0.0015,0.756
-0.0008,0.757
-0.006,0.758
-0.0105,0.759
-0.0135,0.76
-0.0083,0.761
-0.0053,0.762
-0.0008,0.763
0.0105,0.764
0.0217,0.765
0.0232,0.766
0.0097,0.767
0.0052,0.768
0.0067,0.769
0.0082,0.77
0.006,0.771
0.0052,0.772
0.0082,0.773
0.0045,0.774
0.0007,0.775
0.0,0.776
0.0,0.777
-0.0023,0.778
-0.0015,0.779
-0.0015,0.78
-0.0008,0.781
0.0,0.782
-0.003,0.783
-0.0046,0.784
-0.0046,0.785
-0.0046,0.786
-0.0075,0.787
-0.0105,0.788
-0.0075,0.789
-0.0038,0.79
0.0015,0.791
0.0082,0.792
0.0082,0.793
0.0022,0.794
-0.003,0.795
-0.0068,0.796
-0.0091,0.797
-0.0075,0.798
-0.0083,0.799
-0.0083,0.8
-0.0038,0.801
0.0037,0.802
0.0045,0.803
-0.0008,0.804
0.003,0.805
0.012,0.806
0.018,0.807
0.0105,0.808
0.0015,0.809
0.0007,0.81
0.0022,0.811
0.0067,0.812
0.0037,0.813
-0.0008,0.814
-0.0008,0.815
-0.003,0.816
-0.0038,0.817
-0.0015,0.818
0.0007,0.819
0.0007,0.82
0.0015,0.821
-0.0008,0.822
-0.003,0.823
-0.0015,0.824
-0.0008,0.825
-0.0015,0.826
-0.0015,0.827
-0.0023,0.828
-0.0038,0.829
-0.0038,0.83
-0.003,0.831
-0.0015,0.832
-0.0008,0.833
-0.0008,0.834
-0.0008,0.835
-0.003,0.836
-0.0068,0.837
-0.012,0.838
-0.0135,0.839
-0.0113,0.84
-0.0038,0.841
0.009,0.842
0.0217,0.843
0.0202,0.844
0.0187,0.845
0.015,0.846
0.0037,0.847
-0.0015,0.848
-0.0053,0.849
-0.0053,0.85
-0.003,0.851
-0.0008,0.852
-0.003,0.853
-0.0046,0.854
0.0007,0.855
0.0045,0.856
0.0052,0.857
0.0045,0.858
0.006,0.859
0.0007,0.86
-0.0023,0.861
-0.0008,0.862
-0.0015,0.863
-0.0023,0.864
-0.0053,0.865
-0.0053,0.866
-0.0053,0.867
-0.006,0.868
-0.0023,0.869
-0.0038,0.87
-0.0075,0.871
-0.0075,0.872
-0.006,0.873
-0.0053,0.874
-0.0015,0.875
0.0007,0.876
0.0037,0.877
0.003,0.878
-0.0008,0.879
-0.0008,0.88
-0.0015,0.881
0.0022,0.882
0.006,0.883
0.006,0.884
0.0097,0.885
0.0082,0.886
0.0045,0.887
0.003,0.888
0.003,0.889
0.006,0.89
0.0052,0.891
0.003,0.892
0.0,0.893
-0.0046,0.894
-0.0053,0.895
-0.0015,0.896
0.0067,0.897
0.0105,0.898
0.0052,0.899
0.0082,0.9
0.0127,0.901
0.0075,0.902
0.0037,0.903
-0.0008,0.904
-0.0046,0.905
-0.006,0.906
-0.0075,0.907
-0.0091,0.908
-0.0083,0.909
-0.0091,0.91
-0.0083,0.911
-0.0075,0.912
-0.0053,0.913
-0.003,0.914
-0.0023,0.915
0.0007,0.916
-0.0023,0.917
-0.0053,0.918
-0.0046,0.919
-0.0046,0.92
-0.0023,0.921
0.0015,0.922
0.0075,0.923
0.0082,0.924
0.009,0.925
0.009,0.926
0.0052,0.927
0.003,0.928
-0.0023,0.929
-0.0046,0.93
-0.0015,0.931
-0.0008,0.932
-0.003,0.933
-0.0038,0.934
-0.003,0.935
-0.0046,0.936
-0.0068,0.937
-0.0083,0.938
-0.0068,0.939
-0.0046,0.94
-0.003,0.941
0.0007,0.942
0.0052,0.943
0.0037,0.944
-0.0008,0.945
-0.0008,0.946
-0.0008,0.947
0.0015,0.948
0.0052,0.949
0.006,0.95
0.0037,0.951
0.0015,0.952
0.0022,0.953
0.0015,0.954
-0.003,0.955
-0.0023,0.956
-0.0038,0.957
-0.006,0.958
-0.0046,0.959
-0.0015,0.96
0.0067,0.961
0.0082,0.962
-0.0008,0.963
0.0,0.964
0.0007,0.965
-0.0023,0.966
-0.003,0.967
-0.0015,0.968
0.0052,0.969
0.0067,0.97
0.0037,0.971
0.003,0.972
0.0,0.973
0.0007,0.974
0.0022,0.975
0.0007,0.976
-0.0008,0.977
-0.0023,0.978
-0.0023,0.979
-0.0023,0.98
-0.0046,0.981
-0.0015,0.982
-0.003,0.983
-0.0038,0.984
-0.003,0.985
-0.0038,0.986
-0.0008,0.987
-0.0015,0.988
-0.0015,0.989
0.0,0.99
0.0015,0.991
0.003,0.992
0.0045,0.993
0.003,0.994
0.0007,0.995
0.0022,0.996
0.0015,0.997
-0.0008,0.998
-0.0008,0.999
-0.0015,1.0
-0.0008,1.001
-0.0008,1.002
0.0,1.003
0.0045,1.004
0.0015,1.005
0.0015,1.006
0.0082,1.007
0.0067,1.008
0.003,1.009
0.003,1.01
0.0067,1.011
0.0097,1.012
0.003,1.013
-0.0008,1.014
0.0,1.015
-0.0015,1.016
0.0045,1.017
0.0045,1.018
0.0007,1.019
0.0,1.02
-0.0015,1.021
0.0022,1.022
0.003,1.023
-0.003,1.024
-0.0046,1.025
-0.0083,1.026
-0.012,1.027
-0.0105,1.028
-0.0113,1.029
-0.0128,1.03
-0.0128,1.031
-0.0091,1.032
-0.0068,1.033
-0.0046,1.034
-0.0008,1.035
0.0015,1.036
0.0022,1.037
0.0015,1.038
0.0045,1.039
0.0082,1.04
0.0067,1.041
0.003,1.042
0.003,1.043
0.003,1.044
0.0045,1.045
0.0045,1.046
0.0015,1.047
0.003,1.048
0.0007,1.049
-0.0008,1.05
-0.003,1.051
-0.0046,1.052
-0.0053,1.053
-0.0053,1.054
-0.0053,1.055
-0.0015,1.056
0.0037,1.057
0.0045,1.058
0.0015,1.059
-0.0023,1.06
-0.0023,1.061
-0.0008,1.062
0.0052,1.063
0.0067,1.064
-0.0008,1.065
-0.003,1.066
0.0,1.067
0.0105,1.068
0.0157,1.069
0.0127,1.07
0.018,1.071
0.0165,1.072
0.009,1.073
0.0015,1.074
-0.0053,1.075
-0.0075,1.076
-0.0113,1.077
-0.015,1.078
-0.0165,1.079
-0.0143,1.08
-0.0143,1.081
-0.0105,1.082
-0.003,1.083
0.0045,1.084
0.012,1.085
0.0105,1.086
0.0052,1.087
-0.003,1.088
-0.0046,1.089
-0.003,1.09
0.0045,1.091
0.0067,1.092
-0.003,1.093
-0.003,1.094
-0.0046,1.095
-0.0046,1.096
0.0,1.097
-0.0008,1.098
0.0007,1.099
0.0037,1.1
0.0082,1.101
0.0187,1.102
0.018,1.103
0.009,1.104
0.0045,1.105
0.0007,1.106
-0.0015,1.107
-0.0046,1.108
-0.006,1.109
-0.0068,1.11
-0.0075,1.111
-0.0068,1.112
-0.0098,1.113
-0.0128,1.114
-0.0135,1.115
-0.0128,1.116
-0.0091,1.117
-0.0068,1.118
-0.0053,1.119
0.0007,1.12
0.0052,1.121
0.0105,1.122
0.0127,1.123
0.0067,1.124
0.0015,1.125
0.0007,1.126
0.0007,1.127
-0.003,1.128
-0.0015,1.129
0.0007,1.13
0.0037,1.131
0.0045,1.132
0.0,1.133
-0.0008,1.134
0.0015,1.135
0.0045,1.136
0.003,1.137
0.0,1.138
-0.0008,1.139
0.0015,1.14
0.0015,1.141
0.0,1.142
-0.0015,1.143
-0.003,1.144
-0.0023,1.145
-0.0068,1.146
-0.0098,1.147
-0.0098,1.148
-0.0075,1.149
-0.0053,1.15
-0.0046,1.151
-0.0015,1.152
0.0052,1.153
0.0112,1.154
0.009,1.155
0.0067,1.156
0.0165,1.157
0.0292,1.158
0.015,1.159
-0.0046,1.16
-0.0068,1.161
-0.0068,1.162
-0.003,1.163
-0.0008,1.164
-0.0008,1.165
-0.0008,1.166
-0.0015,1.167
-0.003,1.168
-0.0068,1.169
-0.0053,1.17
-0.0068,1.171
-0.0068,1.172
-0.0068,1.173
-0.0083,1.174
-0.0091,1.175
-0.0083,1.176
-0.0068,1.177
-0.006,1.178
-0.0053,1.179
-0.003,1.18
0.003,1.181
0.0015,1.182
-0.0023,1.183
-0.0053,1.184
-0.0053,1.185
-0.0038,1.186
-0.003,1.187
-0.0023,1.188
-0.0015,1.189
0.0015,1.19
0.0052,1.191
0.0082,1.192
0.0052,1.193
0.0045,1.194
0.0045,1.195
0.0015,1.196
0.003,1.197
0.003,1.198
0.0052,1.199
0.0127,1.2
0.0142,1.201
0.0045,1.202
-0.0053,1.203
-0.0053,1.204
-0.0015,1.205
0.0075,1.206
0.0082,1.207
0.0007,1.208
0.0,1.209
0.0015,1.21
0.0037,1.211
0.0007,1.212
-0.0015,1.213
-0.0008,1.214
-0.0008,1.215
0.0007,1.216
-0.0008,1.217
-0.0008,1.218
0.006,1.219
0.0082,1.22
0.003,1.221
-0.0008,1.222
-0.0023,1.223
-0.0023,1.224
-0.0023,1.225
-0.0008,1.226
-0.0023,1.227
-0.0053,1.228
-0.0046,1.229
-0.003,1.23
-0.003,1.231
-0.0023,1.232
-0.0038,1.233
-0.0038,1.234
-0.003,1.235
-0.0038,1.236
-0.003,1.237
-0.0023,1.238
-0.0023,1.239
-0.003,1.24
-0.0068,1.241
-0.0008,1.242
0.0067,1.243
0.0067,1.244
0.0045,1.245
0.003,1.246
0.0045,1.247
0.0052,1.248
0.0,1.249
-0.0053,1.25
-0.006,1.251
0.0,1.252
0.0082,1.253
0.0127,1.254
0.0202,1.255
0.024,1.256
0.0202,1.257
0.0097,1.258
0.0007,1.259
-0.003,1.26
-0.003,1.261
-0.0038,1.262
-0.003,1.263
-0.0068,1.264
-0.0083,1.265
-0.0053,1.266
-0.0038,1.267
-0.0046,1.268
-0.0068,1.269
-0.0046,1.27
-0.0023,1.271
-0.003,1.272
-0.0046,1.273
-0.0038,1.274
-0.003,1.275
-0.0023,1.276
-0.0015,1.277
-0.0038,1.278
-0.0023,1.279
-0.0038,1.28
-0.0046,1.281
-0.0015,1.282
-0.0015,1.283
-0.0015,1.284
-0.0008,1.285
0.0022,1.286
0.0037,1.287
0.003,1.288
0.0022,1.289
0.0045,1.29
0.0037,1.291
0.0015,1.292
0.0007,1.293
0.0022,1.294
0.0022,1.295
0.0007,1.296
0.0007,1.297
0.0007,1.298
-0.0008,1.299
0.0015,1.3
0.0045,1.301
0.0015,1.302
0.0,1.303
0.0,1.304
0.0007,1.305
0.0015,1.306
0.0007,1.307
0.0015,1.308
0.0015,1.309
0.0,1.31
-0.0008,1.311
-0.0008,1.312
0.0,1.313
-0.0015,1.314
-0.0023,1.315
-0.003,1.316
-0.0046,1.317
-0.0038,1.318
-0.003,1.319
-0.003,1.32
-0.0053,1.321
-0.006,1.322
-0.003,1.323
-0.0008,1.324
0.0022,1.325
0.0045,1.326
0.0052,1.327
0.0045,1.328
0.0022,1.329
0.003,1.33
0.0022,1.331
0.0015,1.332
0.0,1.333
-0.0023,1.334
-0.0023,1.335
-0.0038,1.336
-0.003,1.337
-0.0038,1.338
-0.003,1.339
-0.0015,1.34
0.0015,1.341
0.003,1.342
0.0037,1.343
0.0015,1.344
0.0015,1.345
0.003,1.346
0.0045,1.347
0.0045,1.348
0.0022,1.349
0.0007,1.35
0.0007,1.351
0.003,1.352
0.0015,1.353
0.0022,1.354
0.0015,1.355
0.0007,1.356
0.0015,1.357
0.0015,1.358
0.0015,1.359
0.0007,1.36
0.0007,1.361
-0.0008,1.362
-0.0015,1.363
0.0,1.364
-0.003,1.365
-0.0046,1.366
-0.0053,1.367
-0.0053,1.368
-0.0068,1.369
-0.0098,1.37
-0.0105,1.371
-0.0068,1.372
-0.0053,1.373
-0.0053,1.374
-0.0008,1.375
0.006,1.376
0.0112,1.377
0.0112,1.378
0.0067,1.379
0.0067,1.38
0.0067,1.381
0.0037,1.382
0.0007,1.383
0.0015,1.384
0.0015,1.385
-0.0015,1.386
-0.003,1.387
-0.0046,1.388
-0.0046,1.389
-0.003,1.39
-0.0015,1.391
-0.0023,1.392
-0.0015,1.393
-0.0023,1.394
-0.0008,1.395
0.0,1.396
0.0007,1.397
-0.0008,1.398
-0.003,1.399
-0.0015,1.4
-0.0015,1.401
-0.0046,1.402
-0.0015,1.403
-0.0008,1.404
0.0007,1.405
0.003,1.406
0.003,1.407
0.006,1.408
0.0067,1.409
0.0045,1.41
0.0052,1.411
0.0045,1.412
0.0037,1.413
0.003,1.414
0.0037,1.415
0.0015,1.416
-0.0008,1.417
0.0015,1.418
0.003,1.419
0.0045,1.42
0.0045,1.421
0.0007,1.422
-0.0008,1.423
-0.003,1.424
-0.0068,1.425
-0.0046,1.426
-0.006,1.427
-0.006,1.428
-0.0023,1.429
-0.0008,1.43
0.0007,1.431
0.0007,1.432
0.0022,1.433
0.003,1.434
0.0022,1.435
-0.0008,1.436
-0.0015,1.437
-0.0015,1.438
-0.003,1.439
-0.0015,1.44
-0.0008,1.441
0.0007,1.442
0.0015,1.443
0.0015,1.444
0.0,1.445
0.0,1.446
0.0007,1.447
0.003,1.448
0.0045,1.449
0.0052,1.45
0.0045,1.451
-0.003,1.452
-0.0053,1.453
-0.0008,1.454
0.0022,1.455
-0.0023,1.456
-0.0091,1.457
-0.0083,1.458
-0.0053,1.459
-0.0015,1.46
0.0007,1.461
0.0015,1.462
0.0067,1.463
0.009,1.464
0.0097,1.465
0.006,1.466
0.003,1.467
-0.0008,1.468
-0.003,1.469
-0.003,1.47
-0.0053,1.471
-0.0046,1.472
-0.0015,1.473
-0.003,1.474
-0.0015,1.475
0.0,1.476
-0.0008,1.477
0.0037,1.478
0.0045,1.479
0.0022,1.48
0.0015,1.481
0.0007,1.482
0.0,1.483
0.0,1.484
0.003,1.485
0.0022,1.486
0.0,1.487
0.0,1.488
0.0015,1.489
0.003,1.49
0.0022,1.491
0.0007,1.492
0.0015,1.493
0.0022,1.494
-0.0008,1.495
-0.003,1.496
-0.003,1.497
-0.0015,1.498
-0.0046,1.499
-0.0068,1.5
-0.0053,1.501
-0.0023,1.502
0.0007,1.503
0.0015,1.504
-0.0008,1.505
-0.0015,1.506
-0.003,1.507
-0.0046,1.508
-0.0038,1.509
-0.003,1.51
-0.0046,1.511
-0.0068,1.512
-0.0038,1.513
-0.003,1.514
-0.0046,1.515
-0.0015,1.516
0.0015,1.517
0.0037,1.518
0.0022,1.519
0.0015,1.52
0.0,1.521
0.0022,1.522
0.003,1.523
0.0022,1.524
0.0015,1.525
-0.0015,1.526
-0.0008,1.527
-0.0008,1.528
0.0022,1.529
0.0045,1.53
0.003,1.531
0.0007,1.532
-0.0015,1.533
0.0,1.534
0.0037,1.535
0.0015,1.536
-0.0008,1.537
0.0007,1.538
0.0045,1.539
0.0015,1.54
-0.0008,1.541
0.0,1.542
0.0,1.543
0.0,1.544
-0.003,1.545
-0.006,1.546
-0.0068,1.547
-0.0091,1.548
-0.0128,1.549
-0.0083,1.55
-0.0015,1.551
0.0007,1.552
0.0015,1.553
0.003,1.554
0.009,1.555
0.0165,1.556
0.0195,1.557
0.0067,1.558
0.0,1.559
0.0015,1.56
-0.0008,1.561
-0.003,1.562
-0.0053,1.563
-0.0023,1.564
0.003,1.565
0.0015,1.566
-0.0008,1.567
0.0,1.568
-0.0015,1.569
-0.0023,1.57
-0.0008,1.571
-0.0023,1.572
-0.003,1.573
-0.003,1.574
0.0007,1.575
0.0007,1.576
0.0007,1.577
0.0015,1.578
0.0007,1.579
-0.0008,1.58
-0.0038,1.581
-0.003,1.582
-0.0023,1.583
0.0015,1.584
0.0037,1.585
0.0067,1.586
0.009,1.587
0.006,1.588
0.0015,1.589
-0.003,1.59
-0.0068,1.591
-0.0113,1.592
-0.0135,1.593
-0.0105,1.594
-0.003,1.595
0.0007,1.596
0.0007,1.597
0.0045,1.598
0.0082,1.599
0.0142,1.6
0.0172,1.601
0.0052,1.602
0.0007,1.603
0.0045,1.604
0.0015,1.605
-0.0008,1.606
-0.0008,1.607
-0.0015,1.608
-0.0038,1.609
-0.0046,1.61
-0.0046,1.611
-0.0046,1.612
-0.0053,1.613
-0.0068,1.614
-0.0038,1.615
-0.0015,1.616
-0.0008,1.617
-0.0023,1.618
0.0007,1.619
0.0037,1.62
0.0075,1.621
0.0097,1.622
0.0037,1.623
-0.0046,1.624
-0.0038,1.625
-0.0023,1.626
0.0007,1.627
0.0022,1.628
-0.0008,1.629
-0.0008,1.63
0.0007,1.631
0.0007,1.632
0.003,1.633
0.0015,1.634
0.0,1.635
-0.0008,1.636
-0.0023,1.637
-0.0015,1.638
-0.003,1.639
-0.0038,1.64
-0.003,1.641
-0.0053,1.642
-0.0046,1.643
-0.0053,1.644
-0.0053,1.645
-0.0046,1.646
-0.0023,1.647
0.0007,1.648
0.0022,1.649
0.003,1.65
0.0015,1.651
0.0015,1.652
-0.0008,1.653
-0.003,1.654
-0.0015,1.655
-0.0023,1.656
-0.0046,1.657
-0.0046,1.658
0.0,1.659
0.0007,1.66
-0.0008,1.661
0.0007,1.662
0.0015,1.663
0.0045,1.664
0.0052,1.665
0.006,1.666
0.0045,1.667
0.0015,1.668
-0.0008,1.669
-0.003,1.67
-0.0015,1.671
-0.0008,1.672
0.0,1.673
0.0022,1.674
0.003,1.675
0.003,1.676
0.0037,1.677
0.0067,1.678
0.0105,1.679
0.009,1.68
0.006,1.681
0.0007,1.682
0.0007,1.683
-0.0008,1.684
-0.0015,1.685
-0.0008,1.686
-0.0015,1.687
-0.0008,1.688
-0.0023,1.689
-0.0023,1.69
0.0022,1.691
0.0037,1.692
0.0037,1.693
0.0037,1.694
0.0015,1.695
-0.0008,1.696
-0.0015,1.697
-0.0046,1.698
-0.003,1.699
0.0,1.7
0.0022,1.701
0.0015,1.702
-0.0008,1.703
-0.0008,1.704
0.0022,1.705
0.0045,1.706
0.0037,1.707
0.003,1.708
0.0007,1.709
-0.0015,1.71
-0.0008,1.711
0.0,1.712
-0.0008,1.713
-0.003,1.714
-0.0068,1.715
-0.0083,1.716
-0.006,1.717
-0.0046,1.718
-0.0023,1.719
0.0045,1.72
0.0075,1.721
0.0037,1.722
0.003,1.723
0.0015,1.724
0.0,1.725
0.0,1.726
0.0015,1.727
0.003,1.728
0.0022,1.729
0.0015,1.73
0.0015,1.731
0.0,1.732
0.0007,1.733
0.0,1.734
0.0022,1.735
0.0052,1.736
0.0037,1.737
0.0022,1.738
0.0,1.739
-0.0008,1.74
-0.003,1.741
-0.0068,1.742
-0.0068,1.743
-0.0075,1.744
-0.0068,1.745
-0.0046,1.746
-0.0046,1.747
-0.006,1.748
-0.006,1.749
-0.0068,1.75
-0.003,1.751
-0.0038,1.752
-0.0053,1.753
-0.0046,1.754
-0.006,1.755
-0.0053,1.756
-0.0015,1.757
-0.0008,1.758
-0.003,1.759
-0.0015,1.76
-0.0008,1.761
-0.0008,1.762
0.0015,1.763
0.003,1.764
0.003,1.765
0.003,1.766
0.0037,1.767
0.0045,1.768
0.0022,1.769
0.0007,1.77
-0.0015,1.771
-0.0015,1.772
0.0,1.773
-0.0015,1.774
-0.003,1.775
-0.0046,1.776
-0.0046,1.777
-0.0053,1.778
-0.0053,1.779
-0.0038,1.78
-0.0023,1.781
0.0007,1.782
0.0007,1.783
-0.0008,1.784
-0.0015,1.785
-0.0015,1.786
-0.0008,1.787
-0.0046,1.788
-0.0023,1.789
0.0045,1.79
0.0105,1.791
0.0105,1.792
0.0045,1.793
0.0052,1.794
0.0052,1.795
0.0075,1.796
0.0082,1.797
0.0052,1.798
0.0067,1.799
0.0067,1.8
0.0052,1.801
0.0067,1.802
0.006,1.803
0.0037,1.804
0.0022,1.805
0.0022,1.806
0.0022,1.807
-0.0015,1.808
-0.0046,1.809
0.0,1.81
0.0015,1.811
0.0,1.812
0.0007,1.813
0.0015,1.814
0.0045,1.815
0.0052,1.816
0.003,1.817
0.0037,1.818
0.0015,1.819
-0.0023,1.82
-0.0038,1.821
-0.006,1.822
-0.0053,1.823
-0.006,1.824
-0.0038,1.825
-0.0015,1.826
-0.0008,1.827
0.0015,1.828
0.0037,1.829
0.003,1.83
0.0015,1.831
0.0007,1.832
0.0,1.833
-0.0015,1.834
-0.0038,1.835
-0.003,1.836
-0.003,1.837
-0.0038,1.838
-0.003,1.839
-0.0023,1.84
-0.0038,1.841
-0.0053,1.842
-0.006,1.843
-0.0068,1.844
-0.006,1.845
-0.0046,1.846
-0.0038,1.847
-0.0015,1.848
0.0015,1.849
0.0022,1.85
0.0007,1.851
0.0007,1.852
0.0007,1.853
0.0015,1.854
-0.0008,1.855
-0.0015,1.856
0.0015,1.857
0.0015,1.858
0.003,1.859
0.0015,1.86
0.0007,1.861
0.003,1.862
0.0022,1.863
0.0015,1.864
-0.0008,1.865
-0.003,1.866
-0.003,1.867
-0.0008,1.868
-0.0015,1.869
-0.0046,1.87
-0.003,1.871
-0.0015,1.872
-0.0023,1.873
-0.0046,1.874
-0.0068,1.875
-0.0075,1.876
-0.0053,1.877
-0.0046,1.878
-0.0046,1.879
-0.0053,1.88
-0.003,1.881
-0.0008,1.882
-0.0008,1.883
0.0015,1.884
0.003,1.885
0.0052,1.886
0.0052,1.887
0.0052,1.888
0.006,1.889
0.0082,1.89
0.0052,1.891
0.0067,1.892
0.009,1.893
0.0067,1.894
0.0045,1.895
0.003,1.896
0.003,1.897
0.0022,1.898
0.0022,1.899
0.0015,1.9
0.0015,1.901
0.0052,1.902
0.0052,1.903
0.003,1.904
0.0045,1.905
0.0082,1.906
0.0067,1.907
0.0037,1.908
0.0015,1.909
-0.0008,1.91
-0.0015,1.911
-0.0015,1.912
-0.003,1.913
-0.0023,1.914
-0.0046,1.915
-0.0053,1.916
-0.0053,1.917
-0.0046,1.918
-0.003,1.919
-0.0023,1.92
-0.0008,1.921
-0.0008,1.922
0.0007,1.923
0.0,1.924
-0.0015,1.925
-0.0008,1.926
-0.0015,1.927
-0.0008,1.928
0.0,1.929
-0.0015,1.93
-0.0053,1.931
-0.0075,1.932
-0.0083,1.933
-0.0098,1.934
-0.0091,1.935
-0.0046,1.936
-0.0008,1.937
0.0007,1.938
0.0015,1.939
0.0045,1.94
0.0067,1.941
0.0052,1.942
0.0037,1.943
0.0052,1.944
0.0067,1.945
0.0052,1.946
0.0015,1.947
-0.003,1.948
-0.003,1.949
-0.0015,1.95
0.0015,1.951
0.003,1.952
0.0007,1.953
-0.0008,1.954
-0.0008,1.955
0.003,1.956
0.0015,1.957
0.0015,1.958
0.0007,1.959
-0.0008,1.96
-0.0015,1.961
-0.0038,1.962
-0.0008,1.963
-0.0015,1.964
-0.0015,1.965
0.0007,1.966
0.0,1.967
0.0007,1.968
-0.0008,1.969
-0.003,1.97
-0.0091,1.971
-0.0113,1.972
-0.012,1.973
-0.0105,1.974
-0.0091,1.975
-0.0091,1.976
-0.0053,1.977
-0.0015,1.978
0.0015,1.979
0.0037,1.98
0.0022,1.981
0.0022,1.982
0.0037,1.983
0.0052,1.984
0.0067,1.985
0.006,1.986
0.0045,1.987
0.0037,1.988
0.0037,1.989
0.0022,1.99
0.0007,1.991
0.0007,1.992
-0.0008,1.993
0.0,1.994
-0.0008,1.995
-0.0023,1.996
-0.0008,1.997
0.0037,1.998
0.0067,1.999
0.0052,2.0
0.0045,2.001
0.0052,2.002
0.0067,2.003
0.0052,2.004
0.003,2.005
0.0007,2.006
-0.0015,2.007
0.0007,2.008
0.0007,2.009
0.0015,2.01
0.0015,2.011
0.0037,2.012
0.003,2.013
0.0037,2.014
0.0022,2.015
0.0007,2.016
0.0007,2.017
-0.003,2.018
-0.0015,2.019
-0.0023,2.02
-0.003,2.021
-0.0023,2.022
-0.0038,2.023
-0.0023,2.024
0.0015,2.025
0.0007,2.026
-0.0008,2.027
0.0,2.028
-0.0015,2.029
-0.003,2.03
-0.003,2.031
0.0,2.032
0.0,2.033
0.0015,2.034
0.0015,2.035
-0.0046,2.036
-0.0015,2.037
-0.0008,2.038
0.0,2.039
0.0007,2.04
-0.0015,2.041
-0.0008,2.042
-0.0015,2.043
-0.003,2.044
-0.0023,2.045
-0.0015,2.046
0.0007,2.047
0.0007,2.048
0.0007,2.049
0.0022,2.05
0.003,2.051
0.0015,2.052
0.0007,2.053
0.0007,2.054
-0.0015,2.055
-0.0023,2.056
-0.0038,2.057
-0.0046,2.058
-0.0046,2.059
-0.006,2.06
-0.0046,2.061
-0.0015,2.062
0.0022,2.063
0.0045,2.064
0.0045,2.065
0.0052,2.066
0.003,2.067
0.003,2.068
0.0015,2.069
0.0022,2.07
0.0052,2.071
0.0052,2.072
0.0037,2.073
0.003,2.074
0.003,2.075
0.006,2.076
0.0045,2.077
0.003,2.078
0.0015,2.079
0.0022,2.08
0.003,2.081
-0.0008,2.082
-0.0015,2.083
-0.003,2.084
-0.0046,2.085
-0.0075,2.086
-0.0091,2.087
-0.0046,2.088
-0.0038,2.089
-0.0038,2.09
-0.0023,2.091
-0.0038,2.092
-0.003,2.093
-0.0023,2.094
-0.0008,2.095
0.0,2.096
-0.0015,2.097
-0.0046,2.098
-0.0046,2.099
-0.0038,2.1
-0.003,2.101
-0.0008,2.102
0.0015,2.103
0.0037,2.104
0.0052,2.105
0.006,2.106
0.006,2.107
0.0037,2.108
0.0015,2.109
0.0015,2.11
0.0007,2.111
0.003,2.112
0.003,2.113
-0.0008,2.114
-0.0008,2.115
-0.0023,2.116
-0.003,2.117
-0.0038,2.118
-0.0038,2.119
-0.0015,2.12
-0.0015,2.121
0.0015,2.122
0.0052,2.123
0.006,2.124
0.0052,2.125
0.0037,2.126
0.0015,2.127
-0.0008,2.128
-0.003,2.129
-0.003,2.13
0.0007,2.131
0.0007,2.132
0.003,2.133
0.0007,2.134
-0.0046,2.135
-0.0038,2.136
-0.0038,2.137
-0.0015,2.138
-0.0023,2.139
-0.003,2.14
-0.0015,2.141
-0.0015,2.142
-0.003,2.143
-0.0038,2.144
-0.0053,2.145
-0.0038,2.146
-0.0038,2.147
-0.0053,2.148
-0.0053,2.149
-0.0046,2.15
-0.003,2.151
-0.0015,2.152
0.0007,2.153
0.003,2.154
0.003,2.155
0.003,2.156
0.003,2.157
0.0075,2.158
0.009,2.159
0.003,2.16
0.0015,2.161
0.0045,2.162
0.0045,2.163
0.0052,2.164
0.0045,2.165
0.0052,2.166
0.0045,2.167
0.0045,2.168
0.006,2.169
0.0037,2.17
0.003,2.171
0.003,2.172
0.0,2.173
-0.003,2.174
-0.0038,2.175
-0.0046,2.176
-0.0068,2.177
-0.0075,2.178
-0.006,2.179
-0.0053,2.18
-0.006,2.181
-0.006,2.182
-0.0046,2.183
-0.0008,2.184
0.0,2.185
-0.0015,2.186
-0.0008,2.187
-0.0008,2.188
-0.003,2.189
-0.0015,2.19
0.0015,2.191
0.0022,2.192
0.0007,2.193
-0.0008,2.194
0.0015,2.195
0.0015,2.196
-0.0008,2.197
0.0007,2.198
0.0007,2.199
-0.0015,2.2
-0.0008,2.201
0.003,2.202
0.0052,2.203
0.0052,2.204
0.0045,2.205
0.003,2.206
0.0022,2.207
0.0015,2.208
0.0007,2.209
-0.003,2.21
-0.0053,2.211
-0.0046,2.212
-0.0015,2.213
0.0007,2.214
0.0015,2.215
0.0007,2.216
0.0022,2.217
0.0015,2.218
-0.0008,2.219
-0.0008,2.22
-0.0053,2.221
-0.0075,2.222
-0.006,2.223
-0.0038,2.224
-0.0015,2.225
0.0007,2.226
0.0015,2.227
0.003,2.228
0.0007,2.229
-0.0015,2.23
0.0007,2.231
0.0045,2.232
0.0037,2.233
0.0007,2.234
0.003,2.235
0.003,2.236
0.0007,2.237
-0.0023,2.238
-0.0053,2.239
-0.0038,2.24
-0.003,2.241
-0.0008,2.242
0.0007,2.243
0.0,2.244
0.0007,2.245
0.0015,2.246
0.0037,2.247
0.0045,2.248
0.0037,2.249
0.0007,2.25
0.0,2.251
0.0007,2.252
0.003,2.253
0.0022,2.254
0.0007,2.255
0.0015,2.256
0.0052,2.257
0.0082,2.258
0.0052,2.259
0.0037,2.26
0.0037,2.261
0.0052,2.262
0.0052,2.263
0.003,2.264
0.0007,2.265
0.0015,2.266
0.0022,2.267
0.0,2.268
-0.003,2.269
-0.0046,2.27
-0.0053,2.271
-0.0075,2.272
-0.0083,2.273
-0.0083,2.274
-0.0068,2.275
-0.0046,2.276
0.0007,2.277
0.0052,2.278
0.0052,2.279
0.0045,2.28
0.0007,2.281
-0.0015,2.282
-0.003,2.283
-0.0023,2.284
0.0015,2.285
0.0007,2.286
-0.0008,2.287
0.0007,2.288
0.0045,2.289
0.003,2.29
0.0007,2.291
-0.0008,2.292
-0.0038,2.293
-0.0046,2.294
-0.0038,2.295
-0.003,2.296
-0.0015,2.297
0.0015,2.298
0.0007,2.299
-0.003,2.3
-0.003,2.301
-0.0015,2.302
0.0015,2.303
0.003,2.304
0.0015,2.305
0.0015,2.306
0.0015,2.307
-0.0008,2.308
-0.0038,2.309
-0.0068,2.31
-0.0068,2.311
-0.0083,2.312
-0.0083,2.313
-0.0015,2.314
0.0007,2.315
0.0007,2.316
0.003,2.317
0.0052,2.318
0.0007,2.319
-0.0015,2.32
-0.0008,2.321
0.0,2.322
0.0015,2.323
0.0007,2.324
0.0045,2.325
0.006,2.326
0.003,2.327
0.0022,2.328
0.0007,2.329
0.0007,2.33
0.003,2.331
0.0,2.332
-0.0015,2.333
-0.0008,2.334
-0.0015,2.335
-0.0015,2.336
-0.003,2.337
-0.003,2.338
-0.0015,2.339
0.0015,2.34
0.0075,2.341
0.0082,2.342
0.0037,2.343
0.0,2.344
-0.003,2.345
-0.006,2.346
-0.0046,2.347
-0.0053,2.348
-0.0046,2.349
-0.0068,2.35
-0.0046,2.351
-0.003,2.352
-0.0046,2.353
-0.0046,2.354
-0.0053,2.355
-0.0015,2.356
-0.0015,2.357
0.0015,2.358
0.0045,2.359
0.0067,2.36
0.0105,2.361
0.0097,2.362
0.0097,2.363
0.0082,2.364
0.0045,2.365
0.003,2.366
0.0015,2.367
-0.0008,2.368
-0.0023,2.369
-0.003,2.37
-0.0038,2.371
-0.0008,2.372
0.0015,2.373
0.0007,2.374
0.0007,2.375
-0.0015,2.376
-0.0023,2.377
-0.0038,2.378
-0.0038,2.379
-0.003,2.38
-0.006,2.381
-0.0053,2.382
-0.0015,2.383
-0.003,2.384
-0.0046,2.385
-0.0053,2.386
-0.0023,2.387
-0.0008,2.388
-0.003,2.389
-0.0008,2.39
-0.0008,2.391
-0.0023,2.392
0.0,2.393
0.0045,2.394
0.0067,2.395
0.0052,2.396
0.0075,2.397
0.0105,2.398
0.0112,2.399
0.012,2.4
0.0105,2.401
0.0067,2.402
0.0037,2.403
0.003,2.404
0.0037,2.405
0.0052,2.406
0.0052,2.407
0.0007,2.408
-0.003,2.409
-0.0038,2.41
-0.0046,2.411
-0.0046,2.412
-0.006,2.413
-0.0046,2.414
-0.0015,2.415
-0.0023,2.416
-0.0046,2.417
-0.0053,2.418
-0.006,2.419
-0.006,2.42
-0.0068,2.421
-0.0046,2.422
-0.0015,2.423
-0.0008,2.424
0.0,2.425
0.0007,2.426
0.0,2.427
0.0,2.428
0.0,2.429
-0.0015,2.43
-0.0023,2.431
-0.0008,2.432
0.0015,2.433
0.0007,2.434
-0.0015,2.435
-0.0023,2.436
-0.0046,2.437
-0.0053,2.438
-0.006,2.439
-0.0053,2.44
-0.0015,2.441
-0.0038,2.442
-0.0075,2.443
-0.0046,2.444
-0.0038,2.445
-0.0023,2.446
0.003,2.447
0.003,2.448
0.003,2.449
0.0067,2.45
0.0082,2.451
0.0052,2.452
0.0052,2.453
0.0037,2.454
0.003,2.455
0.0022,2.456
0.0007,2.457
-0.003,2.458
-0.003,2.459
0.0015,2.46
0.0037,2.461
0.0052,2.462
0.0037,2.463
0.0022,2.464
0.0015,2.465
0.0022,2.466
0.0022,2.467
0.0022,2.468
-0.0023,2.469
-0.0053,2.47
-0.0053,2.471
-0.0068,2.472
-0.006,2.473
-0.0046,2.474
-0.003,2.475
-0.0008,2.476
0.0015,2.477
0.003,2.478
0.0015,2.479
-0.0008,2.48
-0.0008,2.481
-0.003,2.482
-0.0015,2.483
0.0015,2.484
0.0022,2.485
0.003,2.486
0.0037,2.487
0.0015,2.488
-0.0008,2.489
-0.0015,2.49
-0.0008,2.491
-0.0008,2.492
-0.003,2.493
-0.003,2.494
-0.0046,2.495
-0.003,2.496
-0.0008,2.497
0.0022,2.498
0.0045,2.499
0.0052,2.5
0.0052,2.501
0.003,2.502
0.0015,2.503
0.0007,2.504
0.0,2.505
0.0,2.506
0.0,2.507
-0.0015,2.508
-0.0015,2.509
0.0007,2.51
0.003,2.511
0.0067,2.512
0.0052,2.513
0.0075,2.514
0.009,2.515
0.0097,2.516
0.009,2.517
0.0045,2.518
0.0037,2.519
0.003,2.52
0.0045,2.521
0.003,2.522
0.0007,2.523
-0.0015,2.524
-0.0015,2.525
-0.003,2.526
-0.0075,2.527
-0.0083,2.528
-0.0105,2.529
-0.0098,2.53
-0.006,2.531
-0.0038,2.532
-0.0008,2.533
0.0,2.534
0.0022,2.535
0.0037,2.536
0.0015,2.537
0.0,2.538
0.0007,2.539
-0.0008,2.54
-0.0015,2.541
-0.0008,2.542
0.0,2.543
0.0007,2.544
0.0007,2.545
0.003,2.546
0.0045,2.547
0.003,2.548
0.0022,2.549
0.0015,2.55
0.0037,2.551
0.009,2.552
0.0075,2.553
0.003,2.554
0.0007,2.555
-0.0015,2.556
-0.0038,2.557
-0.0046,2.558
-0.006,2.559
-0.006,2.56
-0.0075,2.561
-0.0075,2.562
-0.0053,2.563
-0.0046,2.564
-0.003,2.565
-0.0068,2.566
-0.0068,2.567
-0.006,2.568
-0.003,2.569
0.0,2.57
0.0,2.571
0.003,2.572
0.003,2.573
0.0015,2.574
0.0007,2.575
-0.0015,2.576
0.0,2.577
0.0007,2.578
-0.0008,2.579
-0.0015,2.58
-0.0023,2.581
0.0007,2.582
-0.0008,2.583
-0.0008,2.584
-0.0008,2.585
-0.0053,2.586
-0.0053,2.587
-0.0083,2.588
-0.0105,2.589
-0.0091,2.59
-0.006,2.591
0.0007,2.592
0.0075,2.593
0.0075,2.594
0.0052,2.595
0.0082,2.596
0.009,2.597
0.009,2.598
0.0082,2.599
0.006,2.6
0.0052,2.601
0.0037,2.602
0.0015,2.603
-0.0015,2.604
-0.003,2.605
-0.0046,2.606
-0.0053,2.607
-0.003,2.608
-0.0008,2.609
-0.0008,2.61
-0.0008,2.611
0.003,2.612
0.0037,2.613
0.003,2.614
0.003,2.615
0.0045,2.616
0.0015,2.617
-0.0008,2.618
-0.0015,2.619
-0.0015,2.62
-0.0015,2.621
-0.0008,2.622
-0.0015,2.623
-0.0008,2.624
-0.0015,2.625
-0.0015,2.626
-0.0046,2.627
-0.0053,2.628
-0.0038,2.629
-0.0046,2.63
-0.003,2.631
-0.0046,2.632
-0.0038,2.633
-0.0038,2.634
0.0007,2.635
0.0037,2.636
0.0075,2.637
0.0105,2.638
0.009,2.639
0.0075,2.64
0.0052,2.641
0.003,2.642
-0.0008,2.643
-0.003,2.644
-0.0038,2.645
-0.0015,2.646
-0.0008,2.647
-0.0008,2.648
0.003,2.649
0.0037,2.65
0.0015,2.651
0.0015,2.652
0.003,2.653
0.0007,2.654
0.0015,2.655
0.0022,2.656
0.0,2.657
-0.0015,2.658
-0.0023,2.659
-0.0008,2.66
0.0,2.661
-0.003,2.662
-0.0008,2.663
0.0007,2.664
-0.0008,2.665
0.0015,2.666
0.0045,2.667
0.0082,2.668
0.0097,2.669
0.0067,2.67
0.006,2.671
0.0052,2.672
0.0037,2.673
0.003,2.674
0.0015,2.675
-0.0015,2.676
-0.0038,2.677
-0.0046,2.678
-0.0053,2.679
-0.003,2.68
-0.0023,2.681
-0.0015,2.682
-0.0015,2.683
-0.003,2.684
-0.006,2.685
-0.0068,2.686
-0.0053,2.687
-0.0091,2.688
-0.0105,2.689
-0.0075,2.69
-0.006,2.691
-0.0038,2.692
0.0,2.693
-0.0015,2.694
-0.0038,2.695
-0.0038,2.696
-0.0015,2.697
0.0015,2.698
0.003,2.699
0.0015,2.7
0.0015,2.701
0.0015,2.702
0.0037,2.703
0.003,2.704
0.0022,2.705
0.0022,2.706
0.0015,2.707
0.0022,2.708
0.003,2.709
0.003,2.71
0.0045,2.711
0.0052,2.712
0.0037,2.713
0.0015,2.714
-0.0008,2.715
-0.003,2.716
-0.0046,2.717
-0.0038,2.718
-0.0038,2.719
-0.003,2.72
-0.003,2.721
-0.0038,2.722
-0.0008,2.723
0.0045,2.724
0.0037,2.725
0.0015,2.726
0.003,2.727
0.003,2.728
0.003,2.729
0.003,2.73
0.0022,2.731
0.003,2.732
0.0015,2.733
0.0015,2.734
0.0,2.735
-0.0015,2.736
0.0,2.737
0.0037,2.738
0.0052,2.739
0.0052,2.74
0.0045,2.741
0.0045,2.742
0.0045,2.743
0.003,2.744
0.0015,2.745
0.0007,2.746
0.0007,2.747
0.0015,2.748
0.003,2.749
0.0,2.75
-0.003,2.751
-0.0053,2.752
-0.0068,2.753
-0.0068,2.754
-0.0068,2.755
-0.0015,2.756
0.0007,2.757
-0.0023,2.758
-0.003,2.759
-0.003,2.76
0.0,2.761
0.0007,2.762
-0.0015,2.763
-0.006,2.764
-0.0075,2.765
-0.0053,2.766
-0.003,2.767
-0.003,2.768
-0.0038,2.769
-0.0023,2.77
0.0007,2.771
0.0015,2.772
0.0007,2.773
0.0007,2.774
0.0007,2.775
-0.0015,2.776
0.0007,2.777
0.0007,2.778
-0.0008,2.779
-0.0008,2.78
-0.0015,2.781
-0.0023,2.782
-0.0008,2.783
0.0015,2.784
0.0022,2.785
0.0022,2.786
0.0007,2.787
0.0015,2.788
0.0015,2.789
0.0007,2.79
-0.0008,2.791
-0.0046,2.792
-0.0046,2.793
-0.003,2.794
-0.0015,2.795
-0.0008,2.796
0.0015,2.797
0.003,2.798
0.0075,2.799
0.0082,2.8
0.0067,2.801
0.0082,2.802
0.0105,2.803
0.0105,2.804
0.0067,2.805
0.0015,2.806
-0.0023,2.807
-0.0068,2.808
-0.0091,2.809
-0.0105,2.81
-0.0098,2.811
-0.0113,2.812
-0.012,2.813
-0.0105,2.814
-0.0091,2.815
-0.0053,2.816
-0.0023,2.817
-0.0008,2.818
0.0007,2.819
0.0015,2.82
0.0015,2.821
0.0015,2.822
0.0037,2.823
0.0037,2.824
0.003,2.825
0.0022,2.826
0.0,2.827
-0.0015,2.828
-0.0023,2.829
-0.0038,2.83
-0.0038,2.831
-0.003,2.832
0.0007,2.833
0.0015,2.834
0.0,2.835
0.0007,2.836
0.0015,2.837
0.0,2.838
0.0015,2.839
0.0052,2.84
0.0045,2.841
0.003,2.842
0.003,2.843
0.0045,2.844
0.0037,2.845
0.003,2.846
0.003,2.847
0.0037,2.848
0.0037,2.849
0.0052,2.85
0.0052,2.851
0.003,2.852
0.003,2.853
0.0015,2.854
0.0007,2.855
-0.0008,2.856
-0.0015,2.857
0.0007,2.858
-0.0008,2.859
-0.0008,2.86
0.0022,2.861
0.0007,2.862
-0.0008,2.863
-0.0038,2.864
-0.0053,2.865
-0.0053,2.866
-0.0046,2.867
-0.0053,2.868
-0.0015,2.869
0.0015,2.87
0.0022,2.871
0.0015,2.872
-0.0015,2.873
-0.0023,2.874
-0.0046,2.875
-0.0015,2.876
0.003,2.877
0.0015,2.878
0.003,2.879
0.0052,2.88
0.0052,2.881
0.003,2.882
-0.0008,2.883
-0.003,2.884
-0.003,2.885
-0.0046,2.886
-0.0038,2.887
-0.003,2.888
0.0007,2.889
0.003,2.89
0.0052,2.891
0.0067,2.892
0.006,2.893
0.006,2.894
0.006,2.895
0.0037,2.896
0.0015,2.897
0.0007,2.898
0.0007,2.899
0.0007,2.9
-0.0008,2.901
-0.0046,2.902
-0.0068,2.903
-0.0023,2.904
-0.0015,2.905
-0.0015,2.906
0.0015,2.907
0.003,2.908
0.0007,2.909
0.0007,2.91
0.0007,2.911
-0.0015,2.912
-0.0015,2.913
0.0007,2.914
0.0022,2.915
0.003,2.916
0.0037,2.917
0.0015,2.918
-0.0015,2.919
-0.0038,2.92
-0.003,2.921
-0.0038,2.922
-0.0068,2.923
-0.0075,2.924
-0.006,2.925
-0.0046,2.926
-0.0008,2.927
0.003,2.928
0.0067,2.929
0.0067,2.93
0.0037,2.931
0.0052,2.932
0.0037,2.933
0.0015,2.934
0.0015,2.935
0.0007,2.936
-0.0015,2.937
-0.003,2.938
-0.0015,2.939
-0.0038,2.94
-0.0023,2.941
0.0015,2.942
0.0007,2.943
-0.0053,2.944
-0.0068,2.945
-0.0053,2.946
-0.0046,2.947
-0.0015,2.948
0.0015,2.949
0.0037,2.95
0.0022,2.951
0.0037,2.952
0.0052,2.953
0.0045,2.954
0.0045,2.955
0.0067,2.956
0.0105,2.957
0.0075,2.958
0.0,2.959
-0.0053,2.96
-0.0105,2.961
-0.0128,2.962
-0.0068,2.963
-0.0038,2.964
-0.0053,2.965
-0.0015,2.966
0.0045,2.967
0.0082,2.968
0.0105,2.969
0.0142,2.97
0.0157,2.971
0.0097,2.972
0.006,2.973
0.0045,2.974
0.0015,2.975
-0.0023,2.976
-0.0091,2.977
-0.0105,2.978
-0.0098,2.979
-0.0068,2.98
-0.0046,2.981
-0.0038,2.982
-0.0053,2.983
-0.0083,2.984
-0.0053,2.985
-0.0068,2.986
-0.0053,2.987
-0.003,2.988
-0.0008,2.989
0.003,2.99
0.003,2.991
0.0007,2.992
-0.0053,2.993
-0.0105,2.994
-0.012,2.995
-0.0098,2.996
-0.0083,2.997
-0.003,2.998
0.006,2.999
0.0165,3.0
0.0202,3.001
0.0142,3.002
0.0105,3.003
0.0067,3.004
-0.0008,3.005
-0.0053,3.006
-0.0075,3.007
-0.0075,3.008
-0.0091,3.009
-0.0091,3.01
-0.0105,3.011
-0.0075,3.012
-0.0046,3.013
-0.0038,3.014
0.003,3.015
0.0082,3.016
0.0105,3.017
0.0127,3.018
0.0172,3.019
0.0195,3.02
0.0112,3.021
0.006,3.022
0.003,3.023
0.0,3.024
0.0,3.025
-0.0023,3.026
-0.0053,3.027
-0.0053,3.028
-0.0053,3.029
-0.0068,3.03
-0.0068,3.031
-0.0068,3.032
-0.0143,3.033
-0.0158,3.034
-0.0143,3.035
-0.0091,3.036
-0.006,3.037
-0.0015,3.038
0.0045,3.039
0.0075,3.04
0.0142,3.041
0.0135,3.042
0.0105,3.043
0.0052,3.044
0.0015,3.045
-0.0008,3.046
-0.0023,3.047
0.0007,3.048
0.0037,3.049
0.0015,3.05
-0.003,3.051
-0.0053,3.052
-0.0053,3.053
-0.006,3.054
-0.0046,3.055
-0.0046,3.056
-0.006,3.057
-0.0143,3.058
-0.0233,3.059
-0.0181,3.06
-0.0098,3.061
-0.0046,3.062
0.0015,3.063
0.0127,3.064
0.0247,3.065
0.033,3.066
0.03,3.067
0.021,3.068
0.0135,3.069
0.0015,3.07
0.0,3.071
0.0007,3.072
0.0037,3.073
0.0082,3.074
0.0,3.075
-0.0105,3.076
-0.0128,3.077
-0.0091,3.078
-0.0098,3.079
-0.0091,3.08
-0.0038,3.081
0.0015,3.082
0.0015,3.083
-0.003,3.084
-0.003,3.085
0.0,3.086
0.0037,3.087
0.0015,3.088
0.003,3.089
0.0052,3.09
0.0067,3.091
0.0105,3.092
0.0105,3.093
0.0075,3.094
0.006,3.095
-0.0015,3.096
-0.0068,3.097
-0.0068,3.098
-0.0091,3.099
-0.0083,3.1
-0.0046,3.101
-0.0023,3.102
0.0007,3.103
0.0067,3.104
0.0112,3.105
0.009,3.106
0.0015,3.107
-0.0075,3.108
-0.0068,3.109
-0.006,3.11
-0.0068,3.111
-0.006,3.112
-0.0053,3.113
-0.003,3.114
0.003,3.115
0.0105,3.116
0.0112,3.117
0.0097,3.118
0.0045,3.119
-0.006,3.12
-0.0075,3.121
-0.0135,3.122
-0.0181,3.123
-0.012,3.124
-0.0075,3.125
-0.0015,3.126
0.0007,3.127
0.0007,3.128
0.0,3.129
0.0052,3.13
0.0157,3.131
0.0112,3.132
0.0052,3.133
0.0067,3.134
0.0022,3.135
0.0007,3.136
0.0052,3.137
0.0037,3.138
0.0022,3.139
0.006,3.14
0.0045,3.141
-0.0015,3.142
-0.0046,3.143
-0.0053,3.144
-0.0053,3.145
-0.0038,3.146
-0.0046,3.147
-0.0046,3.148
-0.0098,3.149
-0.0091,3.15
-0.0053,3.151
-0.0068,3.152
-0.0046,3.153
-0.0008,3.154
0.0052,3.155
0.0097,3.156
0.0082,3.157
0.0022,3.158
0.0015,3.159
0.003,3.16
0.0007,3.161
-0.0008,3.162
-0.0023,3.163
-0.0008,3.164
0.0015,3.165
0.0052,3.166
0.0015,3.167
-0.0091,3.168
-0.0105,3.169
-0.0068,3.17
-0.0068,3.171
-0.0068,3.172
-0.0046,3.173
-0.0008,3.174
0.0045,3.175
0.0082,3.176
0.009,3.177
0.003,3.178
-0.0053,3.179
-0.0091,3.18
-0.0053,3.181
-0.003,3.182
-0.0068,3.183
-0.0091,3.184
-0.0068,3.185
0.0007,3.186
0.0067,3.187
0.009,3.188
0.0127,3.189
0.012,3.19
0.0157,3.191
0.0105,3.192
-0.0038,3.193
-0.0113,3.194
-0.0128,3.195
-0.0105,3.196
-0.0053,3.197
-0.0046,3.198
-0.0038,3.199
-0.0046,3.2
-0.0046,3.201
-0.0008,3.202
0.0022,3.203
-0.0015,3.204
-0.0046,3.205
-0.0008,3.206
-0.0015,3.207
-0.0053,3.208
-0.003,3.209
0.003,3.21
0.0142,3.211
0.021,3.212
0.012,3.213
0.0067,3.214
0.0045,3.215
0.0082,3.216
0.0097,3.217
0.0045,3.218
0.003,3.219
0.0007,3.22
-0.0015,3.221
0.0007,3.222
-0.0008,3.223
-0.0038,3.224
-0.0053,3.225
-0.0053,3.226
-0.0068,3.227
-0.0075,3.228
-0.003,3.229
-0.0015,3.23
-0.0046,3.231
-0.0046,3.232
-0.0046,3.233
-0.003,3.234
0.006,3.235
0.0082,3.236
0.0007,3.237
-0.0038,3.238
-0.0015,3.239
0.0015,3.24
0.0075,3.241
0.0105,3.242
0.0165,3.243
0.0217,3.244
0.0142,3.245
0.0015,3.246
-0.003,3.247
-0.0068,3.248
-0.0098,3.249
-0.0091,3.25
-0.0083,3.251
-0.0083,3.252
-0.0083,3.253
-0.0068,3.254
-0.0068,3.255
-0.0053,3.256
-0.003,3.257
-0.003,3.258
-0.006,3.259
-0.012,3.26
-0.012,3.261
-0.0068,3.262
-0.0046,3.263
-0.0023,3.264
0.0015,3.265
0.0007,3.266
0.0022,3.267
0.0067,3.268
0.009,3.269
0.006,3.27
0.0045,3.271
0.0067,3.272
0.012,3.273
0.0247,3.274
0.0247,3.275
0.0052,3.276
-0.0068,3.277
-0.0105,3.278
-0.0105,3.279
-0.0083,3.28
-0.0105,3.281
-0.0068,3.282
0.0045,3.283
0.0105,3.284
0.0082,3.285
0.0015,3.286
-0.0038,3.287
-0.0083,3.288
-0.0091,3.289
-0.0091,3.29
-0.0068,3.291
-0.0053,3.292
0.0,3.293
0.0067,3.294
0.012,3.295
0.0112,3.296
0.0,3.297
-0.003,3.298
0.0007,3.299
0.003,3.3
0.0052,3.301
0.0045,3.302
-0.0068,3.303
-0.0135,3.304
-0.0128,3.305
-0.0158,3.306
-0.0158,3.307
-0.0105,3.308
-0.0046,3.309
0.0052,3.31
0.0082,3.311
0.0045,3.312
0.0052,3.313
0.0067,3.314
0.0045,3.315
-0.0008,3.316
-0.003,3.317
-0.0023,3.318
-0.0008,3.319
-0.0023,3.32
-0.0023,3.321
-0.003,3.322
0.0007,3.323
0.0045,3.324
0.0052,3.325
0.0082,3.326
0.009,3.327
0.0127,3.328
0.0142,3.329
0.009,3.33
0.0007,3.331
-0.0046,3.332
-0.003,3.333
0.0015,3.334
0.0022,3.335
0.0045,3.336
0.0067,3.337
0.012,3.338
0.0165,3.339
0.0067,3.34
-0.0046,3.341
-0.0046,3.342
-0.0105,3.343
-0.0195,3.344
-0.0181,3.345
-0.0143,3.346
-0.006,3.347
-0.0008,3.348
-0.0015,3.349
-0.0038,3.35
0.0052,3.351
0.0142,3.352
0.0052,3.353
-0.0015,3.354
-0.006,3.355
-0.0046,3.356
0.003,3.357
0.012,3.358
0.0105,3.359
-0.003,3.36
-0.0046,3.361
-0.0038,3.362
0.0007,3.363
0.0022,3.364
-0.0008,3.365
0.003,3.366
0.009,3.367
0.0082,3.368
0.0037,3.369
0.0067,3.37
0.0135,3.371
0.0232,3.372
0.024,3.373
0.012,3.374
-0.0008,3.375
-0.006,3.376
-0.012,3.377
-0.0165,3.378
-0.0181,3.379
-0.0225,3.38
-0.027,3.381
-0.027,3.382
-0.0181,3.383
-0.0046,3.384
0.0037,3.385
0.0037,3.386
0.0022,3.387
0.003,3.388
0.009,3.389
0.0105,3.39
0.0037,3.391
-0.0068,3.392
-0.012,3.393
-0.0023,3.394
0.0067,3.395
0.0067,3.396
0.0045,3.397
0.0097,3.398
0.0232,3.399
0.018,3.4
-0.0008,3.401
-0.0068,3.402
-0.0091,3.403
-0.0105,3.404
-0.0105,3.405
-0.0173,3.406
-0.0165,3.407
-0.015,3.408
-0.012,3.409
-0.0105,3.41
-0.006,3.411
0.003,3.412
0.0127,3.413
0.0172,3.414
0.012,3.415
0.0127,3.416
0.0135,3.417
0.0157,3.418
0.0135,3.419
0.0105,3.42
0.009,3.421
0.0045,3.422
-0.0008,3.423
-0.0015,3.424
-0.0015,3.425
-0.0023,3.426
0.0045,3.427
0.0067,3.428
0.003,3.429
-0.0038,3.43
-0.0038,3.431
-0.0068,3.432
-0.012,3.433
-0.0135,3.434
-0.0143,3.435
-0.0091,3.436
-0.0038,3.437
-0.0038,3.438
-0.0015,3.439
0.0015,3.44
-0.0046,3.441
-0.0046,3.442
-0.0008,3.443
-0.0015,3.444
0.0015,3.445
0.0045,3.446
0.009,3.447
0.012,3.448
0.012,3.449
0.0037,3.45
-0.003,3.451
-0.0023,3.452
-0.0008,3.453
-0.0008,3.454
-0.0046,3.455
-0.0038,3.456
-0.0023,3.457
-0.0015,3.458
0.0,3.459
-0.003,3.46
-0.0053,3.461
0.0007,3.462
0.0157,3.463
0.0202,3.464
0.0105,3.465
0.003,3.466
0.0067,3.467
0.0075,3.468
-0.0023,3.469
-0.0098,3.47
-0.0083,3.471
-0.0053,3.472
0.003,3.473
0.0015,3.474
-0.0075,3.475
-0.003,3.476
-0.0023,3.477
-0.0075,3.478
-0.0053,3.479
-0.0038,3.48
0.0015,3.481
0.0052,3.482
0.0022,3.483
0.0067,3.484
0.0157,3.485
0.0165,3.486
0.0165,3.487
0.0082,3.488
-0.0053,3.489
-0.006,3.49
-0.0075,3.491
-0.0083,3.492
-0.0046,3.493
-0.0068,3.494
-0.0068,3.495
-0.0083,3.496
-0.0128,3.497
-0.0181,3.498
-0.0203,3.499
-0.0181,3.5
-0.0135,3.501
-0.0068,3.502
0.0,3.503
0.0112,3.504
0.0255,3.505
0.0322,3.506
0.0277,3.507
0.0142,3.508
-0.0038,3.509
-0.012,3.51
-0.0083,3.511
-0.0098,3.512
-0.0091,3.513
-0.0083,3.514
-0.0053,3.515
0.0022,3.516
0.0075,3.517
0.0067,3.518
-0.003,3.519
-0.0038,3.52
-0.0046,3.521
-0.0038,3.522
-0.003,3.523
-0.0053,3.524
-0.0083,3.525
-0.0098,3.526
-0.0075,3.527
-0.003,3.528
-0.0008,3.529
-0.003,3.53
0.0,3.531
0.0075,3.532
0.006,3.533
0.0045,3.534
0.0052,3.535
0.003,3.536
0.012,3.537
0.0247,3.538
0.024,3.539
0.0105,3.54
0.0,3.541
-0.0015,3.542
0.0022,3.543
0.0007,3.544
-0.0068,3.545
-0.0068,3.546
-0.0113,3.547
-0.0135,3.548
-0.012,3.549
-0.012,3.55
-0.0105,3.551
-0.0105,3.552
-0.0091,3.553
-0.0023,3.554
0.003,3.555
-0.0015,3.556
-0.0023,3.557
0.0007,3.558
0.009,3.559
0.0217,3.56
0.0255,3.561
0.027,3.562
0.015,3.563
-0.0046,3.564
-0.0075,3.565
0.0015,3.566
0.0045,3.567
0.0045,3.568
0.0082,3.569
0.0142,3.57
0.012,3.571
0.009,3.572
0.0082,3.573
0.0052,3.574
0.003,3.575
0.0007,3.576
0.0045,3.577
-0.003,3.578
-0.0173,3.579
-0.0188,3.58
-0.0188,3.581
-0.015,3.582
-0.0173,3.583
-0.0128,3.584
-0.0038,3.585
0.0007,3.586
0.0037,3.587
0.003,3.588
0.003,3.589
0.0037,3.59
0.003,3.591
-0.0015,3.592
-0.0046,3.593
-0.0068,3.594
-0.0083,3.595
-0.0098,3.596
-0.012,3.597
-0.012,3.598
-0.0098,3.599
-0.0008,3.6
0.0067,3.601
0.0097,3.602
0.012,3.603
0.0127,3.604
0.0097,3.605
0.0052,3.606
0.0052,3.607
0.0037,3.608
0.0075,3.609
-0.003,3.61
-0.0128,3.611
-0.0083,3.612
-0.0046,3.613
0.0022,3.614
-0.003,3.615
-0.0098,3.616
-0.0023,3.617
0.003,3.618
0.0022,3.619
-0.0008,3.62
-0.0008,3.621
0.0052,3.622
0.0105,3.623
0.012,3.624
0.0052,3.625
0.0045,3.626
0.0097,3.627
0.0135,3.628
0.009,3.629
0.003,3.63
-0.003,3.631
-0.0083,3.632
-0.0091,3.633
-0.0083,3.634
-0.0091,3.635
-0.0113,3.636
-0.0135,3.637
-0.0083,3.638
0.0,3.639
-0.0023,3.64
-0.0128,3.641
-0.0128,3.642
-0.0023,3.643
0.009,3.644
0.0052,3.645
-0.003,3.646
0.0,3.647
0.0075,3.648
0.0075,3.649
0.0015,3.65
-0.0008,3.651
-0.003,3.652
-0.0046,3.653
-0.003,3.654
-0.0008,3.655
0.0015,3.656
0.0015,3.657
0.0022,3.658
0.0,3.659
-0.006,3.66
-0.012,3.661
-0.0083,3.662
0.0007,3.663
0.0052,3.664
0.0165,3.665
0.027,3.666
0.0315,3.667
0.0262,3.668
0.0105,3.669
-0.0046,3.67
-0.0188,3.671
-0.0233,3.672
-0.0256,3.673
-0.0233,3.674
-0.0173,3.675
-0.0075,3.676
0.0067,3.677
0.0112,3.678
0.0105,3.679
0.0135,3.68
0.0112,3.681
0.012,3.682
0.009,3.683
0.0075,3.684
0.0165,3.685
0.0127,3.686
0.009,3.687
0.0015,3.688
-0.0128,3.689
-0.0105,3.69
-0.006,3.691
-0.0053,3.692
-0.0053,3.693
-0.0075,3.694
-0.0008,3.695
0.0067,3.696
0.0127,3.697
0.012,3.698
0.0015,3.699
-0.0068,3.7
-0.0181,3.701
-0.0203,3.702
-0.0195,3.703
-0.0195,3.704
-0.0143,3.705
-0.006,3.706
0.003,3.707
0.0052,3.708
0.0075,3.709
0.0105,3.71
0.0015,3.711
-0.0053,3.712
-0.0068,3.713
-0.0083,3.714
-0.0046,3.715
-0.003,3.716
-0.0015,3.717
0.0,3.718
-0.0008,3.719
0.003,3.72
0.0067,3.721
0.0045,3.722
0.0052,3.723
0.009,3.724
0.006,3.725
-0.0023,3.726
-0.0068,3.727
-0.0053,3.728
-0.0091,3.729
-0.0046,3.73
0.0015,3.731
0.0105,3.732
0.0157,3.733
0.009,3.734
0.006,3.735
0.0112,3.736
0.009,3.737
0.003,3.738
0.0082,3.739
0.003,3.74
-0.0008,3.741
-0.0091,3.742
-0.021,3.743
-0.0165,3.744
-0.0083,3.745
0.0007,3.746
0.0105,3.747
0.0225,3.748
0.0352,3.749
0.0352,3.75
0.0202,3.751
0.018,3.752
0.0172,3.753
-0.0038,3.754
-0.0105,3.755
-0.0143,3.756
-0.0143,3.757
-0.0098,3.758
-0.0091,3.759
-0.006,3.76
-0.0083,3.761
-0.0128,3.762
-0.0158,3.763
-0.012,3.764
-0.0091,3.765
-0.006,3.766
-0.0046,3.767
-0.0008,3.768
-0.0015,3.769
-0.0075,3.77
-0.0068,3.771
-0.0008,3.772
0.006,3.773
-0.003,3.774
-0.0083,3.775
0.0015,3.776
0.0015,3.777
0.0015,3.778
-0.0008,3.779
0.0015,3.78
0.0052,3.781
0.0052,3.782
0.0097,3.783
0.0127,3.784
0.018,3.785
0.006,3.786
-0.0053,3.787
0.0015,3.788
0.0112,3.789
0.012,3.79
-0.0015,3.791
-0.006,3.792
-0.0105,3.793
-0.0203,3.794
-0.027,3.795
-0.027,3.796
-0.0195,3.797
-0.0083,3.798
0.0022,3.799
0.0112,3.8
0.0277,3.801
0.033,3.802
0.0195,3.803
0.0052,3.804
-0.0068,3.805
-0.0068,3.806
-0.0015,3.807
0.0015,3.808
-0.0083,3.809
-0.0105,3.81
-0.0046,3.811
-0.0053,3.812
0.0052,3.813
0.006,3.814
-0.0008,3.815
-0.0068,3.816
-0.003,3.817
0.0037,3.818
-0.0008,3.819
-0.0008,3.82
0.0015,3.821
-0.0015,3.822
-0.0015,3.823
0.0007,3.824
-0.0023,3.825
-0.003,3.826
-0.003,3.827
-0.006,3.828
-0.0075,3.829
-0.0075,3.83
-0.0053,3.831
-0.003,3.832
-0.0008,3.833
-0.0046,3.834
-0.0128,3.835
-0.012,3.836
-0.0091,3.837
-0.0143,3.838
-0.012,3.839
-0.0023,3.84
0.0142,3.841
0.0195,3.842
0.018,3.843
0.033,3.844
0.0292,3.845
0.012,3.846
0.012,3.847
0.0067,3.848
0.0,3.849
0.0015,3.85
0.0007,3.851
0.003,3.852
0.0015,3.853
-0.0023,3.854
-0.0068,3.855
-0.0128,3.856
-0.0188,3.857
-0.024,3.858
-0.0218,3.859
-0.0113,3.86
-0.0083,3.861
-0.0046,3.862
0.0067,3.863
0.0097,3.864
0.0045,3.865
0.003,3.866
0.0082,3.867
0.006,3.868
0.021,3.869
0.0277,3.87
0.0052,3.871
0.003,3.872
0.0037,3.873
-0.0083,3.874
-0.0128,3.875
-0.0091,3.876
-0.0083,3.877
-0.0068,3.878
-0.0008,3.879
0.0037,3.88
0.012,3.881
0.0105,3.882
-0.0008,3.883
-0.0128,3.884
-0.0165,3.885
-0.0128,3.886
-0.0128,3.887
-0.003,3.888
0.0225,3.889
0.0427,3.89
0.039,3.891
0.0172,3.892
0.0082,3.893
-0.0038,3.894
-0.0083,3.895
-0.006,3.896
-0.0015,3.897
0.0045,3.898
0.006,3.899
0.0075,3.9
-0.0015,3.901
-0.0046,3.902
-0.006,3.903
-0.012,3.904
-0.0165,3.905
-0.0165,3.906
-0.015,3.907
-0.012,3.908
-0.0015,3.909
0.006,3.91
0.0067,3.911
-0.003,3.912
-0.0046,3.913
-0.0053,3.914
-0.0068,3.915
-0.0053,3.916
-0.0075,3.917
0.0037,3.918
0.0097,3.919
0.0067,3.92
0.0052,3.921
0.0015,3.922
-0.0023,3.923
-0.0068,3.924
-0.0113,3.925
-0.0113,3.926
-0.0068,3.927
0.0022,3.928
0.0075,3.929
-0.0068,3.93
-0.0135,3.931
-0.003,3.932
0.0052,3.933
0.0142,3.934
0.0127,3.935
0.003,3.936
-0.0008,3.937
-0.0091,3.938
-0.012,3.939
-0.012,3.94
-0.0098,3.941
-0.0046,3.942
0.0015,3.943
0.0082,3.944
0.009,3.945
-0.0015,3.946
-0.0113,3.947
0.0015,3.948
0.0157,3.949
0.027,3.95
0.033,3.951
0.0262,3.952
0.009,3.953
-0.0038,3.954
-0.0091,3.955
-0.012,3.956
-0.0083,3.957
-0.0023,3.958
0.0067,3.959
0.0142,3.96
0.0142,3.961
0.0052,3.962
-0.006,3.963
-0.0143,3.964
-0.012,3.965
-0.0068,3.966
-0.0008,3.967
0.0007,3.968
-0.0098,3.969
-0.0165,3.97
-0.0135,3.971
0.0022,3.972
0.009,3.973
0.0082,3.974
0.0165,3.975
0.0165,3.976
0.009,3.977
0.0097,3.978
0.0127,3.979
0.0082,3.98
0.0045,3.981
-0.0023,3.982
-0.0053,3.983
-0.0068,3.984
-0.0143,3.985
-0.0181,3.986
-0.0195,3.987
-0.0188,3.988
-0.0075,3.989
0.012,3.99
0.0135,3.991
0.0052,3.992
-0.003,3.993
-0.015,3.994
-0.027,3.995
-0.0308,3.996
-0.0278,3.997
-0.0165,3.998
0.003,3.999
0.0285,4.0
0.0337,4.001
0.0232,4.002
0.0105,4.003
-0.0105,4.004
-0.0113,4.005
-0.003,4.006
0.0052,4.007
0.006,4.008
0.0007,4.009
0.018,4.01
0.0285,4.011
0.0172,4.012
-0.0023,4.013
0.0007,4.014
0.0075,4.015
0.003,4.016
-0.0068,4.017
-0.0165,4.018
-0.0165,4.019
-0.021,4.02
-0.0181,4.021
-0.0143,4.022
-0.0068,4.023
0.0007,4.024
0.0045,4.025
0.0172,4.026
0.0277,4.027
0.021,4.028
0.0105,4.029
0.0,4.03
-0.0128,4.031
-0.0128,4.032
-0.0158,4.033
-0.0181,4.034
-0.0181,4.035
-0.0083,4.036
0.0067,4.037
0.0135,4.038
0.012,4.039
0.003,4.04
-0.0008,4.041
-0.0008,4.042
-0.0046,4.043
-0.015,4.044
-0.024,4.045
-0.021,4.046
-0.0091,4.047
0.0127,4.048
0.0307,4.049
0.0307,4.05
0.0232,4.051
0.0075,4.052
-0.012,4.053
-0.0083,4.054
0.0037,4.055
0.0202,4.056
0.0232,4.057
0.0127,4.058
0.0067,4.059
-0.0046,4.06
-0.003,4.061
0.0007,4.062
0.0037,4.063
0.0135,4.064
0.0232,4.065
0.0127,4.066
-0.0053,4.067
-0.0068,4.068
-0.0105,4.069
-0.0158,4.07
-0.0195,4.071
-0.0203,4.072
-0.0195,4.073
-0.0203,4.074
-0.021,4.075
-0.0203,4.076
-0.0181,4.077
-0.0165,4.078
-0.0105,4.079
0.012,4.08
0.0307,4.081
0.0457,4.082
0.0375,4.083
0.0052,4.084
-0.0075,4.085
-0.0135,4.086
-0.0128,4.087
-0.0053,4.088
0.0037,4.089
0.0105,4.09
-0.0015,4.091
-0.0113,4.092
-0.0105,4.093
-0.0046,4.094
0.0007,4.095
-0.0008,4.096
-0.0046,4.097
-0.0023,4.098
0.003,4.099
0.006,4.1
0.0045,4.101
-0.0023,4.102
-0.0068,4.103
-0.003,4.104
0.0045,4.105
0.003,4.106
0.0165,4.107
0.0315,4.108
0.0165,4.109
0.0015,4.11
-0.0008,4.111
0.003,4.112
0.006,4.113
0.015,4.114
0.0217,4.115
0.018,4.116
0.0067,4.117
-0.0143,4.118
-0.0203,4.119
-0.0181,4.12
-0.0165,4.121
-0.0046,4.122
-0.0008,4.123
-0.0038,4.124
-0.0158,4.125
-0.0278,4.126
-0.0293,4.127
-0.0315,4.128
-0.021,4.129
-0.0015,4.13
0.006,4.131
0.0165,4.132
0.0292,4.133
0.0225,4.134
0.0112,4.135
0.0067,4.136
0.0052,4.137
-0.0068,4.138
-0.0128,4.139
-0.0046,4.14
0.0045,4.141
0.0157,4.142
0.012,4.143
0.0015,4.144
-0.0015,4.145
0.003,4.146
0.0097,4.147
0.0165,4.148
0.03,4.149
0.0217,4.15
0.0007,4.151
-0.0083,4.152
-0.0158,4.153
-0.0143,4.154
-0.0128,4.155
-0.0173,4.156
-0.0256,4.157
-0.027,4.158
-0.0203,4.159
-0.0158,4.16
-0.0038,4.161
0.012,4.162
0.018,4.163
0.0142,4.164
0.0052,4.165
-0.0046,4.166
-0.0105,4.167
-0.0083,4.168
-0.0068,4.169
0.0045,4.17
0.0187,4.171
0.0255,4.172
0.009,4.173
-0.0091,4.174
-0.0046,4.175
0.0007,4.176
0.0112,4.177
0.009,4.178
0.0037,4.179
0.0112,4.18
0.0142,4.181
0.0082,4.182
-0.003,4.183
-0.0128,4.184
-0.024,4.185
-0.0225,4.186
-0.0181,4.187
-0.0135,4.188
0.0067,4.189
0.0217,4.19
0.0187,4.191
0.0007,4.192
-0.003,4.193
-0.0008,4.194
0.0007,4.195
-0.0008,4.196
-0.0038,4.197
0.0007,4.198
-0.0023,4.199
-0.0068,4.2
-0.0083,4.201
-0.0053,4.202
-0.0015,4.203
0.0067,4.204
0.0165,4.205
0.0195,4.206
0.0142,4.207
-0.0015,4.208
-0.0023,4.209
-0.0008,4.21
-0.0143,4.211
0.0007,4.212
0.003,4.213
-0.0165,4.214
-0.0068,4.215
0.0127,4.216
0.0232,4.217
0.0157,4.218
0.0082,4.219
0.0,4.22
-0.0083,4.221
-0.0105,4.222
-0.0181,4.223
-0.0195,4.224
-0.0188,4.225
-0.0195,4.226
-0.0233,4.227
-0.0158,4.228
0.0007,4.229
0.0127,4.23
0.0165,4.231
0.0105,4.232
-0.0015,4.233
-0.0113,4.234
-0.0091,4.235
-0.0083,4.236
-0.0046,4.237
0.0022,4.238
0.009,4.239
0.0127,4.24
0.012,4.241
0.0067,4.242
-0.003,4.243
-0.0023,4.244
0.0007,4.245
-0.0023,4.246
0.0067,4.247
0.0187,4.248
0.015,4.249
0.0105,4.25
0.0202,4.251
0.012,4.252
-0.0075,4.253
-0.0128,4.254
-0.0075,4.255
0.0082,4.256
0.0195,4.257
0.0217,4.258
0.0045,4.259
-0.0128,4.26
-0.0105,4.261
-0.0075,4.262
-0.0008,4.263
0.006,4.264
0.0082,4.265
0.0007,4.266
-0.015,4.267
-0.024,4.268
-0.0218,4.269
-0.015,4.27
-0.0046,4.271
0.0082,4.272
-0.0008,4.273
-0.0195,4.274
-0.0105,4.275
0.0082,4.276
0.0247,4.277
0.0255,4.278
0.0127,4.279
0.0135,4.28
0.0082,4.281
0.0015,4.282
0.0075,4.283
0.0082,4.284
0.0,4.285
-0.0091,4.286
-0.0105,4.287
-0.0098,4.288
-0.0091,4.289
-0.006,4.29
-0.0068,4.291
-0.0046,4.292
-0.003,4.293
0.006,4.294
0.0127,4.295
0.006,4.296
-0.0046,4.297
-0.0105,4.298
-0.0158,4.299
-0.0165,4.3
-0.0053,4.301
0.012,4.302
0.018,4.303
0.0052,4.304
0.006,4.305
0.0112,4.306
0.0097,4.307
-0.0053,4.308
-0.0158,4.309
-0.0068,4.31
-0.0098,4.311
-0.0113,4.312
-0.0256,4.313
-0.0405,4.314
-0.0346,4.315
-0.0218,4.316
0.003,4.317
0.033,4.318
0.0232,4.319
-0.0083,4.32
0.0037,4.321
0.018,4.322
0.024,4.323
0.0292,4.324
0.0172,4.325
0.0082,4.326
0.0007,4.327
-0.0015,4.328
-0.0015,4.329
-0.0015,4.33
-0.0008,4.331
-0.0023,4.332
-0.0046,4.333
0.0015,4.334
0.0157,4.335
0.027,4.336
0.0277,4.337
0.0127,4.338
-0.0008,4.339
-0.0181,4.34
-0.0315,4.341
-0.021,4.342
-0.0091,4.343
0.0007,4.344
-0.0083,4.345
-0.0278,4.346
-0.0405,4.347
-0.0278,4.348
0.0007,4.349
0.0105,4.35
0.024,4.351
0.0427,4.352
0.0292,4.353
0.0052,4.354
0.0,4.355
0.009,4.356
0.0232,4.357
0.0165,4.358
-0.0068,4.359
-0.0225,4.36
-0.0195,4.361
-0.0083,4.362
0.0105,4.363
0.0247,4.364
0.0052,4.365
-0.0128,4.366
-0.0068,4.367
0.009,4.368
0.0142,4.369
0.0,4.37
-0.012,4.371
-0.0128,4.372
0.0105,4.373
0.0277,4.374
0.0247,4.375
0.0217,4.376
0.0127,4.377
0.003,4.378
-0.0091,4.379
-0.012,4.38
-0.0135,4.381
-0.0188,4.382
-0.0263,4.383
-0.024,4.384
-0.0165,4.385
-0.012,4.386
0.0015,4.387
0.0052,4.388
0.0015,4.389
0.0022,4.39
0.0022,4.391
0.003,4.392
0.0037,4.393
0.0,4.394
-0.0008,4.395
-0.0015,4.396
-0.003,4.397
0.0007,4.398
-0.0023,4.399
0.0,4.4
0.0097,4.401
0.0082,4.402
0.0,4.403
0.0,4.404
0.0045,4.405
-0.003,4.406
-0.0143,4.407
-0.0195,4.408
-0.0135,4.409
-0.0083,4.41
-0.0181,4.411
-0.021,4.412
-0.0075,4.413
0.0082,4.414
0.0112,4.415
0.0052,4.416
-0.003,4.417
-0.0091,4.418
-0.0105,4.419
-0.0143,4.42
-0.0128,4.421
-0.0195,4.422
-0.0203,4.423
0.0127,4.424
0.0532,4.425
0.06,4.426
0.0315,4.427
0.0195,4.428
0.012,4.429
-0.0015,4.43
0.0022,4.431
0.0007,4.432
-0.012,4.433
-0.012,4.434
-0.003,4.435
0.006,4.436
0.009,4.437
0.0082,4.438
0.0067,4.439
0.0067,4.44
0.012,4.441
0.0007,4.442
-0.0083,4.443
-0.0105,4.444
-0.0195,4.445
-0.0143,4.446
-0.0083,4.447
-0.0023,4.448
0.0052,4.449
0.0082,4.45
0.009,4.451
0.0037,4.452
0.0022,4.453
0.0052,4.454
0.006,4.455
0.0045,4.456
0.0,4.457
-0.0023,4.458
-0.0015,4.459
-0.0046,4.46
-0.003,4.461
-0.0038,4.462
-0.012,4.463
-0.0165,4.464
-0.0128,4.465
-0.0015,4.466
0.003,4.467
-0.0143,4.468
-0.0248,4.469
-0.0203,4.47
-0.0083,4.471
0.0105,4.472
0.0127,4.473
0.0052,4.474
0.0052,4.475
0.0,4.476
-0.0046,4.477
0.003,4.478
0.0075,4.479
0.0105,4.48
0.003,4.481
-0.0015,4.482
0.0,4.483
-0.0068,4.484
-0.0105,4.485
-0.0113,4.486
-0.015,4.487
-0.0143,4.488
-0.0105,4.489
-0.0091,4.49
-0.0008,4.491
0.0112,4.492
0.0105,4.493
0.0015,4.494
0.012,4.495
0.0345,4.496
0.0292,4.497
0.0195,4.498
0.0307,4.499
0.027,4.5
0.018,4.501
0.0082,4.502
-0.0038,4.503
-0.0038,4.504
0.003,4.505
0.0075,4.506
-0.0008,4.507
0.0007,4.508
-0.0015,4.509
-0.0181,4.51
-0.0293,4.511
-0.0278,4.512
-0.015,4.513
-0.0083,4.514
-0.003,4.515
-0.0038,4.516
-0.0068,4.517
-0.0023,4.518
-0.0015,4.519
-0.0038,4.52
-0.0143,4.521
-0.0218,4.522
-0.0233,4.523
-0.027,4.524
-0.0293,4.525
-0.0278,4.526
-0.0143,4.527
0.0082,4.528
0.0277,4.529
0.045,4.53
0.0645,4.531
0.0532,4.532
0.0127,4.533
0.009,4.534
0.0052,4.535
-0.0068,4.536
-0.0083,4.537
-0.0143,4.538
-0.015,4.539
-0.0181,4.54
-0.0105,4.541
-0.0091,4.542
-0.0083,4.543
-0.0015,4.544
0.012,4.545
0.03,4.546
0.0195,4.547
0.0052,4.548
-0.0008,4.549
-0.012,4.55
-0.0105,4.551
-0.0143,4.552
-0.0195,4.553
-0.024,4.554
-0.0256,4.555
-0.0105,4.556
0.003,4.557
0.0105,4.558
0.018,4.559
0.03,4.56
0.0367,4.561
0.027,4.562
0.0172,4.563
0.0082,4.564
0.0045,4.565
0.0082,4.566
0.0045,4.567
0.0075,4.568
0.0127,4.569
0.0097,4.57
-0.0008,4.571
-0.012,4.572
-0.024,4.573
-0.033,4.574
-0.024,4.575
-0.0143,4.576
-0.0128,4.577
-0.0165,4.578
-0.015,4.579
-0.0098,4.58
-0.0015,4.581
0.0007,4.582
-0.0105,4.583
-0.0203,4.584
-0.0165,4.585
-0.0083,4.586
0.0045,4.587
0.0142,4.588
0.03,4.589
0.0427,4.59
0.0142,4.591
-0.003,4.592
-0.0046,4.593
-0.0046,4.594
0.0172,4.595
0.027,4.596
0.012,4.597
-0.0075,4.598
-0.0015,4.599
0.012,4.6
0.015,4.601
0.0075,4.602
-0.0046,4.603
-0.0091,4.604
-0.0105,4.605
-0.012,4.606
-0.0053,4.607
0.0007,4.608
0.0,4.609
0.003,4.61
0.0045,4.611
-0.0023,4.612
-0.0105,4.613
-0.0128,4.614
-0.015,4.615
-0.0128,4.616
0.003,4.617
0.0052,4.618
-0.0091,4.619
-0.0038,4.62
0.0022,4.621
0.0052,4.622
0.0172,4.623
0.009,4.624
0.0015,4.625
-0.0105,4.626
-0.0128,4.627
0.003,4.628
0.0127,4.629
0.039,4.63
0.042,4.631
0.0165,4.632
-0.0053,4.633
-0.0128,4.634
-0.006,4.635
-0.0008,4.636
0.0037,4.637
-0.0023,4.638
-0.003,4.639
0.0037,4.64
0.0045,4.641
0.0045,4.642
0.0,4.643
-0.0046,4.644
-0.0083,4.645
-0.0158,4.646
-0.024,4.647
-0.021,4.648
-0.0015,4.649
0.0015,4.65
0.0105,4.651
0.0195,4.652
0.003,4.653
-0.0091,4.654
-0.0053,4.655
0.018,4.656
0.0195,4.657
0.0105,4.658
0.0105,4.659
0.009,4.66
0.0135,4.661
0.0082,4.662
-0.0023,4.663
-0.012,4.664
-0.0158,4.665
-0.0165,4.666
-0.0188,4.667
-0.0203,4.668
-0.0181,4.669
-0.0143,4.67
-0.0143,4.671
-0.0195,4.672
-0.0195,4.673
-0.0075,4.674
-0.0023,4.675
-0.0038,4.676
-0.0046,4.677
-0.0046,4.678
0.0105,4.679
0.0225,4.68
0.0165,4.681
0.009,4.682
0.0075,4.683
-0.003,4.684
-0.0091,4.685
0.0045,4.686
0.009,4.687
0.0045,4.688
0.0067,4.689
0.0007,4.69
-0.0083,4.691
