VaMe,time
-0.00041199078900374373,0.001
0.0010365598123052613,0.002
0.0017658633365595755,0.003
0.0014984859461046995,0.004
0.0005471277147337172,0.005
-0.0004932393847313157,0.006
-0.0011436139365392853,0.007
-0.0011970393783961876,0.008
-0.000661435537103939,0.009
0.0003465656824060951,0.01
0.0016797636792941616,0.011
0.0031847861761168626,0.012
0.004693102180405833,0.013
0.006024378542985246,0.014
0.0070115294309209195,0.015
0.0075262523495145525,0.016
0.007490116405814299,0.017
0.006878969774216213,0.018
0.005734687068025563,0.019
0.004168649117678783,0.02
0.002327162762654821,0.021
0.0003389627287353566,0.022
-0.0017056733238245817,0.023
-0.0037381751513141164,0.024
-0.005678111380122837,0.025
-0.007400937641096539,0.026
-0.008730337062733233,0.027
-0.009454129126550062,0.028
-0.00933916199050564,0.029
-0.00816492434288656,0.03
-0.005834854866135895,0.031
-0.0025465781973639523,0.032
0.0010974124900292677,0.033
0.004114088857745582,0.034
0.005289222505828823,0.035
0.003451265833763279,0.036
-0.002109015184399706,0.037
-0.011125903956486608,0.038
-0.02197775987683844,0.039
-0.03176300053794898,0.04
-0.03700492666642457,0.041
-0.034834933375200085,0.042
-0.024185561382590513,0.043
-0.006386092878998651,0.044
0.015162019627284643,0.045
0.03599794422185654,0.046
0.05177435777178584,0.047
0.05922546974464533,0.048
0.05688383028623693,0.049
0.04549788549237182,0.05
0.027888963143787186,0.051
0.00816378044031883,0.052
-0.009396507444235366,0.053
-0.021394880820957425,0.054
-0.02608163945520744,0.055
-0.02363724899296764,0.056
-0.015946123198463717,0.057
-0.005994849417827196,0.058
0.002965442109940642,0.059
0.00828565295570813,0.06
0.00853355851128809,0.061
0.003742172294273217,0.062
-0.004641893423350572,0.063
-0.014118712791414344,0.064
-0.02185908036768245,0.065
-0.025576602034599126,0.066
-0.024162900836463438,0.067
-0.01791793430437956,0.068
-0.008396000174301423,0.069
0.0020786833019464596,0.07
0.011078670459381271,0.071
0.016720755840006,0.072
0.018159007082876027,0.073
0.015784676308185423,0.074
0.010975856034597825,0.075
0.005477043622153265,0.076
0.0007624234159585091,0.077
-0.0023425709495438892,0.078
-0.003738973046252543,0.079
-0.0038909560914118313,0.08
-0.0035194824266449884,0.081
-0.003283322171422338,0.082
-0.003558066989745561,0.083
-0.004349998106524277,0.084
-0.005337414158453922,0.085
-0.0060242147980412225,0.086
-0.005953817241734312,0.087
-0.004898775847261273,0.088
-0.002951160607731624,0.089
-0.0004870384935423905,0.09
0.0019589925489614593,0.091
0.003850899031377159,0.092
0.0047944025697868944,0.093
0.004638330342601998,0.094
0.0035304225629872064,0.095
0.0019184733244883734,0.096
0.00044445381080057054,0.097
-0.00029318102368514754,0.098
-9.050292502336971e-07,0.099
0.0012069314410608236,0.1
0.0029248209277496625,0.101
0.004656071861262352,0.102
0.0059476156265853165,0.103
0.006464353981494278,0.104
0.006056713966671296,0.105
0.004809329828197556,0.106
0.003030012027609664,0.107
0.0011582773291915435,0.108
-0.00037998520332519474,0.109
-0.0012964479465790843,0.11
-0.0014918288589114296,0.111
-0.001053153182911216,0.112
-0.00022291348993578572,0.113
0.0006656687936126228,0.114
0.00128904853363923,0.115
0.0014397352247433124,0.116
0.0010968927715938985,0.117
0.00042851662681430536,0.118
-0.00028184113541396776,0.119
-0.0007489927080800244,0.12
-0.0007976535276565379,0.121
-0.00045177896132575913,0.122
1.4751683488420573e-05,0.123
9.415819788695888e-05,0.124
-0.0008475400581690725,0.125
-0.0033646210664626175,0.126
-0.0076580622527806785,0.127
-0.013335696742112397,0.128
-0.019365430101964322,0.129
-0.024324782731180068,0.13
-0.026844840752193767,0.131
-0.025995323097381198,0.132
-0.021485104262239135,0.133
-0.01372097559652559,0.134
-0.003720887082769071,0.135
0.007135818943269687,0.136
0.017424101931779356,0.137
0.025918587977868876,0.138
0.03169431024884267,0.139
0.034149693246239884,0.14
0.03309713243865919,0.141
0.028893794703654326,0.142
0.02242173282869003,0.143
0.014866833459012964,0.144
0.007430310224517188,0.145
0.0010860632470328525,0.146
-0.003568205361702809,0.147
-0.0063573554611666885,0.148
-0.007495915677674732,0.149
-0.007477705496949406,0.15
-0.006900303227525039,0.151
-0.006297449673385162,0.152
-0.006037995380498644,0.153
-0.006276231872909326,0.154
-0.006935460826545634,0.155
-0.007755789911526451,0.156
-0.008416216372620059,0.157
-0.008676921936513654,0.158
-0.008470468013629733,0.159
-0.007891237350161553,0.16
-0.007077974903536557,0.161
-0.006077027137153769,0.162
-0.004825542503994336,0.163
-0.00327465931133741,0.164
-0.001512367336374567,0.165
0.0002332850157390256,0.166
0.0016863707411106212,0.167
0.0026197674307313354,0.168
0.002916834326264205,0.169
0.0026125924087606143,0.17
0.001901463171770097,0.171
0.001062409885715219,0.172
0.0003346586916277557,0.173
-0.00012945593918058196,0.174
-0.00021307919597402748,0.175
0.00019255425979726828,0.176
0.0011366405668981519,0.177
0.0025451545733832697,0.178
0.004198277649660092,0.179
0.00575489829122623,0.18
0.006823353007949362,0.181
0.0070725480949453325,0.182
0.006337457555233496,0.183
0.004640122578919268,0.184
0.0021331782103567315,0.185
-0.0009390887446426759,0.186
-0.004235034044186895,0.187
-0.007317288085760627,0.188
-0.00970760763659663,0.189
-0.011010017694814514,0.19
-0.011045196835633141,0.191
-0.009884309306766256,0.192
-0.007763032920376117,0.193
-0.004965763728281619,0.194
-0.001747544736507503,0.195
0.001671505603919268,0.196
0.005044005961246964,0.197
0.00805838104149258,0.198
0.010384755290603648,0.199
0.011744550866529025,0.2
0.011975700064774041,0.201
0.01112765004535239,0.202
0.009520452791128968,0.203
0.007643111419909946,0.204
0.0059250006748359455,0.205
0.004564220118041066,0.206
0.0035291198143055647,0.207
0.0026748787385506585,0.208
0.0018470179870094228,0.209
0.0009246086856557434,0.21
-0.00016176616091131155,0.211
-0.0014134189710297543,0.212
-0.0027557288429310963,0.213
-0.004049380422964051,0.214
-0.005114813199618105,0.215
-0.005751928593103649,0.216
-0.005757088486745762,0.217
-0.004970837663190535,0.218
-0.0033843538744902655,0.219
-0.0012632357917185684,0.22
0.0008010743931738515,0.221
0.0019468155163833093,0.222
0.0011842015375924356,0.223
-0.002379395099279432,0.224
-0.00923980477874831,0.225
-0.019180725301136417,0.226
-0.03101651024762,0.227
-0.042469854199301195,0.228
-0.05034580616705337,0.229
-0.05123227941409818,0.23
-0.04270463503844167,0.231
-0.024492735838894695,0.232
0.0010710982517242995,0.233
0.029568137537999646,0.234
0.055705661587534136,0.235
0.07467784282692555,0.236
0.08322677954009748,0.237
0.0802864512210816,0.238
0.06714025517853958,0.239
0.04696329245917715,0.24
0.023886103049179333,0.241
0.0019271595575985768,0.242
-0.01589498276085562,0.243
-0.027999334650502236,0.244
-0.034169859931627036,0.245
-0.035190065565962346,0.246
-0.03240449593627409,0.247
-0.02732134330218067,0.248
-0.02130913707014917,0.249
-0.01540426898883455,0.25
-0.010246970988967622,0.251
-0.006145145234629603,0.252
-0.003205495223618733,0.253
-0.0014331745078868415,0.254
-0.0007548364073340489,0.255
-0.000998792692476451,0.256
-0.0018791378770512768,0.257
-0.003018843153709051,0.258
-0.004027631880023374,0.259
-0.004601039673050311,0.26
-0.004576671701122434,0.261
-0.0039281853553969955,0.262
-0.0027319246716307408,0.263
-0.0011319401365870896,0.264
0.0006942675210105773,0.265
0.002568006472450709,0.266
0.004337348545341441,0.267
0.005892099788400703,0.268
0.007149890150933662,0.269
0.00801990493291661,0.27
0.008376783029196373,0.271
0.008060278133515198,0.272
0.00690672730547497,0.273
0.004828818194227322,0.274
0.0019299248100029243,0.275
-0.0014120434681151675,0.276
-0.004572242502664178,0.277
-0.006841247438813642,0.278
-0.007650059116644002,0.279
-0.006753999637069814,0.28
-0.004312951657848114,0.281
-0.0008485771083263985,0.282
0.002898810433195842,0.283
0.006145173732779367,0.284
0.008228907510736601,0.285
0.008760423781199827,0.286
0.0076966411053876645,0.287
0.005306607841207759,0.288
0.002084860399433958,0.289
-0.0013482590314483093,0.29
-0.0043741202802012125,0.291
-0.006515598546963307,0.292
-0.007524372442492898,0.293
-0.007392715169426644,0.294
-0.0063189949572983566,0.295
-0.004632613595986895,0.296
-0.0026881870906809166,0.297
-0.0007807196081324221,0.298
0.0008816746366976608,0.299
0.002166190818188139,0.3
0.0030009270996076967,0.301
0.0033699360602188998,0.302
0.003315628107660014,0.303
0.0029403203390572907,0.304
0.002390238331800895,0.305
0.0018221447989816974,0.306
0.0013775361153685504,0.307
0.0011672886598101486,0.308
0.0012428236913667125,0.309
0.0015648097777413118,0.31
0.0020064117925394833,0.311
0.0023945859298385485,0.312
0.002569370607246141,0.313
0.002442890135666129,0.314
0.002028268124140557,0.315
0.0014110298304468773,0.316
0.0006910045860707327,0.317
-4.309793935168621e-05,0.318
-0.0006993676470952515,0.319
-0.0011721834783007094,0.32
-0.001364178159512755,0.321
-0.0012320890197812405,0.322
-0.0008183428087333994,0.323
-0.00024260808001341815,0.324
0.0003234663303852713,0.325
0.0006558583793335289,0.326
0.0004590743247922084,0.327
-0.0006091837811390287,0.328
-0.002838044629191192,0.329
-0.006329189717026892,0.33
-0.010887747064815708,0.331
-0.015976740723098785,0.332
-0.02075186657531276,0.333
-0.024170775304558297,0.334
-0.025158162205722718,0.335
-0.02280664923675378,0.336
-0.016599957356389538,0.337
-0.006653769334486997,0.338
0.006079043635167273,0.339
0.01978283320835352,0.34
0.0320640837988807,0.341
0.0405198201336796,0.342
0.043386408828684275,0.343
0.04003056118993298,0.344
0.031153396245792532,0.345
0.018658604724679603,0.346
0.005194958720633618,0.347
-0.006510563001292371,0.348
-0.014372362398551882,0.349
-0.017509204348033647,0.35
-0.016381159895092704,0.351
-0.012435125456642347,0.352
-0.007500915837663327,0.353
-0.0032260422039573624,0.354
-0.000693517147188878,0.355
-0.00025947468865955217,0.356
-0.0016093140410499876,0.357
-0.003983464788573013,0.358
-0.006467392558581011,0.359
-0.008254329616346305,0.36
-0.0088378516941671,0.361
-0.008104036403371354,0.362
-0.00630632116960499,0.363
-0.0039380936990637,0.364
-0.0015510223572253194,0.365
0.0004139175968002705,0.366
0.0017240962145093574,0.367
0.002365923582687407,0.368
0.002500143556263248,0.369
0.002379043537855244,0.37
0.0022347154030720783,0.371
0.0021849516823082777,0.372
0.002204426537407039,0.373
0.0021791778281839754,0.374
0.002010443788322106,0.375
0.0016880355175162038,0.376
0.0012788754524157872,0.377
0.000859468248800774,0.378
0.000472565418911777,0.379
0.00013022395655729066,0.38
-0.0001756956695061517,0.381
-0.00047630049482676743,0.382
-0.0008340892020842742,0.383
-0.001329680538180396,0.384
-0.002007913997969928,0.385
-0.002806340720256378,0.386
-0.0035299427601560808,0.387
-0.003928287987373185,0.388
-0.0038313890011807215,0.389
-0.0032289781432202694,0.39
-0.0022492156300532697,0.391
-0.0010837204104921954,0.392
8.115257554818531e-05,0.393
0.0010942084884396923,0.394
0.001852042268971495,0.395
0.002328258472771661,0.396
0.002596836178707829,0.397
0.0028104434268836466,0.398
0.0031249870223895937,0.399
0.0036084482338529225,0.4
0.004207530747259922,0.401
0.004792836427159066,0.402
0.005232430264585013,0.403
0.005440070067049787,0.404
0.005371401180135218,0.405
0.004991570343924728,0.406
0.004271602017866803,0.407
0.003230033134545135,0.408
0.0019700412034901705,0.409
0.0006547151712591152,0.41
-0.0005712568743393286,0.411
-0.0016419902371199184,0.412
-0.0025605028771307553,0.413
-0.003343995364772731,0.414
-0.003985268402471135,0.415
-0.00445384411849766,0.416
-0.004717427607865363,0.417
-0.004753904323748608,0.418
-0.004548912312786256,0.419
-0.004098831804771294,0.42
-0.0034250849768391305,0.421
-0.0025827197397029827,0.422
-0.0016395021612783428,0.423
-0.0006390042885386552,0.424
0.0003995501584045217,0.425
0.0014357555616921148,0.426
0.002360956977485484,0.427
0.002995223158503097,0.428
0.0031450897217040275,0.429
0.0026807711450103607,0.43
0.001577186026211375,0.431
-9.27839582365881e-05,0.432
-0.002203126394316017,0.433
-0.004626640606491943,0.434
-0.007250594910887622,0.435
-0.009957369178811579,0.436
-0.012577301902695357,0.437
-0.014808737010932957,0.438
-0.016165228657588245,0.439
-0.01602941416598011,0.44
-0.013803214146092884,0.441
-0.009087306381263144,0.442
-0.001868300604132328,0.443
0.007306765656978589,0.444
0.017285775614313294,0.445
0.026495329100159466,0.446
0.03327734552759481,0.447
0.03624905321948663,0.448
0.034670742488780555,0.449
0.02875631869928019,0.45
0.019698301370708996,0.451
0.009302616016740107,0.452
-0.0005822819883910409,0.453
-0.008557680551472971,0.454
-0.013913319638801857,0.455
-0.016609980788249136,0.456
-0.017098019261058476,0.457
-0.01606962436409826,0.458
-0.014229854873931639,0.459
-0.012138768913478046,0.46
-0.01013364924319569,0.461
-0.008327056406614537,0.462
-0.006678166117083881,0.463
-0.0051108984999441165,0.464
-0.0036114375067832502,0.465
-0.0022490818719911893,0.466
-0.0011289819562184486,0.467
-0.0003272200227668431,0.468
0.00013574209910247628,0.469
0.00026747299504530645,0.47
8.222295209210797e-05,0.471
-0.00035892887730602227,0.472
-0.0008971643365885682,0.473
-0.0012990246819009892,0.474
-0.0013449511755723909,0.475
-0.0009129586138537794,0.476
-1.7702031247809896e-05,0.477
0.0011989040528099198,0.478
0.002519265447728963,0.479
0.0037205936633897515,0.48
0.004631619180780772,0.481
0.005165434589160732,0.482
0.005326880789101694,0.483
0.005191568415860067,0.484
0.004867968782630249,0.485
0.004453111017979359,0.486
0.003992105148943818,0.487
0.003463689006880894,0.488
0.002802725720531824,0.489
0.0019312765570325726,0.49
0.0007770645015787207,0.491
-0.0006911647538905927,0.492
-0.0024036551860933076,0.493
-0.004153695155840194,0.494
-0.00563545873648118,0.495
-0.0065524791941446855,0.496
-0.006726552577977101,0.497
-0.00614283743581929,0.498
-0.0049330777160173185,0.499
-0.003324891048732943,0.5
-0.0015693566840276631,0.501
0.00013176217758775478,0.502
0.0016582464043330594,0.503
0.0029506644741990416,0.504
0.003970895569043951,0.505
0.004684619703829342,0.506
0.005068145265177454,0.507
0.005114370671193466,0.508
0.004835198044070201,0.509
0.004263970086206419,0.51
0.00343959598400617,0.511
0.0023838711050483373,0.512
0.0011081502253487458,0.513
-0.00036083739193093625,0.514
-0.0019638202783285753,0.515
-0.0035925634734824243,0.516
-0.0050688566125152565,0.517
-0.006146624241279028,0.518
-0.0065641383803670735,0.519
-0.0061384863680783944,0.52
-0.0048529299302985185,0.521
-0.0028777400518773784,0.522
-0.0005198724118656191,0.523
0.001846894250774045,0.524
0.0038426912552324693,0.525
0.005150377565123824,0.526
0.005595405984977181,0.527
0.005186062372862396,0.528
0.004071108145576777,0.529
0.0024655597687957866,0.53
0.0006172009417361164,0.531
-0.001195330229867577,0.532
-0.002679310567088088,0.533
-0.0035841514790863286,0.534
-0.00377552901099369,0.535
-0.003272721068019387,0.536
-0.0022316564407822183,0.537
-0.0008950384892076972,0.538
0.0004729692839758033,0.539
0.0016434822687837575,0.54
0.002453052591179297,0.541
0.0028125473992679324,0.542
0.0026907665913475454,0.543
0.0020795133552240315,0.544
0.0009848757813448591,0.545
-0.0005372248737928532,0.546
-0.002338423939863758,0.547
-0.004165743500470699,0.548
-0.005697534103264424,0.549
-0.006623482595712668,0.55
-0.006723272096265204,0.551
-0.005908628402745408,0.552
-0.004242915415410732,0.553
-0.0019408218888274987,0.554
0.00066446918094277,0.555
0.0031737197684273853,0.556
0.005180324446879678,0.557
0.006340181627028697,0.558
0.0064603794292780285,0.559
0.0055903574863053924,0.56
0.0040649649393551725,0.561
0.0024363521886611615,0.562
0.0012744499827928202,0.563
0.0009371351250858981,0.564
0.0014568590821740176,0.565
0.0025697086074154604,0.566
0.00382523813053045,0.567
0.0047329860313344765,0.568
0.004916065607164059,0.569
0.004219693299111049,0.57
0.00272297877783584,0.571
0.0006702258091214471,0.572
-0.0016265655866811914,0.573
-0.003877537651872034,0.574
-0.005850396537623536,0.575
-0.007345822335806635,0.576
-0.00819034610047489,0.577
-0.008288658861958708,0.578
-0.007672167689161629,0.579
-0.006481985915930449,0.58
-0.00490429527734547,0.581
-0.003114072675256971,0.582
-0.001259891425366272,0.583
0.0005257401389187447,0.584
0.0021307387444534772,0.585
0.003482225839425499,0.586
0.004533627015564267,0.587
0.005218780693075883,0.588
0.005426629261976096,0.589
0.005033541020298482,0.59
0.00398487000614475,0.591
0.0023743441610769188,0.592
0.0004716326847243337,0.593
-0.0013157006861510066,0.594
-0.002543542763580325,0.595
-0.002883046540208152,0.596
-0.002264273055554416,0.597
-0.0009210198402562538,0.598
0.0006947655168720819,0.599
0.0020782576069758767,0.6
0.0028400402891515424,0.601
0.0028245889227231594,0.602
0.002143763085981327,0.603
0.0010920266465550778,0.604
-1.3956352614894613e-05,0.605
-0.000956273588903882,0.606
-0.0016404282801693647,0.607
-0.0020605704875249374,0.608
-0.0022608439135554104,0.609
-0.0023040820419063706,0.61
-0.0022369641297281407,0.611
-0.002065179884035059,0.612
-0.0017618547608230137,0.613
-0.0013123481144683318,0.614
-0.0007571682826376932,0.615
-0.0001828972972144336,0.616
0.0003289687872856139,0.617
0.0007392411545050579,0.618
0.0010490946516262586,0.619
0.001279195369647493,0.62
0.0014489888136874816,0.621
0.0015584994940478554,0.622
0.0015803750666050786,0.623
0.0014739238343776054,0.624
0.0012129504424199069,0.625
0.0008067832381502935,0.626
0.00030679868229863995,0.627
-0.0002076292159340062,0.628
-0.0006615820596038646,0.629
-0.0010138165828092144,0.63
-0.0012665091896801365,0.631
-0.0014451966451698094,0.632
-0.001558227225262881,0.633
-0.001581907865671235,0.634
-0.0014962590050304628,0.635
-0.0013280736258994325,0.636
-0.0011458561827537106,0.637
-0.0010085949046390072,0.638
-0.0009134756127624115,0.639
-0.0007784189413955815,0.64
-0.0004685064588515099,0.641
0.00013406511548641635,0.642
0.001041867770061847,0.643
0.002121235402143695,0.644
0.003127335513310513,0.645
0.0037788157439287186,0.646
0.003852388456122782,0.647
0.0032894304802843534,0.648
0.0022540068853119793,0.649
0.0010797463070498518,0.65
0.0001126967760927342,0.651
-0.0004567223901397979,0.652
-0.0006508025914747743,0.653
-0.0006417728842057244,0.654
-0.0006552743243291965,0.655
-0.0008759182198092623,0.656
-0.0013609847652205004,0.657
-0.0020027912434054385,0.658
-0.0025695434530866807,0.659
-0.0028055778624942376,0.66
-0.0025365628456144205,0.661
-0.0017271971688115546,0.662
-0.0004872665079690416,0.663
0.0009442712110686469,0.664
0.0022346982274899533,0.665
0.0030376915572704324,0.666
0.003100253639899982,0.667
0.0023355339347986013,0.668
0.0008502420747950981,0.669
-0.0010585575859174818,0.67
-0.0029610047154677794,0.671
-0.004408211265891088,0.672
-0.0050563136248125955,0.673
-0.004764763302802855,0.674
-0.003640099598278968,0.675
-0.001991625184956252,0.676
-0.00021478344570237206,0.677
0.0013396720411683368,0.678
0.0024569212294108193,0.679
0.0030817058517101283,0.68
0.003289878062581785,0.681
0.0032289406705066723,0.682
0.003036345439273235,0.683
0.002761290369412143,0.684
0.002338116414372016,0.685
0.0016422211941586455,0.686
0.0005879975272203364,0.687
-0.0007966956928255356,0.688
-0.0023386627677753867,0.689
-0.0037327601895784128,0.69
-0.004615077598792397,0.691
-0.004684015706057936,0.692
-0.003815874632809849,0.693
-0.0021217419021796946,0.694
7.613964621841721e-05,0.695
0.0023293843959114316,0.696
0.004168286977337542,0.697
0.005209456822024265,0.698
0.00526227735201241,0.699
0.004395127703559045,0.7
0.0029098701099043575,0.701
0.001221577514150017,0.702
-0.00028750660885397113,0.703
-0.001351420592773498,0.704
-0.0018346223022501704,0.705
-0.0017394306139700679,0.706
-0.0012170515966962445,0.707
-0.0005281619253725433,0.708
6.261973864282977e-05,0.709
0.0003989330582122259,0.71
0.00047244713975028467,0.711
0.0003616577646735241,0.712
0.0001314897649762644,0.713
-0.00021237053247788668,0.714
-0.0006880845965953647,0.715
-0.0012654206722362924,0.716
-0.0018257514233321187,0.717
-0.0022002875173643376,0.718
-0.0022543913971352506,0.719
-0.001950830966030355,0.72
-0.0013721787474365325,0.721
-0.0006960803643940095,0.722
-0.00011683341934794627,0.723
0.00023837360572268252,0.724
0.0003396846175684327,0.725
0.0002290276814223338,0.726
-2.4011293104397467e-05,0.727
-0.000346714273506495,0.728
-0.0006503355999637658,0.729
-0.000805323505869302,0.73
-0.0006702292525030059,0.731
-0.00017901514181426398,0.732
0.0006020750609684331,0.733
0.0015013893729484056,0.734
0.00231924815762523,0.735
0.0029041867812574533,0.736
0.0031939930293492366,0.737
0.003196175185127152,0.738
0.002922917559645597,0.739
0.00235002717501804,0.74
0.0014321504557885168,0.741
0.00014139006634190086,0.742
-0.0014976519938520257,0.743
-0.003380410941086624,0.744
-0.005309101724937023,0.745
-0.007000835457865949,0.746
-0.00811694773567827,0.747
-0.00832618448090233,0.748
-0.007405430789725462,0.749
-0.0053329533480362176,0.75
-0.0023239046933231705,0.751
0.001196668885055796,0.752
0.004667730997969164,0.753
0.007509158666098359,0.754
0.009262520998588701,0.755
0.009704535585021826,0.756
0.008891543530608897,0.757
0.007124165047814494,0.758
0.0048353960519713635,0.759
0.002438838964339279,0.76
0.00022585117236833445,0.761
-0.001633062522579964,0.762
-0.0030319853508975836,0.763
-0.0038951062666419253,0.764
-0.0041856380479713354,0.765
-0.003929354411214367,0.766
-0.0032191814156678836,0.767
-0.002203519640321958,0.768
-0.0010693792674455623,0.769
-1.0221231943057625e-05,0.77
0.000820065336108108,0.771
0.0013407921052248177,0.772
0.0015438249969404881,0.773
0.0014683427512310007,0.774
0.001177467562682246,0.775
0.0007470489550033105,0.776
0.0002616251300032842,0.777
-0.0001942190557991525,0.778
-0.0005539316490258718,0.779
-0.0007812135277088591,0.78
-0.000866883034901362,0.781
-0.000824511227473134,0.782
-0.0006908714819118802,0.783
-0.0005154273294521454,0.784
-0.0003414031515879319,0.785
-0.00019821734987686502,0.786
-0.00010861440837560507,0.787
-0.0001075503623152874,0.788
-0.0002562441487394282,0.789
-0.0006213966359670637,0.79
-0.0012184332217457013,0.791
-0.001958917177289848,0.792
-0.0026572514741209467,0.793
-0.003107485457115417,0.794
-0.003169909279668281,0.795
-0.0028093054307302065,0.796
-0.002096170848070315,0.797
-0.0011916535789816458,0.798
-0.0002889372260054076,0.799
0.0004759399376649063,0.8
0.0010612607632255128,0.801
0.0014834635326900327,0.802
0.001784738400711607,0.803
0.0020393731165628745,0.804
0.0023396709408212224,0.805
0.002739262645809407,0.806
0.0032054422226070814,0.807
0.00361930263115038,0.808
0.0038198291205074533,0.809
0.0036621335282365133,0.81
0.0030720953923747537,0.811
0.002087076358197399,0.812
0.0008474124698315902,0.813
-0.000459236623047727,0.814
-0.0016421286767404595,0.815
-0.0025345567527974263,0.816
-0.003035643262407051,0.817
-0.0031368044040640626,0.818
-0.0028993244390762294,0.819
-0.0024047640200944064,0.82
-0.0017185144177681033,0.821
-0.0008928011452914063,0.822
1.0983698360287134e-06,0.823
0.0008463921668193006,0.824
0.001488481016421564,0.825
0.0017755084856751805,0.826
0.001616383563301021,0.827
0.0010393699747510599,0.828
0.00020370561861998736,0.829
-0.0006597862696357276,0.83
-0.001337518049981223,0.831
-0.001700274228061948,0.832
-0.0017163852075092944,0.833
-0.0014228560188485246,0.834
-0.0008986831851419179,0.835
-0.0002474115414071818,0.836
0.0004228514453526352,0.837
0.0010112401445109885,0.838
0.001433888989241287,0.839
0.0016421053641637305,0.84
0.001624370193162231,0.841
0.0013869493316040972,0.842
0.0009422337654647281,0.843
0.0003136570186621886,0.844
-0.0004526408622261815,0.845
-0.0012738441893902087,0.846
-0.0020279163578245255,0.847
-0.002577844940770779,0.848
-0.0028088586577943294,0.849
-0.0026649362823704,0.85
-0.002179781533451184,0.851
-0.0014729719905406742,0.852
-0.0006992488972357114,0.853
1.2520938092743773e-05,0.854
0.0005882504845487447,0.855
0.0009938100544593586,0.856
0.0012098777787707684,0.857
0.0012341380618486962,0.858
0.0010964799678327257,0.859
0.0008562105525649401,0.86
0.0005869020339881448,0.861
0.00037035161567189003,0.862
0.0002920536310269316,0.863
0.00041362082832076247,0.864
0.0007356753195478563,0.865
0.0011887959139270988,0.866
0.001662859105334454,0.867
0.002054582887617903,0.868
0.0023029470582951687,0.869
0.0023937980629292945,0.87
0.002334924444624858,0.871
0.0021247172883240295,0.872
0.0017373680206907442,0.873
0.0011288667227528964,0.874
0.0002695386486880749,0.875
-0.0008129739386637445,0.876
-0.002022474603042089,0.877
-0.0032113018352432354,0.878
-0.004198001063214246,0.879
-0.004804417280822957,0.88
-0.0049179995214337704,0.881
-0.00453428390020358,0.882
-0.0037530929250276547,0.883
-0.002731542208626183,0.884
-0.0016168595773800125,0.885
-0.0005070362409435062,0.886
0.000541160526134383,0.887
0.0014875938891409084,0.888
0.002292859447515701,0.889
0.002913447940000896,0.89
0.003311261346463078,0.891
0.0034626412855459114,0.892
0.0033512994825842905,0.893
0.0029705575496229673,0.894
0.002350232519509706,0.895
0.0015727374267329147,0.896
0.0007437497993767402,0.897
-5.8163671738932875e-05,0.898
-0.0007969607394448314,0.899
-0.0014476932041766063,0.9
-0.0019595932154741853,0.901
-0.0022602587032175808,0.902
-0.002297268325688176,0.903
-0.0020656846293335366,0.904
-0.0016027097661172904,0.905
-0.0009773903728927515,0.906
-0.00028371527938319754,0.907
0.000373988620624614,0.908
0.0008927446229535926,0.909
0.0011733684763064662,0.91
0.0011427534320740517,0.911
0.0008067311324802659,0.912
0.00028006596152185104,0.913
-0.0002552669008752759,0.914
-0.0006239665962372461,0.915
-0.0007021037511118869,0.916
-0.00044175156622841284,0.917
0.0001028586979281532,0.918
0.0007685980936647486,0.919
0.0013335356444831468,0.92
0.0016235224702734108,0.921
0.0015995777193055104,0.922
0.0013472942095448838,0.923
0.0009790469213534906,0.924
0.0005470965590228708,0.925
4.654839477964196e-05,0.926
-0.0005251703447087294,0.927
-0.0011347199626036782,0.928
-0.001726406150690552,0.929
-0.002236356591992515,0.93
-0.002590994884187058,0.931
-0.002719716396681866,0.932
-0.002573467280263019,0.933
-0.002129368214945893,0.934
-0.0013939270968992726,0.935
-0.0004170487177906916,0.936
0.0006943912944121161,0.937
0.0017906478694167886,0.938
0.002721436288222013,0.939
0.003373595004630631,0.94
0.0036811240493262974,0.941
0.0036086068456206728,0.942
0.003133855624665607,0.943
0.0022638267347276112,0.944
0.0010688364460210208,0.945
-0.0003092252877530121,0.946
-0.001676648990408896,0.947
-0.002822708218580881,0.948
-0.0035713396490577847,0.949
-0.0038386051760829773,0.95
-0.0036594859372631947,0.951
-0.0031519512499597127,0.952
-0.0024522101204488738,0.953
-0.0016799899306448437,0.954
-0.0009250622064229842,0.955
-0.00022764444157913935,0.956
0.00042284410318479195,0.957
0.0010523686495096053,0.958
0.0016639782652788158,0.959
0.0022225411591648226,0.96
0.0026551290674075214,0.961
0.002866530513648862,0.962
0.0027769052795734266,0.963
0.0023750430684004713,0.964
0.0017616296552267082,0.965
0.001134085633443732,0.966
0.0006901115965872941,0.967
0.0005148688140660854,0.968
0.0005368823651453033,0.969
0.0005648350020148426,0.97
0.0003731606840270752,0.971
-0.0001989529928000997,0.972
-0.0011762397695744408,0.973
-0.0024408312470609117,0.974
-0.0037847491594873908,0.975
-0.004963694122066868,0.976
-0.005724583259697055,0.977
-0.0058422627315845846,0.978
-0.005186573138560077,0.979
-0.0037905634898245406,0.98
-0.0018654551789986501,0.981
0.0002598804692259823,0.982
0.002240355805651702,0.983
0.003811560041217881,0.984
0.004840196052474857,0.985
0.0053162976832613375,0.986
0.005325915363919604,0.987
0.005021250139081821,0.988
0.0045640378528649765,0.989
0.004050938308963251,0.99
0.0034799185804059605,0.991
0.0027858408519776173,0.992
0.001907153155067256,0.993
0.0008370034704260654,0.994
-0.00036113168230400057,0.995
-0.0015640955031707407,0.996
-0.0026174409603724356,0.997
-0.0033875819081020716,0.998
-0.0038159795152020995,0.999
-0.003939518248181064,1.0
-0.0038575864684312006,1.001
-0.003658290263891751,1.002
-0.003368011611920005,1.003
-0.0029734018921319764,1.004
-0.0024779151769423035,1.005
-0.0019183633066630768,1.006
-0.001330396378659313,1.007
-0.0007167218366901731,1.008
-5.4214865882683716e-05,1.009
0.0006753581642324875,1.01
0.0014586593959265597,1.011
0.002231941627244381,1.012
0.002881800366556735,1.013
0.00328443814372622,1.014
0.0033581899637442642,1.015
0.003089397512484015,1.016
0.0025248362312292934,1.017
0.001752647523661501,1.018
0.000886670396875122,1.019
4.777434974856536e-05,1.02
-0.0006541559682720371,1.021
-0.001133543338257059,1.022
-0.0013453893735256041,1.023
-0.0012957736606255897,1.024
-0.001035577521485036,1.025
-0.0006479968431794022,1.026
-0.00024098963412407182,1.027
6.41503800264505e-05,1.028
0.0001665185449235831,1.029
3.1484030895872515e-05,1.03
-0.00029455455008505914,1.031
-0.0007122859864206612,1.032
-0.0011066149024068841,1.033
-0.0013760754296822876,1.034
-0.0014605647489973376,1.035
-0.00135506955973879,1.036
-0.0010963409765315543,1.037
-0.0007380109918627902,1.038
-0.0003302263651622807,1.039
9.396542709487037e-05,1.04
0.0005152353420985001,1.041
0.0009085198883044333,1.042
0.0012404966501241706,1.043
0.001491290310861483,1.044
0.0016598092319642548,1.045
0.0017413942423653316,1.046
0.0017093130331763023,1.047
0.0015131081296695075,1.048
0.0010973098447360197,1.049
0.000447552316973397,1.05
-0.0003643564896465112,1.051
-0.0011766248403365942,1.052
-0.001789848198330069,1.053
-0.0020627182198558313,1.054
-0.0019860112921947725,1.055
-0.0016666334419104959,1.056
-0.0012476289891642566,1.057
-0.0008489987480699824,1.058
-0.0005547490997133275,1.059
-0.0004028822496805155,1.06
-0.0003587819898048708,1.061
-0.00031141369948367586,1.062
-0.00013366101978158108,1.063
0.00023004577969377624,1.064
0.0007317310372380937,1.065
0.0012529945553953912,1.066
0.0016557607817566048,1.067
0.0018279315891379648,1.068
0.0017185644372155707,1.069
0.0013517390147918253,1.07
0.0008147620207469136,1.071
0.0002284990250719861,1.072
-0.00029153549930325667,1.073
-0.0006685466615800972,1.074
-0.000878025161081922,1.075
-0.0009433848805621979,1.076
-0.0009217808315623279,1.077
-0.0008828381908836795,1.078
-0.0008810081775950143,1.079
-0.0009306636099336861,1.08
-0.000993282372052724,1.081
-0.0009856173655106854,1.082
-0.0008186974251580104,1.083
-0.000451752301315724,1.084
7.014089252383284e-05,1.085
0.0006181257164901639,1.086
0.001040402715611508,1.087
0.001250983906156308,1.088
0.0012652122590478283,1.089
0.001157792895600852,1.09
0.000995959872647946,1.091
0.0007988508715477653,1.092
0.0005409071070237566,1.093
0.00018939468356197046,1.094
-0.00024884640464447076,1.095
-0.0006975757796411554,1.096
-0.0010258727772918723,1.097
-0.0011102247553594292,1.098
-0.0009002769367152153,1.099
-0.000448281140589306,1.1
0.00010329513329338739,1.101
0.0005740715396557194,1.102
0.0008186501614064147,1.103
0.0007738594671346115,1.104
0.0004600251153106283,1.105
-3.960408805124483e-05,1.106
-0.0006029241648182923,1.107
-0.0010996164458273257,1.108
-0.0014197089911633363,1.109
-0.001487301583076094,1.11
-0.0012713034869467046,1.111
-0.0007997879579094654,1.112
-0.0001592118377199668,1.113
0.0005314477608645547,1.114
0.0011562693716489568,1.115
0.001624675541848832,1.116
0.0018734202048114404,1.117
0.0018622077975723257,1.118
0.001573858079673916,1.119
0.0010194760372562932,1.12
0.0002572086438619011,1.121
-0.0005873257401023375,1.122
-0.0013382434367771535,1.123
-0.0018263728560735499,1.124
-0.0019480161943958305,1.125
-0.00169433033261808,1.126
-0.0011470518285324484,1.127
-0.0004518460265038391,1.128
0.0002237131141264861,1.129
0.0007327250420394526,1.13
0.0009769927060513778,1.131
0.0009218713580673914,1.132
0.0005981493233967809,1.133
9.57565389504683e-05,1.134
-0.0004496020799275049,1.135
-0.0008951137092647482,1.136
-0.00114537737460817,1.137
-0.0011837627641178886,1.138
-0.0010594208334527594,1.139
-0.0008404521291079224,1.14
-0.0005731490726527252,1.141
-0.000271537495168587,1.142
7.183592182677853e-05,1.143
0.00046112594086488725,1.144
0.0008761278792340936,1.145
0.001274418764828201,1.146
0.0016003475825289747,1.147
0.0017849387837298738,1.148
0.001758857925456965,1.149
0.0014906275838673976,1.15
0.0010168845636771956,1.151
0.00043124552738361646,1.152
-0.00016159998483514983,1.153
-0.0006864156759299864,1.154
-0.0011059103520351396,1.155
-0.001414634000899635,1.156
-0.0016301327393932732,1.157
-0.0017667933834062668,1.158
-0.0018057767686400167,1.159
-0.001696879482940675,1.16
-0.0013876840393281871,1.161
-0.0008528765031540911,1.162
-0.00011855194592418334,1.163
0.000722804461113416,1.164
0.001512947126172528,1.165
0.0020510303659248682,1.166
0.0021602442108989662,1.167
0.0017792321902810849,1.168
0.0010010812437851544,1.169
3.0250176302295466e-05,1.17
-0.0008873310039958534,1.171
-0.001525541738912189,1.172
-0.001735212220338404,1.173
-0.0014749091285658998,1.174
-0.0008004082703146008,1.175
0.0001583680701288013,1.176
0.0012180086899162969,1.177
0.0021637780316951273,1.178
0.002774143649727413,1.179
0.002870776583449303,1.18
0.0023877822494085326,1.181
0.001405317581149126,1.182
0.00013026459141569287,1.183
-0.0011632857061212472,1.184
-0.002217205336413358,1.185
-0.002857060309016865,1.186
-0.0030223302660764145,1.187
-0.0027648611667646502,1.188
-0.0022115763281652066,1.189
-0.0015005674951355022,1.19
-0.0007389403526905382,1.191
-3.278433668832715e-06,1.192
0.0006479426492297756,1.193
0.0011619560998209365,1.194
0.0014753654634545941,1.195
0.0015167376480932167,1.196
0.001248374724889214,1.197
0.0007130103564740696,1.198
2.622881293017193e-05,1.199
-0.0006764578977108292,1.2
-0.0012740165244088427,1.201
-0.0016621324636726077,1.202
-0.0017605277820444245,1.203
-0.0015341043623606672,1.204
-0.0010095844478019045,1.205
-0.00028258325510083357,1.206
0.0004924506916150887,1.207
0.0011496594919927702,1.208
0.0015771099513368226,1.209
0.0017377381304797214,1.21
0.0016428596189817515,1.211
0.0013338067984797945,1.212
0.0008838442226234116,1.213
0.0003906414163907733,1.214
-5.63119608389349e-05,1.215
-0.00040498831315417583,1.216
-0.0006313649516729954,1.217
-0.0007143979355576709,1.218
-0.0006364736049023076,1.219
-0.00040468712421080514,1.22
-6.319264752753295e-05,1.221
0.00031673152479089173,1.222
0.0006574201942680215,1.223
0.0008918396397844316,1.224
0.000972865591624484,1.225
0.0008814327279248313,1.226
0.0006377503251543525,1.227
0.0002986300325888684,1.228
-6.336465243678058e-05,1.229
-0.00037440575129612407,1.23
-0.0005678374954280363,1.231
-0.0006067226545429108,1.232
-0.0005087597784970758,1.233
-0.0003427345119156215,1.234
-0.00019041439544966119,1.235
-0.00010509157446414852,1.236
-0.00010415156800672894,1.237
-0.0001887462520237208,1.238
-0.0003518816213877989,1.239
-0.000568941113255132,1.24
-0.0007906655021118045,1.241
-0.0009515128699080545,1.242
-0.0009977852415214066,1.243
-0.0009125701082512098,1.244
-0.0007167456847535501,1.245
-0.00046578708239966327,1.246
-0.00024744709570140256,1.247
-0.00014496049933078957,1.248
-0.00017088958671179563,1.249
-0.0002484881942651112,1.25
-0.00027584646555487547,1.251
-0.00020566258402265008,1.252
-7.039852937459593e-05,1.253
5.318233754588627e-05,1.254
0.00010513532435744039,1.255
8.41008248266464e-05,1.256
4.390828394300062e-05,1.257
5.166951948624304e-05,1.258
0.00013770383406018963,1.259
0.00027271256260988396,1.26
0.00039208768981368014,1.261
0.00045224086602278855,1.262
0.0004680589599088986,1.263
0.0004931218523697736,1.264
0.0005653612093072998,1.265
0.0006763864285507594,1.266
0.0007839098650194191,1.267
0.0008390866692889791,1.268
0.0008137770563878126,1.269
0.0007209321023282515,1.27
0.0006013343881097536,1.271
0.00048207763077687347,1.272
0.000360026738195751,1.273
0.00022993862397109328,1.274
0.00010733782884128363,1.275
5.956266014710546e-06,1.276
-9.59925410950272e-05,1.277
-0.0002462201581460888,1.278
-0.00046509311662045686,1.279
-0.0007029589881821593,1.28
-0.0008589630437298608,1.281
-0.0008474517710103997,1.282
-0.0006571765161471851,1.283
-0.0003649352964631057,1.284
-9.66284652509392e-05,1.285
2.9041910063107564e-05,1.286
-6.472482631660177e-05,1.287
-0.00038869574601934,1.288
-0.0008630256042361463,1.289
-0.0013332596208195692,1.29
-0.0016438961956303252,1.291
-0.0017081531801700252,1.292
-0.00152774777383995,1.293
-0.0011734770161497023,1.294
-0.0007354928101743867,1.295
-0.0002670942800928171,1.296
0.0002269084793089562,1.297
0.0007497850288185364,1.298
0.001270769798639778,1.299
0.001718054746323998,1.3
0.002000936992569375,1.301
0.002048870186331108,1.302
0.001848161695407471,1.303
0.0014475856867189607,1.304
0.0009321429778001469,1.305
0.00038828185063873315,1.306
-0.00011904265985274993,1.307
-0.000549657597031963,1.308
-0.0008749557965162829,1.309
-0.0010569328848891789,1.31
-0.001042104962676822,1.311
-0.0007926672933565973,1.312
-0.0003340074632031748,1.313
0.00022834021095116132,1.314
0.0007343632128071658,1.315
0.0010220731173154122,1.316
0.0009917660341693972,1.317
0.0006521237958484293,1.318
0.0001107366179892838,1.319
-0.0004864396831741823,1.32
-0.0010122556416194532,1.321
-0.0013763886487229622,1.322
-0.0015233451562375454,1.323
-0.0014334503726551105,1.324
-0.00112325854213683,1.325
-0.0006394982667797855,1.326
-5.060706921796736e-05,1.327
0.0005577106549687782,1.328
0.0010837396258556713,1.329
0.0014216755449405207,1.33
0.0014889277720691767,1.331
0.001254009642611718,1.332
0.000755871748046914,1.333
0.00010141741539082045,1.334
-0.0005714431789663498,1.335
-0.0011378673962573367,1.336
-0.0015062618512223082,1.337
-0.0016237904575463937,1.338
-0.001482700580936626,1.339
-0.0011255394032844029,1.34
-0.0006445677992707598,1.341
-0.0001669995100218612,1.342
0.00018343844077258321,1.343
0.0003305291268446211,1.344
0.00025945347463079965,1.345
3.012749908170857e-06,1.346
-0.00036452489083942655,1.347
-0.0007281781845196535,1.348
-0.0009563141817688917,1.349
-0.0009366883789639211,1.35
-0.0006054090550410118,1.351
2.3102531592135366e-05,1.352
0.0008336645750636404,1.353
0.0016273751569365461,1.354
0.0021935103818387517,1.355
0.002400895305477605,1.356
0.0022440788599990434,1.357
0.0018182919526537917,1.358
0.0012511620002465943,1.359
0.0006466803789164663,1.36
8.274464968511002e-05,1.361
-0.0003622858005705707,1.362
-0.0006052787466857606,1.363
-0.0005824663948025931,1.364
-0.0002878319271514896,1.365
0.000189167779487443,1.366
0.0006646309465529123,1.367
0.0009260933925953885,1.368
0.0008241134966647172,1.369
0.0003231328608883205,1.37
-0.000499927156838409,1.371
-0.0014820182446658027,1.372
-0.0024163697786621884,1.373
-0.0031047443294375567,1.374
-0.003402211668975485,1.375
-0.0032502850647169942,1.376
-0.0026916217685543373,1.377
-0.0018435858340896422,1.378
-0.0008468707138296204,1.379
0.00016211183018830912,1.38
0.0010530446012070817,1.381
0.0017144946870310499,1.382
0.002084019128826624,1.383
0.002168310789654004,1.384
0.002041197238343716,1.385
0.0018155650088438602,1.386
0.0015911311157514511,1.387
0.0014150081478407992,1.388
0.0012771577841252616,1.389
0.0011236821184812506,1.39
0.0008773311310327294,1.391
0.0004668542814779947,1.392
-0.00013449549092991498,1.393
-0.0008720877781776148,1.394
-0.0016060601959520422,1.395
-0.0021645007228247833,1.396
-0.002425937306259204,1.397
-0.0023732662634072905,1.398
-0.0020820932315441755,1.399
-0.0016526802239542329,1.4
-0.0011481514648176258,1.401
-0.0005927615740772519,1.402
-1.3617117549427049e-05,1.403
0.0005291461609600945,1.404
0.0009604056755303494,1.405
0.0012399388175220142,1.406
0.0013887540389891436,1.407
0.0014610386191591905,1.408
0.0014927337939947731,1.409
0.001478660390385078,1.41
0.001386876397897295,1.411
0.0011890514212968227,1.412
0.0008898759728813273,1.413
0.0005334092188867818,1.414
0.00017683911707291297,1.415
-0.0001421637554690469,1.416
-0.00041124602933273073,1.417
-0.0006248196850873273,1.418
-0.0007708016598714637,1.419
-0.0008380573291824247,1.42
-0.0008364671864599276,1.421
-0.0008037401953598792,1.422
-0.0007780104456666247,1.423
-0.0007584647556748301,1.424
-0.0007008286092441945,1.425
-0.0005534600431686451,1.426
-0.0002960375058206851,1.427
4.2717041504727855e-05,1.428
0.00038833962702647016,1.429
0.0006451238197775841,1.43
0.0007331387356756615,1.431
0.0006145377841638122,1.432
0.0003014145993784138,1.433
-0.00014568221441941252,1.434
-0.0006315514443281939,1.435
-0.0010463494980727556,1.436
-0.0012795835155440351,1.437
-0.0012438320230287617,1.438
-0.0009088902554113697,1.439
-0.0003178003436724651,1.44
0.00041625462816021494,1.441
0.0011211619347529166,1.442
0.0016004401545571113,1.443
0.001691747132595195,1.444
0.001321936903965519,1.445
0.0005411708248707861,1.446
-0.00047902704350489883,1.447
-0.0014919304153401432,1.448
-0.0022456983831895773,1.449
-0.0025544991592711683,1.45
-0.0023523044169434775,1.451
-0.0017084896894108354,1.452
-0.0007934373864583713,1.453
0.00019404386227875027,1.454
0.0010908868536507348,1.455
0.0017876374169552532,1.456
0.0022145580276480255,1.457
0.002329262980920276,1.458
0.0021209829976246725,1.459
0.001632158583368427,1.46
0.0009762258707026071,1.461
0.0003118425820425393,1.462
-0.000219911168899459,1.463
-0.000539632893233471,1.464
-0.0006339067980025031,1.465
-0.0005361513741062752,1.466
-0.00030540808063975644,1.467
-1.5389523475064617e-05,1.468
0.00026746812154331776,1.469
0.0005155180122545361,1.47
0.00073394045189056,1.471
0.0009148744859786936,1.472
0.0010049820074294836,1.473
0.0009209301804488925,1.474
0.0005957533383425667,1.475
1.91232730613252e-05,1.476
-0.0007435864656790013,1.477
-0.0015542773805816707,1.478
-0.0022351874421199895,1.479
-0.002628757937384385,1.48
-0.0026558550533722193,1.481
-0.002338640317526953,1.482
-0.0017739826050294759,1.483
-0.0010846406484064832,1.484
-0.00038961563742732024,1.485
0.00020669110213724422,1.486
0.0006299191341477205,1.487
0.0008508725790348589,1.488
0.0008818350658473208,1.489
0.0007618118047932007,1.49
0.0005506309603141205,1.491
0.0003315526415700504,1.492
0.00020271435621633762,1.493
0.00024111344493194024,1.494
0.0004533451326589095,1.495
0.0007528952216260738,1.496
0.0009906620939247822,1.497
0.0010319834688871606,1.498
0.0008370806754176083,1.499
0.00048016304453885744,1.5
9.064387190179225e-05,1.501
-0.0002214490203320485,1.502
-0.0004040836859458109,1.503
-0.00046901185131285194,1.504
-0.0004697318664355242,1.505
-0.00045883509260071143,1.506
-0.00046062473144101125,1.507
-0.00047915801713987766,1.508
-0.0005129220119143843,1.509
-0.0005522004312474661,1.51
-0.0005767091472064339,1.511
-0.0005645688280513197,1.512
-0.0004950376341616303,1.513
-0.0003416616921908805,1.514
-7.75592245787094e-05,1.515
0.000300891082686081,1.516
0.0007501097496188121,1.517
0.0011716055240295978,1.518
0.0014311871894492297,1.519
0.0014093187669268641,1.52
0.0010646499374115006,1.521
0.0004672189353683296,1.522
-0.0002265780269452316,1.523
-0.0008314205107603998,1.524
-0.001188918679106177,1.525
-0.0012186949799539448,1.526
-0.0009522186439337248,1.527
-0.0005181070499303813,1.528
-7.544471410836056e-05,1.529
0.0002647477848471892,1.53
0.0004805917820997124,1.531
0.0006194308075605325,1.532
0.0007303130739016494,1.533
0.0008030207880942638,1.534
0.0007727369874429537,1.535
0.0005834896191388567,1.536
0.00024532234460764116,1.537
-0.00015950618593158414,1.538
-0.0005159814083389794,1.539
-0.0007323566455161537,1.54
-0.0007830383236040185,1.541
-0.0007095840790075921,1.542
-0.0005753543753146778,1.543
-0.00041937919355107897,1.544
-0.0002511247258862251,1.545
-7.277933369542327e-05,1.546
0.00010085607913559356,1.547
0.00023311204383015007,1.548
0.00026472304858112417,1.549
0.00013166163274430922,1.55
-0.000186737907960782,1.551
-0.0006222998078195093,1.552
-0.001026809187027888,1.553
-0.0012367684920650864,1.554
-0.0011564754969356167,1.555
-0.0008033420675520255,1.556
-0.0002828460230245175,1.557
0.00026601492742158903,1.558
0.0007141988771385274,1.559
0.0009825741482589268,1.56
0.0010623354838602977,1.561
0.0009882698193994183,1.562
0.0007952903659979511,1.563
0.0005048993086378876,1.564
0.0001416562323754971,1.565
-0.0002475425306988094,1.566
-0.0005860769693938146,1.567
-0.0007789266714445763,1.568
-0.0007553195786102477,1.569
-0.000528416619774671,1.57
-0.00021938340487565494,1.571
-1.5162682443557978e-05,1.572
-9.401748992507903e-05,1.573
-0.0005662168228563136,1.574
-0.0014347007649577542,1.575
-0.0025723550837434992,1.576
-0.003730378668174954,1.577
-0.004582828583363307,1.578
-0.004797059727634867,1.579
-0.004112964796901578,1.58
-0.002409560724660539,1.581
0.0002477711459267352,1.582
0.003575095270896272,1.583
0.007080306252452161,1.584
0.010150398845499023,1.585
0.012196767419080108,1.586
0.012811659378370754,1.587
0.011891937970243698,1.588
0.009665857138412176,1.589
0.006586701776085098,1.59
0.0031703181124450577,1.591
-0.00011839348371047532,1.592
-0.0029113561162646354,1.593
-0.004948309035531496,1.594
-0.006093014657721358,1.595
-0.006372343933321171,1.596
-0.006005805212510084,1.597
-0.005382428734169127,1.598
-0.004977422493013567,1.599
-0.005239896364732701,1.6
-0.0064856957436521066,1.601
-0.008797575662178777,1.602
-0.011935274415706385,1.603
-0.015304763903708276,1.604
-0.018050865625962573,1.605
-0.01925718925964466,1.606
-0.018159518118118296,1.607
-0.014338008531024196,1.608
-0.007893682247061815,1.609
0.000477900521016791,1.61
0.009602684565799645,1.611
0.018102323282256787,1.612
0.024729654006264902,1.613
0.028648158267742054,1.614
0.029566100596571186,1.615
0.027713584832861196,1.616
0.023693111952951394,1.617
0.01825470316097003,1.618
0.012086339299704839,1.619
0.005720223176313317,1.62
-0.0004193391866763105,1.621
-0.005916348982494984,1.622
-0.0103376136201582,1.623
-0.013321327593382363,1.624
-0.014704999597679352,1.625
-0.014586631867275515,1.626
-0.013281282470756032,1.627
-0.011216781699868256,1.628
-0.00882646623734197,1.629
-0.006469936426807252,1.63
-0.00439567142973825,1.631
-0.00273771503101259,1.632
-0.0015235763890954314,1.633
-0.0006815290823730079,1.634
-6.0904944463899204e-05,1.635
0.0005035237518726226,1.636
0.0010993443665490825,1.637
0.0016971227375867676,1.638
0.0021992521295555317,1.639
0.00252016084244199,1.64
0.002632947896087809,1.641
0.002566392580211292,1.642
0.002373448177731383,1.643
0.0020938846138023664,1.644
0.0017213227304398622,1.645
0.0011992991506333595,1.646
0.0004631909957349545,1.647
-0.0005024553027811584,1.648
-0.0016253667549620797,1.649
-0.002731974704180254,1.65
-0.0035729818571530857,1.651
-0.00390983845989156,1.652
-0.0036272438229468015,1.653
-0.002787038660455869,1.654
-0.0015900866999978614,1.655
-0.00028176874369817667,1.656
0.0009536161533306713,1.657
0.002059557794027717,1.658
0.0030866644044873085,1.659
0.004089840850133708,1.66
0.005020591880987016,1.661
0.005705926691780642,1.662
0.005928295820435408,1.663
0.005533341166459997,1.664
0.0044940688899082525,1.665
0.0029015950251457118,1.666
0.0008920127549083876,1.667
-0.001413262508644711,1.668
-0.003885665866825135,1.669
-0.006327720960726993,1.67
-0.008462324355548653,1.671
-0.010006189085692133,1.672
-0.010761156940604673,1.673
-0.010636650085847214,1.674
-0.009609956911587019,1.675
-0.007689458896515861,1.676
-0.004908848126366474,1.677
-0.001346085565901159,1.678
0.002832512663510243,1.679
0.00732040420277606,1.68
0.011669233293731611,1.681
0.015375531637410988,1.682
0.018013399236690732,1.683
0.019326559533314868,1.684
0.019237640928966782,1.685
0.017810327817256902,1.686
0.015220228627241102,1.687
0.011736640158344145,1.688
0.0076814546720635635,1.689
0.0033609707579630886,1.69
-0.0010057198772823698,1.691
-0.005326200049997891,1.692
-0.009602506026729594,1.693
-0.013852502911152082,1.694
-0.018070019068764435,1.695
-0.022223865244195756,1.696
-0.026195786903868354,1.697
-0.029642056225446314,1.698
-0.03192331424552751,1.699
-0.032216333115671444,1.7
-0.029748403798004912,1.701
-0.024059960832123202,1.702
-0.015258158404924206,1.703
-0.004178586131313112,1.704
0.0076954021013166405,1.705
0.018611309457853963,1.706
0.027053869251761533,1.707
0.03211781696543321,1.708
0.03362264417623299,1.709
0.03201150736181486,1.71
0.028137469907954384,1.711
0.02301616463202104,1.712
0.017586073534870142,1.713
0.012536667067614036,1.714
0.008265592204785708,1.715
0.004915355435630109,1.716
0.0023973397925890058,1.717
0.0004387585720839384,1.718
-0.0012752334207400669,1.719
-0.0029407806622316728,1.72
-0.00458760751116603,1.721
-0.006139839927707023,1.722
-0.007488943246706023,1.723
-0.008540091896593664,1.724
-0.00924783218586839,1.725
-0.009629964653042177,1.726
-0.009738800133283692,1.727
-0.009614420427455793,1.728
-0.009265814661929505,1.729
-0.008688850549895127,1.73
-0.00789763069671311,1.731
-0.00695364447141262,1.732
-0.005972620474403565,1.733
-0.005087324837560111,1.734
-0.004388845497448166,1.735
-0.0038888535934625953,1.736
-0.0035096788051064308,1.737
-0.0030942628173916157,1.738
-0.0024577542519104685,1.739
-0.0014786456973758244,1.74
-0.0001626284139999043,1.741
0.0013576349939660424,1.742
0.002863229360428819,1.743
0.00411342479129164,1.744
0.004922316552106066,1.745
0.005219744092507534,1.746
0.005077278254643855,1.747
0.004695828077994665,1.748
0.004341331630522098,1.749
0.004233226169876743,1.75
0.004443064181868893,1.751
0.004859161238730637,1.752
0.005227045262720722,1.753
0.005253167341093745,1.754
0.004744890360074408,1.755
0.0037107697884568693,1.756
0.002342072174293968,1.757
0.0009044567110252146,1.758
-0.0003589697616626276,1.759
-0.001266681087456375,1.76
-0.0017064387608435783,1.761
-0.0016527632493670901,1.762
-0.001198995475791769,1.763
-0.0005584872932899192,1.764
2.8205034832922793e-06,1.765
0.0002715557277487105,1.766
0.0001681806763800805,1.767
-0.0002256357115225121,1.768
-0.0006988762544963605,1.769
-0.0010042923253301829,1.77
-0.0009863303249852324,1.771
-0.0006708431937754672,1.772
-0.00025225661203014826,1.773
1.3304522886906469e-05,1.774
-6.071482051777124e-05,1.775
-0.0005075316793805074,1.776
-0.0012019079132568188,1.777
-0.0019346396410433637,1.778
-0.00254913649181898,1.779
-0.003069512849013364,1.78
-0.003725746024057782,1.781
-0.004853136925940351,1.782
-0.00671316160292321,1.783
-0.009290943756658048,1.784
-0.012158330203840946,1.785
-0.014507707054476298,1.786
-0.015357672222407368,1.787
-0.013844663657427729,1.788
-0.009508505706305357,1.789
-0.0024751993158763468,1.79
0.006517061768095163,1.791
0.01623648727310269,1.792
0.02517733037097905,1.793
0.03181843707574633,1.794
0.03488618481349071,1.795
0.033616639096588005,1.796
0.027969583788335747,1.797
0.018707565212024352,1.798
0.0072696836570379925,1.799
-0.004556915536885405,1.8
-0.015053511456926804,1.801
-0.022911505809525955,1.802
-0.027419304802135835,1.803
-0.0285207872330391,1.804
-0.02674973956690932,1.805
-0.022996070073788913,1.806
-0.01815817583081289,1.807
-0.012872046099989853,1.808
-0.007472594541084841,1.809
-0.002141439042186762,1.81
0.0029411673767711297,1.811
0.007543681858556295,1.812
0.011393036163350355,1.813
0.014211819715793802,1.814
0.01580430405488347,1.815
0.016159888390962208,1.816
0.015471393543115514,1.817
0.014028128926392856,1.818
0.012082855374679607,1.819
0.009809744539299099,1.82
0.007348723304226304,1.821
0.0048490412747250605,1.822
0.002450133205110114,1.823
0.000212199542542008,1.824
-0.001934021359082568,1.825
-0.004160329755011859,1.826
-0.006650099381849872,1.827
-0.009494794063253532,1.828
-0.012614657909778762,1.829
-0.01572989860324488,1.83
-0.01839092092172606,1.831
-0.020058361035985985,1.832
-0.020217102482080723,1.833
-0.018497173027176732,1.834
-0.014781789627133137,1.835
-0.009278192585488065,1.836
-0.0025089553141446315,1.837
0.004764325067578962,1.838
0.011630788995267644,1.839
0.01715351476478497,1.84
0.020568433514177017,1.841
0.021497178417810934,1.842
0.02005842596230504,1.843
0.016831283102008928,1.844
0.012700347307314465,1.845
0.008613966011525908,1.846
0.00532271780511092,1.847
0.003225102177784118,1.848
0.0023686376280780503,1.849
0.0025310781856415577,1.85
0.0032801651550237853,1.851
0.003985358316682732,1.852
0.0038783582528881455,1.853
0.0022508905569263897,1.854
-0.0012773841388743106,1.855
-0.006577602430692429,1.856
-0.013010313722463307,1.857
-0.019572509931260917,1.858
-0.025107238806571126,1.859
-0.028526276343262772,1.86
-0.02902384732556693,1.861
-0.02624581558136221,1.862
-0.020368675984791217,1.863
-0.012054647304541935,1.864
-0.002303487508790449,1.865
0.00772162775075037,1.866
0.016848355290357286,1.867
0.02404142852652627,1.868
0.028536343241460118,1.869
0.029929546122826584,1.87
0.0282064693244381,1.871
0.023712023119158803,1.872
0.017097224892484268,1.873
0.009262344566126669,1.874
0.0012658504971893496,1.875
-0.005825990850257677,1.876
-0.011118595727764002,1.877
-0.01403883662287073,1.878
-0.014419060127895844,1.879
-0.012516828382485579,1.88
-0.008970086260020271,1.881
-0.0046671138224506385,1.882
-0.0005437099617067245,1.883
0.0026226991220676425,1.884
0.004356609388609968,1.885
0.004538405099682136,1.886
0.0033659645085915967,1.887
0.0012487245150204836,1.888
-0.001328598390009571,1.889
-0.003928257015133822,1.89
-0.006202747940109774,1.891
-0.007850756607312112,1.892
-0.00857890967360499,1.893
-0.00814435635264119,1.894
-0.006447453593488302,1.895
-0.003598913960648542,1.896
6.34868254043743e-05,1.897
0.003987983270240079,1.898
0.0074570805154152075,1.899
0.00970255718291378,1.9
0.010112381769989345,1.901
0.008492602674982386,1.902
0.0052228800174756364,1.903
0.0011520533488573227,1.904
-0.0027179101632161876,1.905
-0.005561316343631218,1.906
-0.006907800778188044,1.907
-0.0066518466099684675,1.908
-0.004996716990903602,1.909
-0.002417931906191324,1.91
0.00039407205383464554,1.911
0.0027002937482111106,1.912
0.003950954075546886,1.913
0.00392335670625576,1.914
0.002671432955017034,1.915
0.00041169788819474056,1.916
-0.0024923360453906855,1.917
-0.005471126463252378,1.918
-0.00778891413314657,1.919
-0.00876622240430219,1.92
-0.008046433437648227,1.921
-0.005707351705347477,1.922
-0.0021509446983819435,1.923
0.002131259505893863,1.924
0.006706404207354683,1.925
0.011124685362033012,1.926
0.01473010277720976,1.927
0.016622607689420296,1.928
0.015917259578487455,1.929
0.012171451059621625,1.93
0.005711185152833762,1.931
-0.0023368426062810024,1.932
-0.010320783071346568,1.933
-0.016491385065997725,1.934
-0.019404885710439156,1.935
-0.018234624594818376,1.936
-0.012996495767888373,1.937
-0.004638414384727536,1.938
0.005113977584118918,1.939
0.014173116161428662,1.94
0.020635889984117275,1.941
0.023259995906021402,1.942
0.02171559409554623,1.943
0.016587261878858076,1.944
0.009167425403823622,1.945
0.0010688055110441633,1.946
-0.006226272658639381,1.947
-0.011656129444623206,1.948
-0.014639197244405445,1.949
-0.015053597794151122,1.95
-0.013237521157324248,1.951
-0.009946288862413187,1.952
-0.006188377750928864,1.953
-0.0029635684858572223,1.954
-0.0010187448720959643,1.955
-0.0007322540097189403,1.956
-0.0021308561760971477,1.957
-0.004973712087109138,1.958
-0.008839944475290141,1.959
-0.013152203763645348,1.96
-0.017119484996254236,1.961
-0.01971297590580987,1.962
-0.019826674423908907,1.963
-0.016630782807264956,1.964
-0.009934399107032959,1.965
-0.00033013860384558053,1.966
0.010916564888906372,1.967
0.02210296052292411,1.968
0.03138656518056895,1.969
0.03714014741975109,1.97
0.03829747916886187,1.971
0.0345923894817805,1.972
0.026635641153773905,1.973
0.01582014862545735,1.974
0.004049042769479284,1.975
-0.006673975430951831,1.976
-0.014682896771641639,1.977
-0.018996319060993028,1.978
-0.01946231131732407,1.979
-0.016655676851919234,1.98
-0.01161691702925387,1.981
-0.005576049949877888,1.982
0.0002613619994415624,1.983
0.00485757076597071,1.984
0.007415258518158821,1.985
0.007381821846219676,1.986
0.004476423673755491,1.987
-0.0011366956303302922,1.988
-0.008631651779651814,1.989
-0.016551446042389364,1.99
-0.02314914055691044,1.991
-0.026808056475422053,1.992
-0.026394946322696896,1.993
-0.021576291783721613,1.994
-0.013025305209177438,1.995
-0.002312677404128615,1.996
0.008560625077055748,1.997
0.017768368502061798,1.998
0.02415237597793172,1.999
0.02743264599355339,2.0
0.02801772136943646,2.001
0.026521241404578365,2.002
0.023362261157271264,2.003
0.01872476403951793,2.004
0.012780662030936127,2.005
0.005909889501821951,2.006
-0.0012461372241449377,2.007
-0.007905852094576754,2.008
-0.01334823595328108,2.009
-0.017057127713436638,2.01
-0.01874910351298453,2.011
-0.01836071424949813,2.012
-0.016076299657561445,2.013
-0.012348547660228547,2.014
-0.007814393955776872,2.015
-0.003118646736614195,2.016
0.0012476300608485254,2.017
0.005007591047327792,2.018
0.008032236715277854,2.019
0.010192097688631118,2.02
0.011226742124854415,2.021
0.01072640080207992,2.022
0.00826609024925652,2.023
0.003646537914312022,2.024
-0.0028708206715670733,2.025
-0.010441851937434745,2.026
-0.017708641496782567,2.027
-0.023094552162983256,2.028
-0.025245125129542224,2.029
-0.02343475403829086,2.03
-0.017800476409902736,2.031
-0.009381745405544727,2.032
4.558372918669635e-05,2.033
0.00841054115401468,2.034
0.014008017555335303,2.035
0.016121009119583474,2.036
0.015294685094619157,2.037
0.01307569847921365,2.038
0.011314748187641622,2.039
0.011372893825681334,2.04
0.013602937045702054,2.041
0.017314433978176568,2.042
0.02116499055508246,2.043
0.02371618720229772,2.044
0.023867648020685178,2.045
0.021062942609543583,2.046
0.015316952026863923,2.047
0.007129509957955118,2.048
-0.0026245385887862065,2.049
-0.012771705144309337,2.05
-0.021931063949426708,2.051
-0.028701080707245506,2.052
-0.03197444501300377,2.053
-0.031306171592990664,2.054
-0.027123215598824035,2.055
-0.020590407671967494,2.056
-0.013216534048479223,2.057
-0.006446939876189078,2.058
-0.0013707458397986243,2.059
0.0014620131584015296,2.06
0.0021222788696781012,2.061
0.0012532230826700597,2.062
-0.00013235542023390802,2.063
-0.0009670684833122247,2.064
-0.00044769180683229277,2.065
0.0017341518877887808,2.066
0.005282987951578841,2.067
0.009357683777006777,2.068
0.012840840388425517,2.069
0.014744286356340567,2.07
0.014553628759573943,2.071
0.012359840712370437,2.072
0.008771176402179925,2.073
0.0046714878447737754,2.074
0.0009085649262503392,2.075
-0.0019650790935453136,2.076
-0.0037693828921468286,2.077
-0.004557818513172804,2.078
-0.004370646276813287,2.079
-0.00310727133343013,2.08
-0.0006728694663826898,2.081
0.002752139302033202,2.082
0.006578985634722737,2.083
0.00988196510234054,2.084
0.011619126159943753,2.085
0.01093660258233848,2.086
0.007464934656934711,2.087
0.0014892502009888884,2.088
-0.006079801859013068,2.089
-0.013945541366817523,2.09
-0.020795358869921433,2.091
-0.02559252522946185,2.092
-0.027648153200068387,2.093
-0.02653364438135391,2.094
-0.022024064411227576,2.095
-0.014233899700388988,2.096
-0.0038604487730059317,2.097
0.007723338229475992,2.098
0.018688412416498202,2.099
0.0272047574672482,2.1
0.031896621841681586,2.101
0.032143055168529375,2.102
0.028186217768514366,2.103
0.021017407631726694,2.104
0.01207211634138571,2.105
0.002921511460365211,2.106
-0.0048840485894348475,2.107
-0.0099475678292393,2.108
-0.011359902551421342,2.109
-0.00918396975425049,2.11
-0.0047002845265253805,2.111
-5.589242272883901e-05,2.112
0.0025779375081587475,2.113
0.0018242180399149373,2.114
-0.0025506898636448597,2.115
-0.009811365656987233,2.116
-0.0186639360863423,2.117
-0.027525335720979847,2.118
-0.03455198205182844,2.119
-0.03774838670790359,2.12
-0.03547512067965414,2.121
-0.027192625468506097,2.122
-0.013919957837614495,2.123
0.0019505989237327294,2.124
0.017445199147773868,2.125
0.030029640596404138,2.126
0.03829156742583765,2.127
0.0419550144996833,2.128
0.04147572300809226,2.129
0.03766354190404876,2.13
0.03144781295829664,2.131
0.023687637369430865,2.132
0.01504725538281819,2.133
0.006036223592454807,2.134
-0.0028023787249487637,2.135
-0.010738462888936241,2.136
-0.016943117824831797,2.137
-0.02078272814122144,2.138
-0.022038923518421162,2.139
-0.020900997110777343,2.14
-0.017817810602917518,2.141
-0.013320426272406713,2.142
-0.00789711873042049,2.143
-0.0019988149507428722,2.144
0.003822901355779172,2.145
0.008751267945074132,2.146
0.01167967070643964,2.147
0.011437621026068904,2.148
0.0072018207826371776,2.149
-0.0010822398282110855,2.15
-0.01241879389722716,2.151
-0.024736048528097302,2.152
-0.03519800292159583,2.153
-0.04087985903772904,2.154
-0.03965660470664922,2.155
-0.03091361753157833,2.156
-0.01576621560358082,2.157
0.003208409885837522,2.158
0.022590658302131316,2.159
0.03893048600625877,2.16
0.04954872451224406,2.161
0.05313206552097922,2.162
0.049931921214319844,2.163
0.041464631764679405,2.164
0.029881621211338475,2.165
0.01733761707056468,2.166
0.005533395705021001,2.167
-0.0045500125995355176,2.168
-0.012680633177901968,2.169
-0.019138008780804527,2.17
-0.02431578166820238,2.171
-0.0283382519142597,2.172
-0.03087447630890075,2.173
-0.03132648873939886,2.174
-0.029312023996754873,2.175
-0.024963754169279075,2.176
-0.01870366257819197,2.177
-0.010838456428518724,2.178
-0.0015317913841150531,2.179
0.008814417982184086,2.18
0.019139051509470824,2.181
0.027625922690326602,2.182
0.03212768025080307,2.183
0.030981171016400706,2.184
0.023768512433397178,2.185
0.011603529692490112,2.186
-0.003121546626176002,2.187
-0.017312847738865617,2.188
-0.02788673818818121,2.189
-0.03252430699734301,2.19
-0.030281239295227233,2.191
-0.02179198375111659,2.192
-0.009029553413544408,2.193
0.005208300080150982,2.194
0.017987395104853508,2.195
0.026960532400845626,2.196
0.03082993571820472,2.197
0.029420624592659685,2.198
0.02350094528857565,2.199
0.014494390085106855,2.2
0.004153865335745024,2.201
-0.005716032879479456,2.202
-0.01345218174773803,2.203
-0.01775423191056996,2.204
-0.018025190741447348,2.205
-0.014694901161209587,2.206
-0.009204583151952233,2.207
-0.0034450415752600135,2.208
0.0010865774052476135,2.209
0.0038049624237832197,2.21
0.004924192172567586,2.211
0.004975817240603613,2.212
0.004375325951709182,2.213
0.003287612265806931,2.214
0.0018017207292556857,2.215
0.0001810854655696656,2.216
-0.0010831025353927645,2.217
-0.0015311965552702463,2.218
-0.0011328347592462254,2.219
-0.00044266237369133804,2.22
-0.0003867425763628505,2.221
-0.0018803715204611091,2.222
-0.005404457005772569,2.223
-0.010598950174043829,2.224
-0.016109897051584735,2.225
-0.01992305173349098,2.226
-0.020107461494351074,2.227
-0.015623244612691654,2.228
-0.006858918716344942,2.229
0.004294868889115687,2.23
0.01491444018393062,2.231
0.02191281901668872,2.232
0.023032901192789758,2.233
0.01773198401297607,2.234
0.0075828787132855595,2.235
-0.00415736555081,2.236
-0.013618916940326445,2.237
-0.01751301386739568,2.238
-0.01407330663557477,2.239
-0.003500467586567961,2.24
0.012153719916787119,2.241
0.029454681786286574,2.242
0.044204419919684546,2.243
0.05227525948211873,2.244
0.050740208505230915,2.245
0.0389673087228982,2.246
0.01906952482800475,2.247
-0.004672465383750721,2.248
-0.02726510617607199,2.249
-0.04461905416830453,2.25
-0.054533959137165855,2.251
-0.0567732474257161,2.252
-0.05249024685242373,2.253
-0.04348015243496679,2.254
-0.03161464989743059,2.255
-0.01855072307482793,2.256
-0.005638169156551801,2.257
0.006084576351999572,2.258
0.015856615708916805,2.259
0.023127562995642316,2.26
0.02751956498438341,2.261
0.028877233782823232,2.262
0.027359017607547678,2.263
0.023456664737139744,2.264
0.017891800671269706,2.265
0.011467272302716167,2.266
0.004948576648840591,2.267
-0.0010226987885679829,2.268
-0.005981894200084707,2.269
-0.009627040820959927,2.27
-0.01174033697711046,2.271
-0.012151849579972961,2.272
-0.01080944814583545,2.273
-0.007864775177542943,2.274
-0.0036829823891579893,2.275
0.0011902670764300997,2.276
0.006033846175565265,2.277
0.009975148155854499,2.278
0.012133882192487663,2.279
0.011858466500344304,2.28
0.008971015723099248,2.281
0.00397601536954781,2.282
-0.0019281828520761296,2.283
-0.007207336216745846,2.284
-0.010573506033094204,2.285
-0.01147825845344873,2.286
-0.010315736270252358,2.287
-0.00816973471423852,2.288
-0.0061266654084699435,2.289
-0.004665219062442008,2.29
-0.003629209573425908,2.291
-0.0026123690935116912,2.292
-0.0012699135621630604,2.293
0.0005719325243878275,2.294
0.0028464950907172533,2.295
0.005173513797315675,2.296
0.006945461012453416,2.297
0.007634915909376697,2.298
0.007090228162660552,2.299
0.005609467110715707,2.3
0.003837599879650262,2.301
0.0025222139036847058,2.302
0.002121852583378569,2.303
0.002521593303928339,2.304
0.003151830149614297,2.305
0.0033796486092591005,2.306
0.0028095199025618914,2.307
0.0013621072230521262,2.308
-0.0008023824227450137,2.309
-0.0034404337372298177,2.31
-0.006293584144641907,2.311
-0.008938969293071388,2.312
-0.010675942716749426,2.313
-0.010786491279726002,2.314
-0.009000783544857754,2.315
-0.0057409452489840425,2.316
-0.001994100633689779,2.317
0.0011079658871633897,2.318
0.0028137678600546247,2.319
0.0030612179527495014,2.32
0.0023544030693834622,2.321
0.0013602122932624614,2.322
0.0006168814093620784,2.323
0.0005013331450711225,2.324
0.0012392553092224249,2.325
0.0028378743800937098,2.326
0.005041581190429227,2.327
0.007377143206538786,2.328
0.00928903531732087,2.329
0.010301672611632683,2.33
0.01009401542237766,2.331
0.008492505311115063,2.332
0.005480167805203019,2.333
0.0012109892529361189,2.334
-0.00400940332364462,2.335
-0.009711544263914277,2.336
-0.01519776424881471,2.337
-0.019531559904605193,2.338
-0.021675739818154828,2.339
-0.02076382220167568,2.34
-0.016392252226312846,2.341
-0.008837150313359615,2.342
0.0007987846571388567,2.343
0.01062080916360948,2.344
0.01844955918308936,2.345
0.022691793498345224,2.346
0.022940838669791314,2.347
0.01993281484435174,2.348
0.015071192412644267,2.349
0.009920730468896891,2.35
0.005893819346588232,2.351
0.004004949516853188,2.352
0.004489974474310735,2.353
0.006524763202829155,2.354
