VaMe,time
0.001588068882263498,0.001
0.008648222680217301,0.002
0.016043151116582527,0.003
0.023778788007008,0.004
0.03132827850611801,0.005
0.03773500058818771,0.006
0.04186585460245089,0.007
0.04276203578550357,0.008
0.04004461733666377,0.009
0.03418424677889463,0.01
0.02636938196253747,0.011
0.018005738309709845,0.012
0.010207424030737789,0.013
0.0035275622134895053,0.014
-0.002070935702241714,0.015
-0.007054950819169356,0.016
-0.012022716891182058,0.017
-0.017378396574886268,0.018
-0.02309278276396311,0.019
-0.02856498457792745,0.02
-0.032595022843510235,0.021
-0.033592765686275866,0.022
-0.03015317690476511,0.023
-0.021852067921695046,0.024
-0.009753132008713725,0.025
0.003809122221790101,0.026
0.016045335244212047,0.027
0.024609916834505065,0.028
0.028198758355100537,0.029
0.02674828351739999,0.03
0.021285986511120736,0.031
0.01353926922650125,0.032
0.005414006996686968,0.033
-0.001515709120976473,0.034
-0.006338840621418103,0.035
-0.008858910271795018,0.036
-0.00939338634776874,0.037
-0.00848471167015139,0.038
-0.006695406644100578,0.039
-0.004531554243624816,0.04
-0.0024395849774013646,0.041
-0.0008138429340514199,0.042
2.339017322606235e-05,0.043
-8.722239396525403e-05,0.044
-0.0010162731158493967,0.045
-0.002355715158782491,0.046
-0.0036211726787503456,0.047
-0.004459148682711856,0.048
-0.0047159208794343,0.049
-0.004422190377091018,0.05
-0.0037620115723895394,0.051
-0.0030175697826283245,0.052
-0.002455955579946257,0.053
-0.002171697203348695,0.054
-0.0019941392598880996,0.055
-0.0015542581248340803,0.056
-0.00047556233887747123,0.057
0.001424277275516944,0.058
0.004021661586081567,0.059
0.0069059753886291505,0.06
0.009498586819149144,0.061
0.011211474740152988,0.062
0.011605898801724877,0.063
0.010520148499494624,0.064
0.008104002763005986,0.065
0.004719141425360086,0.066
0.0007738367896354271,0.067
-0.00337537720438405,0.068
-0.007377579489862069,0.069
-0.010748200254335503,0.07
-0.01278602377344135,0.071
-0.012705620448069232,0.072
-0.010028921037680955,0.073
-0.004985003503933111,0.074
0.0014633679322620032,0.075
0.007986201815150603,0.076
0.01329613340188186,0.077
0.016386062069427814,0.078
0.016689543192025893,0.079
0.014257619840513457,0.08
0.009825504955661101,0.081
0.004566081371684727,0.082
-0.00042713494392746106,0.083
-0.004574896575004719,0.084
-0.00788843389545615,0.085
-0.010723284069324645,0.086
-0.013410656025401126,0.087
-0.015974062759345837,0.088
-0.018043571196505594,0.089
-0.018958725853962775,0.09
-0.017993140686831006,0.091
-0.014646201196913199,0.092
-0.008940110356008986,0.093
-0.0015846726880986252,0.094
0.006113717884227904,0.095
0.012637267818026958,0.096
0.01684219958337005,0.097
0.018397635613746174,0.098
0.01774549880648207,0.099
0.015699953739734995,0.1
0.013053201590770253,0.101
0.010344679935142622,0.102
0.007791485682674128,0.103
0.005381895863629193,0.104
0.0030518884668933963,0.105
0.0007985321206505757,0.106
-0.0013140720059811371,0.107
-0.0031748986376060545,0.108
-0.0046273013667890595,0.109
-0.005501622211176354,0.11
-0.005708742820124494,0.111
-0.005332766840422338,0.112
-0.004615732569158111,0.113
-0.003811680510208873,0.114
-0.0030399876971831047,0.115
-0.002283801841771219,0.116
-0.001522202775906614,0.117
-0.0008603377242315422,0.118
-0.0005522116361661813,0.119
-0.0009086953613399969,0.12
-0.002160810875108595,0.121
-0.004356491139532518,0.122
-0.007290188895970258,0.123
-0.010446813563302433,0.124
-0.01303348656884536,0.125
-0.014144458375131902,0.126
-0.012982735583105073,0.127
-0.009080523126177022,0.128
-0.0025051441089393445,0.129
0.006011118540788204,0.13
0.015082413865128704,0.131
0.022872194497833166,0.132
0.027557664314352144,0.133
0.0279623366076049,0.134
0.024010793937601912,0.135
0.016747464019217385,0.136
0.007951914741208542,0.137
-0.0004581003274213622,0.138
-0.006976493977132274,0.139
-0.010819695142462532,0.14
-0.011965552935935044,0.141
-0.010958234771629261,0.142
-0.008579780010159762,0.143
-0.005561715718613885,0.144
-0.002461496123213904,0.145
0.00032225848423963034,0.146
0.0024998157292213862,0.147
0.0038516818724638347,0.148
0.00419728460294794,0.149
0.003385354102302459,0.15
0.0013293074255495527,0.151
-0.0019249479299718213,0.152
-0.006141462688234391,0.153
-0.010885625618734933,0.154
-0.015579189443628601,0.155
-0.01957169190402657,0.156
-0.022162794828890435,0.157
-0.022596230550369394,0.158
-0.020131603506836706,0.159
-0.014284679921844361,0.16
-0.005170563131264535,0.161
0.006246223264201165,0.162
0.018151801987735663,0.163
0.02823032978086285,0.164
0.03433377759801065,0.165
0.035178806291794845,0.166
0.030702461727801604,0.167
0.021975836675677714,0.168
0.010803690540307616,0.169
-0.000797663837325382,0.17
-0.01100223024240839,0.171
-0.018308068935068224,0.172
-0.021553963062608296,0.173
-0.020115057125222813,0.174
-0.01426050894147134,0.175
-0.005302710249316213,0.176
0.004689897804655915,0.177
0.013505264589560587,0.178
0.01941395389515947,0.179
0.021480560862888572,0.18
0.019538732065883004,0.181
0.014097138822678285,0.182
0.006282726864655107,0.183
-0.002339634868405509,0.184
-0.010150741951355203,0.185
-0.015899641294531898,0.186
-0.018961709685187195,0.187
-0.01937424896529637,0.188
-0.017691498383576663,0.189
-0.0147235022206281,0.19
-0.01125734458178883,0.191
-0.007847913496477737,0.192
-0.004715226370268801,0.193
-0.0018023256051769565,0.194
0.0009868738803169687,0.195
0.0035534243595285253,0.196
0.005617813506238474,0.197
0.006933756361615406,0.198
0.0074384053075925065,0.199
0.007232809216000064,0.2
0.006478359580077674,0.201
0.0053240797749674945,0.202
0.003929399226624059,0.203
0.002517942588956288,0.204
0.0013352552171483887,0.205
0.0005282784735499621,0.206
9.033156275606282e-05,0.207
-6.762167604733538e-05,0.208
-1.5059564636744633e-05,0.209
0.00021993812925130674,0.21
0.0006100637228558222,0.211
0.0011005387199507465,0.212
0.0015994946669546243,0.213
0.001977767272680635,0.214
0.002106819317439725,0.215
0.0019168214716828015,0.216
0.0014182170528756982,0.217
0.0006882542665009862,0.218
-0.00013842891493103936,0.219
-0.0008772481010253081,0.22
-0.0013406905468468775,0.221
-0.0014203783671127709,0.222
-0.0011322132681436878,0.223
-0.0005906110778029604,0.224
3.87222123251598e-05,0.225
0.0005676205125529552,0.226
0.0008145177571073346,0.227
0.0006572553337894663,0.228
9.617759531169549e-05,0.229
-0.000728749960006783,0.23
-0.0015966395948494594,0.231
-0.002280641485614009,0.232
-0.0025914119336491294,0.233
-0.002417311249797791,0.234
-0.0017647212648493255,0.235
-0.0007512589034536193,0.236
0.0004552360337939632,0.237
0.0017018587093290075,0.238
0.0028768896974728665,0.239
0.0038990538397601854,0.24
0.004699481909222623,0.241
0.0052227309548668315,0.242
0.005445239712951315,0.243
0.005363439509551999,0.244
0.0049307458524411995,0.245
0.004005446558030554,0.246
0.0023588132440807465,0.247
-0.0002494634929936628,0.248
-0.003933050145208083,0.249
-0.008540291338886473,0.25
-0.013610292112854389,0.251
-0.018449079782667438,0.252
-0.02225158831412869,0.253
-0.024192250059436794,0.254
-0.023502124052607636,0.255
-0.019608151697536234,0.256
-0.012363598154029435,0.257
-0.0022767679993679416,0.258
0.009422257839627503,0.259
0.020962383610839207,0.26
0.030434676695903978,0.261
0.036289192254115574,0.262
0.03771072750524646,0.263
0.034724305906824175,0.264
0.02807522540399614,0.265
0.01901374150886587,0.266
0.009045974679458895,0.267
-0.00033736173265422006,0.268
-0.007938338679235856,0.269
-0.013076076461363256,0.27
-0.01565949574243269,0.271
-0.01607219845547777,0.272
-0.014940566979251717,0.273
-0.01290589277046798,0.274
-0.010477594934964592,0.275
-0.007979451402126388,0.276
-0.005595471577541967,0.277
-0.003493662443796797,0.278
-0.0019270308890904028,0.279
-0.0012096740340389919,0.28
-0.0015784370252436728,0.281
-0.003042232364275147,0.282
-0.005294683423738869,0.283
-0.007706789085918747,0.284
-0.00942710697538651,0.285
-0.009625489469063556,0.286
-0.007809076929962471,0.287
-0.004023536347465349,0.288
0.0011574577760767634,0.289
0.006782025628660041,0.29
0.011739852294477354,0.291
0.015025304694262874,0.292
0.01597715800963217,0.293
0.014430263216153831,0.294
0.010765849380295432,0.295
0.005838972269497055,0.296
0.0007474716886649924,0.297
-0.003492961516859499,0.298
-0.006217355909386495,0.299
-0.007224378967982651,0.3
-0.006727466734715737,0.301
-0.005197802464326458,0.302
-0.0031756507063775176,0.303
-0.0011205513752119952,0.304
0.0006684751334274756,0.305
0.0020624079494408806,0.306
0.003040366018298813,0.307
0.003598770208348913,0.308
0.003717029259283627,0.309
0.0033969701803447097,0.31
0.0027178476883713493,0.311
0.0018541728334777847,0.312
0.001017791531608688,0.313
0.00034937936138520337,0.314
-0.00012995241674390958,0.315
-0.00046250979792260597,0.316
-0.0006788313928732979,0.317
-0.0007878652654703216,0.318
-0.0008177363133229184,0.319
-0.0008252238984121966,0.32
-0.0008509890364021722,0.321
-0.0008939584009455342,0.322
-0.000941426418709341,0.323
-0.0010065407277951074,0.324
-0.001133056548448108,0.325
-0.0013742600296353991,0.326
-0.0017566649142984605,0.327
-0.0022320008968301124,0.328
-0.0026541795647687903,0.329
-0.002819542328755485,0.33
-0.0025517072160912598,0.331
-0.0017865654758752547,0.332
-0.0006197766777130882,0.333
0.0007175212224046196,0.334
0.001948820472631796,0.335
0.0028519766014427714,0.336
0.0033333161035506665,0.337
0.003460706658879027,0.338
0.0034144726670695463,0.339
0.003367691189547375,0.34
0.003392250936987401,0.341
0.0034409964458786612,0.342
0.0033742928264813843,0.343
0.0030148782745584466,0.344
0.0022228296958382437,0.345
0.0009464253749005649,0.346
-0.0007650683914545265,0.347
-0.002741375818176842,0.348
-0.00465249193814617,0.349
-0.006023439222713661,0.35
-0.006351486605103201,0.351
-0.005274751647243038,0.352
-0.0027252560670890675,0.353
0.0009629749772460989,0.354
0.005026774180275215,0.355
0.008386157917192306,0.356
0.00992717367531694,0.357
0.008864010059485911,0.358
0.004990441595076435,0.359
-0.001269981908759771,0.36
-0.008945349420223191,0.361
-0.016648326330789727,0.362
-0.022765861338641658,0.363
-0.025753626843843597,0.364
-0.02453038514681555,0.365
-0.018853957210235518,0.366
-0.00948782875757655,0.367
0.0019564663687987793,0.368
0.013445911338238635,0.369
0.02305940929743223,0.37
0.02944372586393925,0.371
0.032052266247914726,0.372
0.031120290742132063,0.373
0.027407618750310014,0.374
0.02184007643155242,0.375
0.015271652756076556,0.376
0.008460718958549523,0.377
0.0021019312341059287,0.378
-0.003247488112429587,0.379
-0.007295265127738927,0.38
-0.010064458788210644,0.381
-0.011836115483058752,0.382
-0.013033626404785713,0.383
-0.014089575093071216,0.384
-0.015309706217411753,0.385
-0.016758125211939083,0.386
-0.018199125015575926,0.387
-0.01912467052823858,0.388
-0.01889550597742838,0.389
-0.016981704347269318,0.39
-0.013191360323072793,0.391
-0.00776575609302685,0.392
-0.0013314628073819656,0.393
0.005245534848182373,0.394
0.011065961658496428,0.395
0.015394690235665996,0.396
0.017788891508934167,0.397
0.01814076823346851,0.398
0.016635377129273102,0.399
0.013662696064358567,0.4
0.009745601628406554,0.401
0.005484996056351479,0.402
0.0014872428166731665,0.403
-0.0017223871839646629,0.404
-0.0037769647009156856,0.405
-0.0045219044230002566,0.406
-0.00403836950044299,0.407
-0.002622008055272471,0.408
-0.00070752916864185,0.409
0.0012308947294348387,0.41
0.0027601262194998748,0.411
0.0035388216482419984,0.412
0.003368621985762903,0.413
0.0022572006943415556,0.414
0.0004348650504228399,0.415
-0.0017146864869135795,0.416
-0.003768499892980513,0.417
-0.005367083441073251,0.418
-0.006271381864956511,0.419
-0.006370967641142634,0.42
-0.00568551201473503,0.421
-0.004379755142517025,0.422
-0.002735881404225396,0.423
-0.0010489177280156516,0.424
0.0004723290262700085,0.425
0.0017085442591072595,0.426
0.0025839569150266396,0.427
0.003055656595585394,0.428
0.0031309988594243445,0.429
0.002883280528909471,0.43
0.002450556830209858,0.431
0.00199700921133424,0.432
0.001656437489847422,0.433
0.0015009530812023371,0.434
0.0015392258616121653,0.435
0.0017235561070857513,0.436
0.0019557240501697952,0.437
0.0020990540192784733,0.438
0.0020092799064055835,0.439
0.0015854261056239133,0.44
0.0008194713244851088,0.441
-0.00018954061271451316,0.442
-0.0012636032652549498,0.443
-0.0021967210428250894,0.444
-0.00281984706541833,0.445
-0.003052536901859383,0.446
-0.002895528412545139,0.447
-0.0023827358672203567,0.448
-0.0015591804895754033,0.449
-0.0004972525000860902,0.45
0.0006867345244996074,0.451
0.0018342017569142092,0.452
0.0027535020481826,0.453
0.0032359593359991053,0.454
0.0030858053174168017,0.455
0.0021590920101738067,0.456
0.00043146187253121217,0.457
-0.001912435844161737,0.458
-0.004476518456585347,0.459
-0.00678789095195927,0.46
-0.00844519831976419,0.461
-0.00916794801864462,0.462
-0.008783092183660822,0.463
-0.007238207454718868,0.464
-0.004656003522950801,0.465
-0.0013546167533975263,0.466
0.002223848216134438,0.467
0.00563077707940638,0.468
0.008499826261754363,0.469
0.010593020502311265,0.47
0.011828999454468294,0.471
0.0122903861867422,0.472
0.012159422989108349,0.473
0.011568791034699856,0.474
0.010480392355388255,0.475
0.008728002258944548,0.476
0.006203887340347368,0.477
0.003032515015951173,0.478
-0.00040731267887905676,0.479
-0.0036264948511925245,0.48
-0.006220579257183499,0.481
-0.007978795089961544,0.482
-0.008872426147401573,0.483
-0.00898708534110903,0.484
-0.008468835854460335,0.485
-0.007502997379114185,0.486
-0.006296236079221462,0.487
-0.005037665999486132,0.488
-0.0038681053366751697,0.489
-0.0028850284944864583,0.49
-0.0021545789757381906,0.491
-0.0016989051303538622,0.492
-0.0014760697278564583,0.493
-0.0013864209318081727,0.494
-0.0013051370964439393,0.495
-0.0011149100461826994,0.496
-0.0007269291301630362,0.497
-9.527435228217919e-05,0.498
0.0007710416422173958,0.499
0.0018021723243649148,0.5
0.002877862735343073,0.501
0.003846909979578604,0.502
0.004546162929629591,0.503
0.004837184407237979,0.504
0.004654046036364049,0.505
0.004025218589723693,0.506
0.0030716765642283764,0.507
0.002001209983092016,0.508
0.0010777402928434745,0.509
0.0005331369126543733,0.51
0.00045033852420334024,0.511
0.0007081750966279524,0.512
0.0010426803610017125,0.513
0.0011865084681139675,0.514
0.0009966166713964643,0.515
0.0005005170390543866,0.516
-0.00014411823015248934,0.517
-0.0007416059308593408,0.518
-0.0011537035664980478,0.519
-0.001344903017755851,0.52
-0.0013494208884300082,0.521
-0.0011908049723513725,0.522
-0.0008467539512646127,0.523
-0.00030202952268061926,0.524
0.00038633465105779427,0.525
0.0010766591003565345,0.526
0.0015770969577489553,0.527
0.001715646700718197,0.528
0.0014175676282576232,0.529
0.0007427133736593542,0.53
-0.00013414673400896632,0.531
-0.000983241208955878,0.532
-0.001585741111790323,0.533
-0.0017835003188663421,0.534
-0.0015167439868561043,0.535
-0.0008488636944534778,0.536
3.941722401798384e-05,0.537
0.0009071650929064273,0.538
0.0015509248397720112,0.539
0.0018807038689835883,0.54
0.0019207434507818718,0.541
0.0017509420424346091,0.542
0.0014474533640168581,0.543
0.0010520326608944005,0.544
0.0005543192353927424,0.545
-0.00011046145875957364,0.546
-0.001015455679477085,0.547
-0.0021583384830674464,0.548
-0.003409274164297549,0.549
-0.004545303925574391,0.55
-0.005361617788470294,0.551
-0.005790888610185466,0.552
-0.005924301801479109,0.553
-0.0058870131792766595,0.554
-0.0056795992969459275,0.555
-0.00514744739144671,0.556
-0.004077001728942997,0.557
-0.002285886132395664,0.558
0.00031437324292558406,0.559
0.0035985938648580625,0.56
0.007110406858378732,0.561
0.010126079529391083,0.562
0.011930851854331204,0.563
0.012142396337401147,0.564
0.010885298719239985,0.565
0.008712109227803978,0.566
0.006329401281890303,0.567
0.004309757832936845,0.568
0.002927992355126371,0.569
0.0021469820052260414,0.57
0.0017066814104592834,0.571
0.0012582743718449235,0.572
0.0005080536121492093,0.573
-0.0006663740779760262,0.574
-0.00217684126357341,0.575
-0.003785785478669889,0.576
-0.005227967310211803,0.577
-0.006316730611279784,0.578
-0.0069819652766983835,0.579
-0.007238305563199711,0.58
-0.007129729398309807,0.581
-0.0066921928599052456,0.582
-0.005950072098554445,0.583
-0.004937795493131643,0.584
-0.0037065403063219014,0.585
-0.0023106321062739714,0.586
-0.000811409058257379,0.587
0.0007019424077610169,0.588
0.002105032569275009,0.589
0.003252674915592813,0.59
0.004009946396618721,0.591
0.004294048039522774,0.592
0.004109433998534884,0.593
0.003561034781966502,0.594
0.0028434929408724394,0.595
0.0021976874212133284,0.596
0.0018257019554347345,0.597
0.0017966416447993021,0.598
0.002014937703658355,0.599
0.0022869265254700684,0.6
0.0024292560480097232,0.601
0.002329487689433591,0.602
0.0019450575675223972,0.603
0.0012803631316788845,0.604
0.00035566143975187544,0.605
-0.0008112639592807363,0.606
-0.0021776940522413475,0.607
-0.003626666570412754,0.608
-0.004953382714767627,0.609
-0.005903317812225739,0.61
-0.006242809404082578,0.611
-0.005840276531683315,0.612
-0.004716473964054207,0.613
-0.003030676116609672,0.614
-0.0010262898855346377,0.615
0.0010310827063058393,0.616
0.002917199153445343,0.617
0.004492667181911321,0.618
0.005685952858679117,0.619
0.006432824792312305,0.62
0.006653371422417577,0.621
0.006295558056581612,0.622
0.005388785310865822,0.623
0.004064414974156851,0.624
0.0025481062099991705,0.625
0.0011201737318139397,0.626
2.884761956668286e-05,0.627
-0.000608842844309286,0.628
-0.0008463475479480885,0.629
-0.0008600146996341747,0.63
-0.0008583898691325951,0.631
-0.0010042017031874578,0.632
-0.0013586409348074159,0.633
-0.0018509555896108708,0.634
-0.002312666531935883,0.635
-0.0025707813012248526,0.636
-0.002524452870888744,0.637
-0.0021725162132475283,0.638
-0.0016131007987081126,0.639
-0.0010117589104121471,0.64
-0.0005320792589511709,0.641
-0.0002660857322085189,0.642
-0.00021264921872941027,0.643
-0.00030766447976588005,0.644
-0.00046527246875920786,0.645
-0.0006040969127785536,0.646
-0.0006692436880014277,0.647
-0.0006499848629964677,0.648
-0.0005823013684312392,0.649
-0.000545989981818666,0.65
-0.0006336285976405769,0.651
-0.0008645579601760599,0.652
-0.0011272950155878602,0.653
-0.0012285638273916238,0.654
-0.0009886803381222952,0.655
-0.0003217546790178425,0.656
0.0007098644135955594,0.657
0.00190712580779627,0.658
0.0030152815751276103,0.659
0.0038081791706327753,0.66
0.004134988860512494,0.661
0.003944654880391538,0.662
0.00330923283240157,0.663
0.0024200660112971943,0.664
0.0015175826898036944,0.665
0.0007894663329528543,0.666
0.0003103364238921425,0.667
4.446399339919087e-05,0.668
-0.00010645952294475723,0.669
-0.00023885428307684846,0.67
-0.00040516300572985544,0.671
-0.0006102274947558339,0.672
-0.0008309004116545457,0.673
-0.001042836028543174,0.674
-0.001234126927751464,0.675
-0.001393759438936585,0.676
-0.0014960804357061074,0.677
-0.0015091048153488185,0.678
-0.0014280628487389954,0.679
-0.001298462299521159,0.68
-0.0011935705367696642,0.681
-0.001162817113770008,0.682
-0.0011937698186570572,0.683
-0.0012183262384655744,0.684
-0.0011563044121682183,0.685
-0.0009451120757670661,0.686
-0.0005354149682768235,0.687
0.00010471846171739055,0.688
0.0009530082364556179,0.689
0.0019015746019212197,0.69
0.0027746394737855843,0.691
0.003391341194676884,0.692
0.0036380817445526735,0.693
0.003506352277117644,0.694
0.0030805256066434323,0.695
0.002503577087219597,0.696
0.001934416635081495,0.697
0.0014896143983502681,0.698
0.0011905069624444753,0.699
0.0009593570156618555,0.7
0.000669329971841358,0.701
0.0002049651966161759,0.702
-0.0004906299526382883,0.703
-0.0013803921329844518,0.704
-0.002331438584750584,0.705
-0.0031736911157649976,0.706
-0.003785328522284079,0.707
-0.004118871301986029,0.708
-0.004146629961949444,0.709
-0.0038158413353815753,0.71
-0.0030756016401752954,0.711
-0.0019261781291829607,0.712
-0.00044466953437606236,0.713
0.0012053303287542772,0.714
0.002776904775371518,0.715
0.003969597614254308,0.716
0.004506051017451208,0.717
0.004236868892113422,0.718
0.0032101729132744837,0.719
0.0016681165807558025,0.72
-2.2774969094413585e-05,0.721
-0.0014753224895323284,0.722
-0.0023830361613261077,0.723
-0.0025946230769841377,0.724
-0.0021495254604775938,0.725
-0.0012653319746814902,0.726
-0.0002584239200036301,0.727
0.0005813920417507741,0.728
0.0010827614917137832,0.729
0.0012122782225066375,0.73
0.0010547894426862327,0.731
0.0007787409353964526,0.732
0.0005796503571612634,0.733
0.0006037032514329216,0.734
0.000876719192311559,0.735
0.0012731665492776705,0.736
0.0015592875910124652,0.737
0.00151856050632223,0.738
0.0010824611507330843,0.739
0.0003608796046021287,0.74
-0.00042656405902920984,0.741
-0.0010524435994604714,0.742
-0.0013793815411135815,0.743
-0.0014122576485677966,0.744
-0.00126257075750097,0.745
-0.0010563020407306535,0.746
-0.0008594175061956367,0.747
-0.0006568239425313604,0.748
-0.0003850955126962328,0.749
9.929803095455744e-06,0.75
0.000531774584103656,0.751
0.0011202084655354539,0.752
0.0016674625652473838,0.753
0.002060921518560968,0.754
0.0022296406042849144,0.755
0.0021670073723569685,0.756
0.0019138877892886925,0.757
0.0015245688862977169,0.758
0.0010492244333867216,0.759
0.000526730258244672,0.76
-1.8829474853351727e-05,0.761
-0.0005654422209037373,0.762
-0.0010765050277161746,0.763
-0.0015052339789065879,0.764
-0.0018095966035949734,0.765
-0.00195702854498669,0.766
-0.001927724666946045,0.767
-0.0017162377402055978,0.768
-0.001328175415682332,0.769
-0.0007933845107583032,0.77
-0.0001862416449716801,0.771
0.0003821728491187874,0.772
0.0007987173723661259,0.773
0.0009824727137026164,0.774
0.0009045131013981262,0.775
0.000599824740083304,0.776
0.00017484717880081948,0.777
-0.00020762584243054342,0.778
-0.0003795101096818014,0.779
-0.00023219396105837742,0.78
0.00023949101508607886,0.781
0.0009271894132830036,0.782
0.0016391632577636953,0.783
0.0021707248037323877,0.784
0.00237638355150927,0.785
0.0022014792075486867,0.786
0.0016860942959920164,0.787
0.0009542985549374297,0.788
0.00016869976132245947,0.789
-0.0005319620529114761,0.79
-0.0010752551662889728,0.791
-0.0014646546569943397,0.792
-0.0017506667469202233,0.793
-0.0019841566476397595,0.794
-0.0021840945274142383,0.795
-0.002327430721373618,0.796
-0.0023573406662348124,0.797
-0.0022019213834978775,0.798
-0.0017918896361281127,0.799
-0.001081500184408857,0.8
-8.614815694120035e-05,0.801
0.0010782563187901341,0.802
0.0021981790054186124,0.803
0.0030399442922535358,0.804
0.0034641501795674443,0.805
0.0034829374616507742,0.806
0.0032250479769990294,0.807
0.002852945831381624,0.808
0.0024874642388868096,0.809
0.002178370439897239,0.81
0.0019125915517770047,0.811
0.0016283135528711204,0.812
0.001235545349361916,0.813
0.0006562925170082011,0.814
-0.0001214922351946454,0.815
-0.001009375450196925,0.816
-0.0018424569149134262,0.817
-0.002454586100380975,0.818
-0.0027533659873968967,0.819
-0.0027414922182927614,0.82
-0.002474353128599752,0.821
-0.0020132962372416347,0.822
-0.0014277182775413312,0.823
-0.0008190612086459062,0.824
-0.0003167953697435606,0.825
-4.50001036543506e-05,0.826
-7.9117647405774e-05,0.827
-0.00039599331654671644,0.828
-0.000845130923065826,0.829
-0.0011910195821026117,0.83
-0.001215627890410493,0.831
-0.000810959911068735,0.832
-1.4420968672909098e-05,0.833
0.0010089867827049637,0.834
0.0020172967543872957,0.835
0.0027605749168340523,0.836
0.0030448343745940413,0.837
0.0027658049044661202,0.838
0.0019239961405467323,0.839
0.0006454394080900815,0.84
-0.00081101152313101,0.841
-0.002101113184749496,0.842
-0.0028985893754867103,0.843
-0.0030001785862215063,0.844
-0.002379309748147945,0.845
-0.001185638716110972,0.846
0.0002970677776213841,0.847
0.0017361163686390557,0.848
0.002855388125775477,0.849
0.003508850829181802,0.85
0.0036953115245682514,0.851
0.0035227739417514657,0.852
0.003143057404635819,0.853
0.00269451647177342,0.854
0.002277089841351095,0.855
0.0019400573645619592,0.856
0.001670692615745915,0.857
0.00140432698379825,0.858
0.0010587985283416485,0.859
0.0005741330714386319,0.86
-6.185762514820047e-05,0.861
-0.0008150597218714707,0.862
-0.0016188607477102615,0.863
-0.0023900263871610445,0.864
-0.003056813843337283,0.865
-0.0035791696932590614,0.866
-0.0039389885832154005,0.867
-0.004115062968699758,0.868
-0.004067843536134363,0.869
-0.0037569828265382023,0.87
-0.003183388827430483,0.871
-0.002413384663666568,0.872
-0.0015663323329869864,0.873
-0.0007693727996135764,0.874
-9.120618614787119e-05,0.875
0.0004956200831564084,0.876
0.001081162018598426,0.877
0.0017380463185816312,0.878
0.0024628093085118964,0.879
0.003178726997863341,0.88
0.0037713808169111,0.881
0.004119474336389966,0.882
0.004120607266873596,0.883
0.0037233084984585572,0.884
0.002964427222885103,0.885
0.001970286778367792,0.886
0.0009022813342889719,0.887
-9.378370034628818e-05,0.888
-0.000897835303183087,0.889
-0.0014171637643724628,0.89
-0.0016097207377927124,0.891
-0.0015088839439047076,0.892
-0.0012081697724257055,0.893
-0.0008081132707096527,0.894
-0.0003698764243372784,0.895
9.062719002563665e-05,0.896
0.0005769427741112133,0.897
0.0010779117978041318,0.898
0.0015403852912620935,0.899
0.0018739142024916397,0.9
0.00198697877242696,0.901
0.0018196827106866736,0.902
0.0013635539283100191,0.903
0.0006737880160565533,0.904
-0.00014459416214469942,0.905
-0.0009761395171514504,0.906
-0.0017221307475158197,0.907
-0.002299243762019636,0.908
-0.0026318133028284257,0.909
-0.0026622868535127247,0.91
-0.0023771169158729333,0.911
-0.001828670536139676,0.912
-0.0011401857162871207,0.913
-0.00047948980133576146,0.914
-6.7705649083936e-06,0.915
0.0001744308673307289,0.916
5.452860281963884e-05,0.917
-0.0002690852808711831,0.918
-0.0006330853916597773,0.919
-0.0008728593595287539,0.92
-0.0008527638211108485,0.921
-0.00048004835599242224,0.922
0.00025869454350319017,0.923
0.0012595748602484019,0.924
0.002311950820252301,0.925
0.0031747384368242225,0.926
0.003667720906703759,0.927
0.003716326487321772,0.928
0.0033493202551043728,0.929
0.002671718672398924,0.93
0.001821392631917167,0.931
0.0009326428249594827,0.932
0.00012743972661130067,0.933
-0.00048812775519780965,0.934
-0.0008488494479160281,0.935
-0.0009608301878714692,0.936
-0.0009063739052005925,0.937
-0.0008101638898307007,0.938
-0.0007745951608657069,0.939
-0.000830911142706594,0.94
-0.0009537974070166597,0.941
-0.0011105511921200828,0.942
-0.0012885211667028114,0.943
-0.0014871783592873558,0.944
-0.0016854612799216148,0.945
-0.0018186264822069571,0.946
-0.0017915791537177388,0.947
-0.001513410613843545,0.948
-0.0009432770646116851,0.949
-0.00013317169160073162,0.95
0.0007737784514315627,0.951
0.0015945212779528465,0.952
0.002170898299876706,0.953
0.002411689695520221,0.954
0.0022995073958935715,0.955
0.001884906662880937,0.956
0.0012742837113856609,0.957
0.0005992531194974739,0.958
-1.4794891639423991e-05,0.959
-0.0004672849520377753,0.96
-0.0007018614357700743,0.961
-0.0007224356352615432,0.962
-0.0005814129170288515,0.963
-0.000336144296110024,0.964
-9.016365063396433e-07,0.965
0.0004648844303654966,0.966
0.0011057899392475383,0.967
0.0018864052845706091,0.968
0.002651660458480828,0.969
0.0031728610028083177,0.97
0.003245269352987792,0.971
0.002772033943495022,0.972
0.001792969257043115,0.973
0.00046713333677454423,0.974
-0.000966173617893668,0.975
-0.002244179657413167,0.976
-0.0031471464680642757,0.977
-0.0035511572513598436,0.978
-0.0034500759935549097,0.979
-0.0029486669279369694,0.98
-0.0022342561912544754,0.981
-0.0015210004260461393,0.982
-0.0009718484894659664,0.983
-0.0006368417156652965,0.984
-0.0004554065068995782,0.985
-0.00032575968102155654,0.986
-0.0001776694428823304,0.987
8.815778384529781e-06,0.988
0.00023002905670101853,0.989
0.0004940468231022943,0.99
0.0008354825919324033,0.991
0.0012923428921629788,0.992
0.0018549387664100897,0.993
0.00243218801704011,0.994
0.002876256403582779,0.995
0.0030483582273203276,0.996
0.0028714818488671844,0.997
0.002346451189410859,0.998
0.0015455595509539825,0.999
0.0005950881116039007,1.0
-0.00035488774904034637,1.001
-0.0011698427102400705,1.002
-0.0017612316254774982,1.003
-0.00208884653946257,1.004
-0.0021418988872170296,1.005
-0.0019249595071276074,1.006
-0.0014609522187260747,1.007
-0.0008104594807424826,1.008
-8.669626767217488e-05,1.009
0.0005744419407264235,1.01
0.0010720105599176426,1.011
0.0013615251353586058,1.012
0.001438034555469588,1.013
0.001318583363395114,1.014
0.0010369021778756703,1.015
0.0006504257952807257,1.016
0.0002460716765444219,1.017
-8.25762873538806e-05,1.018
-0.00027958449493991434,1.019
-0.00034962991159270357,1.02
-0.00033917123540187864,1.021
-0.0002924947528291254,1.022
-0.00022140235103415286,1.023
-0.00012064950606263181,1.024
-2.4956604165382243e-06,1.025
0.0001080400374171241,1.026
0.00021224437235285568,1.027
0.00035017290463177514,1.028
0.0005622726651018724,1.029
0.0008338469816111188,1.03
0.001069689166568296,1.031
0.0011255608321443784,1.032
0.0008862145546914784,1.033
0.0003425035348474623,1.034
-0.0003861393350741407,1.035
-0.0010995343826762569,1.036
-0.0016013410415954342,1.037
-0.0017680682561235245,1.038
-0.0015793436843399465,1.039
-0.0011176800718406357,1.04
-0.0005357821472599686,1.041
5.921801517906963e-06,1.042
0.0003971776767683367,1.043
0.000603918203360232,1.044
0.0006590562041668566,1.045
0.0006260826253190485,1.046
0.0005670290190276,1.047
0.0005375880657723689,1.048
0.0005839914632204236,1.049
0.0007231521896546951,1.05
0.0009311707269975821,1.051
0.001152490133064431,1.052
0.0013065197839891107,1.053
0.0012911165704454018,1.054
0.0010186219137496171,1.055
0.0004823893229730433,1.056
-0.0002052259470300934,1.057
-0.0008518560898462416,1.058
-0.0012811976428428328,1.059
-0.0014034351028383856,1.06
-0.0012109406442311474,1.061
-0.0007442027640298677,1.062
-7.990164060630694e-05,1.063
0.0006747361740815642,1.064
0.0014010354463877234,1.065
0.001981570254884779,1.066
0.0023046919871670237,1.067
0.0022784929222685064,1.068
0.0018584832630050602,1.069
0.001082016613873294,1.07
8.159986462065073e-05,1.071
-0.0009418483312378014,1.072
-0.0017710593969438636,1.073
-0.002233332579707702,1.074
-0.002252500180190269,1.075
-0.0018692511100171269,1.076
-0.0012251778367897788,1.077
-0.0005158319441278669,1.078
7.753888423711903e-05,1.079
0.00044716972775610833,1.08
0.000579435195275275,1.081
0.0005352607640156335,1.082
0.00040428518289058006,1.083
0.00026133992263703304,1.084
0.00015156949946967664,1.085
9.451682006794336e-05,1.086
8.607633219892551e-05,1.087
9.855417944990915e-05,1.088
9.220502115698471e-05,1.089
3.799159017985568e-05,1.09
-6.973075329086377e-05,1.091
-0.00021385520645843394,1.092
-0.0003503145854392896,1.093
-0.00041050452944017574,1.094
-0.0003330907422793693,1.095
-0.00010134035976852633,1.096
0.00025468143244876114,1.097
0.0006885464268631305,1.098
0.0011597448048670264,1.099
0.001623205542135018,1.1
0.0020100461958726837,1.101
0.0022361942519503533,1.102
0.002242502680149496,1.103
0.002033340574862658,1.104
0.001675797117001731,1.105
0.0012593663914204553,1.106
0.0008500648497188213,1.107
0.00046575332526494867,1.108
8.144609627331619e-05,1.109
-0.0003418974487472238,1.11
-0.0008227975738074514,1.111
-0.0013331483876281762,1.112
-0.001796370268880958,1.113
-0.002110916304420743,1.114
-0.002179880694410475,1.115
-0.0019455616501790104,1.116
-0.0014251574207322301,1.117
-0.0007130682530212092,1.118
6.122090305530369e-05,1.119
0.0007736234599008468,1.12
0.0013044722131323586,1.121
0.0015207979269170934,1.122
0.001301876405939421,1.123
0.0006241141717138116,1.124
-0.00037272421699693784,1.125
-0.0014197252097526295,1.126
-0.002227224462945306,1.127
-0.0025867458400199196,1.128
-0.002418824871081347,1.129
-0.0017653263272357676,1.13
-0.0007560120679849224,1.131
0.00042111460455453934,1.132
0.0015450464222575991,1.133
0.0024016381173923435,1.134
0.0028458095756776283,1.135
0.002856404982617196,1.136
0.0025290909247628708,1.137
0.002012257494540249,1.138
0.0014497170783904852,1.139
0.0009497650261820247,1.14
0.0005712132071188187,1.141
0.0003302727219530705,1.142
0.0002189349130421327,1.143
0.00022005611207276797,1.144
0.0003095982444437514,1.145
0.00045356218657290076,1.146
0.0006155705419135738,1.147
0.0007562412513467303,1.148
0.0008170566284400731,1.149
0.0007301878863068893,1.15
0.0004590224302935974,1.151
2.3408971149468464e-05,1.152
-0.000503557444733534,1.153
-0.0010139875846893122,1.154
-0.0013972257787827856,1.155
-0.0015729893244137308,1.156
-0.0015157573027424023,1.157
-0.0012709497019578503,1.158
-0.000940931886154769,1.159
-0.0006393459981497534,1.16
-0.00045229887428694467,1.161
-0.00041697554282143785,1.162
-0.0005170646060298509,1.163
-0.0007084367311048625,1.164
-0.0009476783467568101,1.165
-0.001187995165479136,1.166
-0.0013576348950700926,1.167
-0.0013566709810305022,1.168
-0.0010943856784625125,1.169
-0.0005469883942463567,1.17
0.0002203995895017389,1.171
0.0010888597349051528,1.172
0.0019338692766476316,1.173
0.0026420408695949776,1.174
0.0031143024487983754,1.175
0.003289736826783898,1.176
0.0031757752769501673,1.177
0.00284416315399604,1.178
0.0023857718276069483,1.179
0.0018698144252840625,1.18
0.0013420954772879958,1.181
0.0008348147041839434,1.182
0.0003575890629082172,1.183
-0.00010738809367289229,1.184
-0.000583861278379984,1.185
-0.0010807823621218743,1.186
-0.0015880820903945482,1.187
-0.0020647976720456337,1.188
-0.0024286815167608835,1.189
-0.0025864871640244895,1.19
-0.0024902573545343316,1.191
-0.0021659833372454943,1.192
-0.0016936479326595995,1.193
-0.0011555266322180616,1.194
-0.0005954697561886218,1.195
-2.901763661111739e-05,1.196
0.0005161723902080129,1.197
0.0009862828262336822,1.198
0.0013310310774126363,1.199
0.0015408561843305304,1.2
0.0016489216588566973,1.201
0.0016979368885587057,1.202
0.001702387291462168,1.203
0.0016311338210317314,1.204
0.001427657192736723,1.205
0.0010605020979565474,1.206
0.0005626915766246654,1.207
3.209988063071243e-05,1.208
-0.00040744560053973,1.209
-0.000664246223281553,1.21
-0.0007124068160471071,1.211
-0.0005795355263007948,1.212
-0.00031618571090756076,1.213
1.766594746967119e-05,1.214
0.0003500415548481194,1.215
0.0006085522273374274,1.216
0.0007526687288779549,1.217
0.0007897785540537136,1.218
0.0007501681455376097,1.219
0.0006467606705330443,1.22
0.0004615825677841047,1.221
0.0001714048009577611,1.222
-0.00021785614947427171,1.223
-0.0006628390535386183,1.224
-0.0010947045516615794,1.225
-0.0014298710535981315,1.226
-0.001576047333976301,1.227
-0.0014517453867550914,1.228
-0.001038285940648967,1.229
-0.00042775432796844355,1.23
0.00019887712274749083,1.231
0.000657021568273904,1.232
0.0008365057437031943,1.233
0.000732569020369178,1.234
0.00043530398140557405,1.235
9.043136479847692e-05,1.236
-0.00014774189253510128,1.237
-0.0001610634922855869,1.238
9.316527782381026e-05,1.239
0.0005731230650383515,1.24
0.0011740007076145253,1.241
0.0017503147438510558,1.242
0.002142699437244316,1.243
0.002234358250922313,1.244
0.0020146637976873674,1.245
0.001582083002465671,1.246
0.0010701726584906768,1.247
0.0005708617741462725,1.248
0.00011938556385760595,1.249
-0.000277619228609498,1.25
-0.0006162887406812678,1.251
-0.0008853878152004196,1.252
-0.0010718713343250545,1.253
-0.001182690577784598,1.254
-0.001257699668499878,1.255
-0.0013471862737238654,1.256
-0.0014695124537335753,1.257
-0.0015799361690862358,1.258
-0.0015789627843873744,1.259
-0.0013723704201167512,1.26
-0.0009399852159833505,1.261
-0.00035564391062839886,1.262
0.00024815071428318093,1.263
0.0007386429205114124,1.264
0.0010309423606828863,1.265
0.0011105821271746217,1.266
0.0010325631876804504,1.267
0.0008976992882363075,1.268
0.0008021892603262629,1.269
0.0007876621851391824,1.27
0.0008401000016798982,1.271
0.000930021690837326,1.272
0.001041110174981979,1.273
0.0011631361971359677,1.274
0.0012675900209145588,1.275
0.0013026945796665202,1.276
0.0012094068418866026,1.277
0.0009363012938475138,1.278
0.0004734952447869107,1.279
-9.93643448673453e-05,1.28
-0.0006138413176925851,1.281
-0.0008842325131295553,1.282
-0.0008092969154777624,1.283
-0.0004362385153959778,1.284
5.241437396940356e-05,1.285
0.0004107005898745788,1.286
0.00042747010995056373,1.287
1.556363199615433e-05,1.288
-0.0007414840244867482,1.289
-0.0016069096428691634,1.29
-0.0022820944538982724,1.291
-0.002533646489136389,1.292
-0.002280862502054744,1.293
-0.00160140302421611,1.294
-0.0006734118475493136,1.295
0.0002970718724737623,1.296
0.0011320312414632295,1.297
0.0017210023090285446,1.298
0.002036293916223467,1.299
0.0021131144194923923,1.3
0.0020221804365929,1.301
0.0018493957119554022,1.302
0.0016619348270201688,1.303
0.0014807066750512899,1.304
0.001298285267402932,1.305
0.001116673647974048,1.306
0.0009512372623091246,1.307
0.0007973987710961151,1.308
0.000604721755510271,1.309
0.00030285375670265546,1.31
-0.00013968776813710887,1.311
-0.0006911127007961603,1.312
-0.0012805562147057232,1.313
-0.0018318908047820993,1.314
-0.002279518281944189,1.315
-0.0025639957315130623,1.316
-0.002628732309271734,1.317
-0.0024318570199806473,1.318
-0.0019570354219451153,1.319
-0.0012224848580088597,1.32
-0.00030691715018204245,1.321
0.000638731639294957,1.322
0.001435724337291526,1.323
0.001953172273482095,1.324
0.0021656652845799306,1.325
0.002157933706243561,1.326
0.0020709156907832847,1.327
0.0020255490882099604,1.328
0.0020659713280407905,1.329
0.002151621741883889,1.33
0.0022011399992455487,1.331
0.002147525997522745,1.332
0.0019576149149458516,1.333
0.0016127066195153487,1.334
0.0010946477140855928,1.335
0.00040392885296492884,1.336
-0.00041140791377038415,1.337
-0.001240176788017048,1.338
-0.001924714968726215,1.339
-0.002316680827233855,1.34
-0.0023384916462978085,1.341
-0.002011959424651001,1.342
-0.0014492483099327253,1.343
-0.0008164867707128598,1.344
-0.0002880371012733996,1.345
-1.7230952560253897e-05,1.346
-0.00012165086127270474,1.347
-0.0006507451611535116,1.348
-0.0015375086568827324,1.349
-0.0025851947734482775,1.35
-0.0035179644803941873,1.351
-0.004064602017524568,1.352
-0.0040318855476369694,1.353
-0.003352541467512039,1.354
-0.002099442703929289,1.355
-0.00045715535395951024,1.356
0.001335131101349584,1.357
0.0030481495161337885,1.358
0.004522211307988775,1.359
0.00569774762454486,1.36
0.006587632481505229,1.361
0.007204597342268198,1.362
0.007504359033352235,1.363
0.0073833702767632054,1.364
0.006715543711443309,1.365
0.005403833210147969,1.366
0.003436458711882929,1.367
0.0009356963307116012,1.368
-0.0018160671211186546,1.369
-0.004400706353802983,1.37
-0.006370980460019706,1.371
-0.0074014866699963185,1.372
-0.007380907172478522,1.373
-0.0064059631774003745,1.374
-0.004721919758578239,1.375
-0.0026472972514352067,1.376
-0.0004928339742678876,1.377
0.0015011143038309055,1.378
0.003171274237401281,1.379
0.004391263330097409,1.38
0.005039543119510427,1.381
0.005009954290614041,1.382
0.004256831898615844,1.383
0.002841802306855523,1.384
0.0009494267247946288,1.385
-0.0011460420510103553,1.386
-0.0031569313618360793,1.387
-0.004870931644509978,1.388
-0.006210990635462135,1.389
-0.007228284582190374,1.39
-0.008028172005078204,1.391
-0.008675040145208581,1.392
-0.009120417296756923,1.393
-0.009184657052916824,1.394
-0.00861083679125718,1.395
-0.007158374414174541,1.396
-0.004674817381178387,1.397
-0.0011323216702427551,1.398
0.003337420800981621,1.399
0.00839102104486757,1.4
0.013442171187414184,1.401
0.01770920063965935,1.402
0.02037216272056277,1.403
0.020836543340795242,1.404
0.018987605000721372,1.405
0.015242971172602099,1.406
0.010370660731598346,1.407
0.00522255782864769,1.408
0.0005213025094273502,1.409
-0.003247688582726457,1.41
-0.005858113521499883,1.411
-0.0073384127576451436,1.412
-0.007942269227855391,1.413
-0.008038865286894912,1.414
-0.007953905136999588,1.415
-0.007861188890688221,1.416
-0.00776483204294023,1.417
-0.007547677547407001,1.418
-0.007054204127975011,1.419
-0.00618573554324946,1.42
-0.004972216707134641,1.421
-0.0035824609036600227,1.422
-0.0022645679672285233,1.423
-0.001244288866759753,1.424
-0.0006399251261955675,1.425
-0.00043421730205643713,1.426
-0.0004912237537298057,1.427
-0.000589385619746322,1.428
-0.0004719387331202354,1.429
7.212824294215649e-05,1.43
0.001132402541603266,1.431
0.002659001572804435,1.432
0.004495249944198521,1.433
0.006413618267265295,1.434
0.008132970744961443,1.435
0.009339745386376334,1.436
0.009740777878934546,1.437
0.009139815905356341,1.438
0.007485257750636061,1.439
0.004848525390037023,1.44
0.0013804371293365085,1.441
-0.002690013808503095,1.442
-0.007045362534605252,1.443
-0.011303422145735535,1.444
-0.015039161397008836,1.445
-0.017777679043382715,1.446
-0.019014301729479165,1.447
-0.018318495703404523,1.448
-0.015491280576161373,1.449
-0.010669165138556053,1.45
-0.004293893346516813,1.451
0.003001840312897878,1.452
0.010484548478218314,1.453
0.017368426708688565,1.454
0.02288450688001391,1.455
0.026403213269958908,1.456
0.027561108922178945,1.457
0.026327565935178817,1.458
0.022995350174065902,1.459
0.018104097390454914,1.46
0.012326830625344455,1.461
0.0063591432448475375,1.462
0.0008122391139150694,1.463
-0.0039138337413130025,1.464
-0.007739867725887435,1.465
-0.010901261304380277,1.466
-0.013791396600838286,1.467
-0.016733373158046166,1.468
-0.019802521706674344,1.469
-0.022785741177723168,1.47
-0.025273357077311404,1.471
-0.026792608907723878,1.472
-0.026893859629615054,1.473
-0.025204108653283007,1.474
-0.021509381208735644,1.475
-0.01584844214027182,1.476
-0.008556370630020231,1.477
-0.00023665787368204748,1.478
0.008338796306120487,1.479
0.01638112401878268,1.48
0.023223212083036352,1.481
0.028402964950001594,1.482
0.03169517215744754,1.483
0.033087434493590265,1.484
0.032684641698641444,1.485
0.03058393884174434,1.486
0.02682634613854587,1.487
0.02146720328917921,1.488
0.014691399339137089,1.489
0.006882020468343147,1.49
-0.0013926249508814277,1.491
-0.009448806369547447,1.492
-0.01657925864247978,1.493
-0.022159450726781896,1.494
-0.02575234113162602,1.495
-0.027171531922889094,1.496
-0.026480257847132396,1.497
-0.023935324118758282,1.498
-0.019911254186936414,1.499
-0.014844641484092527,1.5
-0.009197580910311604,1.501
-0.003431363906722433,1.502
0.002007626309189621,1.503
0.0067257177290488655,1.504
0.01045641301410594,1.505
0.01309588595592003,1.506
0.014629590522862305,1.507
0.014994599475344664,1.508
0.0140171929919519,1.509
0.011522466426577534,1.51
0.00753148472429365,1.511
0.002371364183223007,1.512
-0.0033465925809543747,1.513
-0.008810005664945867,1.514
-0.013119453316032915,1.515
-0.015470342200509676,1.516
-0.015393547534065768,1.517
-0.012922158591298163,1.518
-0.008558858920970868,1.519
-0.00308642628293212,1.52
0.0026439595872093,1.521
0.00787949287584077,1.522
0.012076032808684769,1.523
0.01492649274213141,1.524
0.0163068627773524,1.525
0.016200009227011418,1.526
0.014661896629383527,1.527
0.011843480830566324,1.528
0.008034667234947243,1.529
0.003682200330136851,1.53
-0.0006348558936364178,1.531
-0.0042713832582512296,1.532
-0.006658872081982792,1.533
-0.007502191196286683,1.534
-0.006895774701067002,1.535
-0.005271719133644201,1.536
-0.003243106858612714,1.537
-0.0014566320263426642,1.538
-0.00046687046619339344,1.539
-0.0005914063778832242,1.54
-0.0018036225076577634,1.541
-0.003747861918748161,1.542
-0.005870895373970151,1.543
-0.007593847605454784,1.544
-0.008451664418994613,1.545
-0.008179931797541564,1.546
-0.0067423552186485144,1.547
-0.004285822819745246,1.548
-0.0010655388771956993,1.549
0.002589931082430704,1.55
0.0062752188156135055,1.551
0.00951888328156873,1.552
0.01184342690334134,1.553
0.012877010610228421,1.554
0.012456544932451142,1.555
0.010631470614510951,1.556
0.007577235428772549,1.557
0.003524851569498515,1.558
-0.0012297992913586104,1.559
-0.006264070955753236,1.56
-0.01100497421504809,1.561
-0.01480669171130549,1.562
-0.01707429815897318,1.563
-0.017356854600742256,1.564
-0.015404917406220948,1.565
-0.011235418078144982,1.566
-0.005221884798740122,1.567
0.001869493832891591,1.568
0.008979231105855615,1.569
0.01495259216591609,1.57
0.018753528329868194,1.571
0.019666776201575625,1.572
0.017471773568045405,1.573
0.012503790952928792,1.574
0.0055494210225889495,1.575
-0.002332905038604889,1.576
-0.009965569089214896,1.577
-0.016185530381739935,1.578
-0.019981877304090193,1.579
-0.020629565154053172,1.58
-0.017835845170456083,1.581
-0.011868541830266538,1.582
-0.003557924402285346,1.583
0.005864964204257947,1.584
0.015005286481539997,1.585
0.022522858972354145,1.586
0.02732118050805224,1.587
0.0287187485275631,1.588
0.026571703041339177,1.589
0.02130558541514484,1.59
0.013822083939779252,1.591
0.0052944867175465935,1.592
-0.0030526483028535745,1.593
-0.010105958070214636,1.594
-0.015006290081896936,1.595
-0.01731939632604526,1.596
-0.017158194448125687,1.597
-0.015139307456088148,1.598
-0.012179684594668476,1.599
-0.009253801087192065,1.6
-0.0071919466195198185,1.601
-0.0065027615609606435,1.602
-0.007237193019738817,1.603
-0.008982817356924728,1.604
-0.011011637325559747,1.605
-0.01249129720389081,1.606
-0.01266138624812666,1.607
-0.010965882733215125,1.608
-0.007172039425929969,1.609
-0.0014552310373271249,1.61
0.005587199505125214,1.611
0.01300870328998953,1.612
0.019678941942275204,1.613
0.02451414729589397,1.614
0.026713197102598635,1.615
0.025937647149455508,1.616
0.022373591010758486,1.617
0.01665034484007038,1.618
0.009657210012627216,1.619
0.002326303569081422,1.62
-0.0045527002712973125,1.621
-0.010428702258733718,1.622
-0.01498260613507061,1.623
-0.018063122473246297,1.624
-0.019610647699149882,1.625
-0.01957874722569097,1.626
-0.017883452002619586,1.627
-0.01446042963776139,1.628
-0.009439664958738195,1.629
-0.0032942874322479526,1.63
0.003163886734402166,1.631
0.008906642839627513,1.632
0.012859546603175762,1.633
0.01412876888616377,1.634
0.012270486664189577,1.635
0.007513093252801165,1.636
0.0008426671981031934,1.637
-0.006118808615724406,1.638
-0.011470203309481128,1.639
-0.013536606469946033,1.64
-0.011344494119095484,1.641
-0.004906011543267579,1.642
0.004750444186261487,1.643
0.015777225844270968,1.644
0.025877398503412526,1.645
0.03280479779411024,1.646
0.034908203254009465,1.647
0.03153183046397391,1.648
0.023123432678052166,1.649
0.011098351548110428,1.65
-0.002441394871127138,1.651
-0.015144919096072497,1.652
-0.024968272223612035,1.653
-0.030650395720568255,1.654
-0.031942687397476396,1.655
-0.029570670391956964,1.656
-0.024949604523477654,1.657
-0.019705752819712815,1.658
-0.01516424402295022,1.659
-0.011983739550874355,1.66
-0.01002868531747145,1.661
-0.008519277295266792,1.662
-0.006423583803920341,1.663
-0.002916662850062819,1.664
0.0022858138275529336,1.665
0.00879756717386672,1.666
0.015654529772512395,1.667
0.02160993944150277,1.668
0.025518322922200805,1.669
0.026658606539735053,1.67
0.024897101948479924,1.671
0.020663179651525664,1.672
0.01477604325591053,1.673
0.00820976206674163,1.674
0.0018833018934676692,1.675
-0.0034885327473946374,1.676
-0.007479414556040344,1.677
-0.009959263985029578,1.678
-0.011026155272295748,1.679
-0.010907625032304387,1.68
-0.009881139351755464,1.681
-0.008230100901486742,1.682
-0.006238812741672486,1.683
-0.0041866328426812364,1.684
-0.002281725986295516,1.685
-0.0005895815877416979,1.686
0.0009366544771325962,1.687
0.0023250867558942947,1.688
0.0034251413670428428,1.689
0.0038544424825098303,1.69
0.0032028371139520015,1.691
0.0013903780708952329,1.692
-0.0011432929207671483,1.693
-0.003575439796542077,1.694
-0.005036740752441523,1.695
-0.004940893424224619,1.696
-0.0031751515076289026,1.697
-9.90976643229133e-05,1.698
0.003619812662261336,1.699
0.007211492980171745,1.7
0.009931989757142535,1.701
0.011118396620079464,1.702
0.010253436660096147,1.703
0.007092478693321726,1.704
0.001835003745695927,1.705
-0.004763150399881974,1.706
-0.011487671634235435,1.707
-0.01699786364588866,1.708
-0.02022782153591707,1.709
-0.020671550289053757,1.71
-0.018474896764914546,1.711
-0.014335718552093904,1.712
-0.00923519187939262,1.713
-0.0040915175420994,1.714
0.0005015985476245079,1.715
0.004397455739144218,1.716
0.007904480365108886,1.717
0.011574979322826381,1.718
0.01573972178800423,1.719
0.02010699440384434,1.72
0.023801742607616513,1.721
0.025804564572857288,1.722
0.02542180428259829,1.723
0.022545133832513498,1.724
0.017681653529199856,1.725
0.011770054469745767,1.726
0.005860797148181783,1.727
0.0008202344111219029,1.728
-0.0028630330996951003,1.729
-0.005176390040738737,1.73
-0.006562447826141267,1.731
-0.007746850001585614,1.732
-0.00944567246278813,1.733
-0.012063816621837609,1.734
-0.015523754111775598,1.735
-0.019284061581915975,1.736
-0.022502586502797302,1.737
-0.024289733649976546,1.738
-0.024009324811080198,1.739
-0.021518762557323594,1.74
-0.017218020689560312,1.741
-0.011879023271829783,1.742
-0.006351166005181802,1.743
-0.0013035372194335323,1.744
0.0028726687637798823,1.745
0.005997851427668621,1.746
0.007995205089208967,1.747
0.008882857888819302,1.748
0.008859867380519824,1.749
0.008343680395695342,1.75
0.007889652268967321,1.751
0.00805410255145758,1.752
0.009252752169912714,1.753
0.011616624578562584,1.754
0.014880499347501948,1.755
0.018356387125867554,1.756
0.021039763153137693,1.757
0.021890347730609525,1.758
0.020221711535782824,1.759
0.0159833283687956,1.76
0.009745224515072932,1.761
0.002458595826126732,1.762
-0.004792646852897853,1.763
-0.010989552807660853,1.764
-0.015351577231200945,1.765
-0.017453287388779593,1.766
-0.01725975268786043,1.767
-0.015091636182663636,1.768
-0.011516908395253808,1.769
-0.007196503208362311,1.77
-0.0027885113132930586,1.771
0.001057381257574761,1.772
0.0037244604965316107,1.773
0.004744577427682362,1.774
0.003953342517409102,1.775
0.0015779625041888968,1.776
-0.0018081441756783868,1.777
-0.0054349407253822144,1.778
-0.008535678731356555,1.779
-0.010562664217637437,1.78
-0.011325141805115005,1.781
-0.010927956311041478,1.782
-0.009542361136102757,1.783
-0.007204191675714519,1.784
-0.003817721639227503,1.785
0.0006148451769786653,1.786
0.0057229060627417925,1.787
0.010714577822612701,1.788
0.014612473277996819,1.789
0.016584589157622915,1.79
0.016124895299062917,1.791
0.013055863836043126,1.792
0.007503084442704482,1.793
-9.336296579854817e-05,1.794
-0.008941936198810039,1.795
-0.01782317360533297,1.796
-0.025057987392923056,1.797
-0.028694085745817565,1.798
-0.02697381811907084,1.799
-0.01897021699267759,1.8
-0.005128209635911772,1.801
0.01259397427398713,1.802
0.031069325860427422,1.803
0.04668508747922357,1.804
0.05619018396580315,1.805
0.05749505343753177,1.806
0.05018188289796098,1.807
0.035579839283231635,1.808
0.016405141245976525,1.809
-0.003908558352965465,1.81
-0.022031593948385036,1.811
-0.03549773443910236,1.812
-0.04309915497663716,1.813
-0.044801172802973306,1.814
-0.04140037654706509,1.815
-0.03419028730322389,1.816
-0.0247049814790214,1.817
-0.014511365383850934,1.818
-0.005035735539503948,1.819
0.002576958628731591,1.82
0.007603552320490365,1.821
0.009895361337423067,1.822
0.009912948901681996,1.823
0.008495615120038089,1.824
0.006450812896702773,1.825
0.0042193964741064115,1.826
0.0018069178212710491,1.827
-0.0010209205456981727,1.828
-0.004412532185351654,1.829
-0.008118910022551608,1.83
-0.01137030448038247,1.831
-0.013072993360966035,1.832
-0.01222783392687214,1.833
-0.008319614293476068,1.834
-0.0014887349574509014,1.835
0.007548321234117103,1.836
0.0176962235882382,1.837
0.027637644153114118,1.838
0.0359376451778375,1.839
0.04117596099641019,1.84
0.04217020559963481,1.841
0.038275034416254454,1.842
0.029640776599560936,1.843
0.0172869654170598,1.844
0.0028916127259215624,1.845
-0.011671931753831414,1.846
-0.024824320571671887,1.847
-0.035533658029381666,1.848
-0.043245552232876724,1.849
-0.047595157870657115,1.85
-0.04815090957087333,1.851
-0.044463096548493564,1.852
-0.0364392105011449,1.853
-0.024730200717304283,1.854
-0.010783181687629883,1.855
0.003494671072099829,1.856
0.016252254244925348,1.857
0.026135217035058805,1.858
0.032449027495381304,1.859
0.03495886040877831,1.86
0.033559707831954916,1.861
0.02824548748768278,1.862
0.019482287960732547,1.863
0.008665841665187047,1.864
-0.0018138223079270774,1.865
-0.00924539292494615,1.866
-0.0117679790563755,1.867
-0.009257041125429006,1.868
-0.003327871403986722,1.869
0.003511288174039235,1.87
0.009000967578493665,1.871
0.011881879443341016,1.872
0.011965716207176628,1.873
0.009739832928874504,1.874
0.005908825123986182,1.875
0.0011776886782725207,1.876
-0.0037219312844280553,1.877
-0.00800661059590579,1.878
-0.010985508205310468,1.879
-0.01229787127109468,1.88
-0.012038925335307015,1.881
-0.010680828501916973,1.882
-0.008866796617809408,1.883
-0.007167473629024544,1.884
-0.005846316593804985,1.885
-0.004735814122434788,1.886
-0.0033697353945788293,1.887
-0.0013737436992798048,1.888
0.0011377862035532108,1.889
0.00348156078240789,1.89
0.004746893236654522,1.891
0.004360453549973266,1.892
0.00247297716677508,1.893
-0.00014185973181170676,1.894
-0.0025611136244155057,1.895
-0.00415066285119436,1.896
-0.004708268827136502,1.897
-0.004343307782613434,1.898
-0.003258853555741727,1.899
-0.0016086023422995127,1.9
0.0004670352464396855,1.901
0.0026895995775746964,1.902
0.004575156105700819,1.903
0.005595047689111252,1.904
0.005488628381227096,1.905
0.004467610986033091,1.906
0.0031308331819958233,1.907
0.002163321065668215,1.908
0.0020457700701831697,1.909
0.0029423234549279236,1.91
0.004738329148274499,1.911
0.007079994912410703,1.912
0.009382808628386268,1.913
0.010905502297037548,1.914
0.010913905318164689,1.915
0.008861762898060045,1.916
0.004577041508302596,1.917
-0.0015070234090573007,1.918
-0.00824885372162443,1.919
-0.014071861871660407,1.92
-0.017456410543814884,1.921
-0.017316415319163597,1.922
-0.013235224576709882,1.923
-0.00565618944973208,1.924
0.003998501744429371,1.925
0.013353810187622009,1.926
0.01944635954420233,1.927
0.01972210306252538,1.928
0.013412266570648064,1.929
0.002264283884474085,1.93
-0.010067785974987895,1.931
-0.019600559280241615,1.932
-0.023634814380930076,1.933
-0.021587229873766253,1.934
-0.01477995684514517,1.935
-0.005555422029762311,1.936
0.0036749795807443485,1.937
0.011016547297897522,1.938
0.015259975580955838,1.939
0.01586315239405263,1.94
0.012979156080132614,1.941
0.007512527668607729,1.942
0.000988128936114474,1.943
-0.004828893240730044,1.944
-0.008395639829514858,1.945
-0.008811983526198096,1.946
-0.006166186355091133,1.947
-0.001608236595142667,1.948
0.00311265882966494,1.949
0.006482394620043204,1.95
0.007838730034872893,1.951
0.0073766469805875345,1.952
0.005710283707599903,1.953
0.00342625243610962,1.954
0.0008755293493029622,1.955
-0.0018373511386130185,1.956
-0.004785467194988104,1.957
-0.008116696047441918,1.958
-0.011897201209223987,1.959
-0.015867618785667146,1.96
-0.019223226733053822,1.961
-0.02069830728886923,1.962
-0.019066606395877223,1.963
-0.013687400584241645,1.964
-0.004616557975524179,1.965
0.007572424939575328,1.966
0.02173932800311854,1.967
0.03590370472327448,1.968
0.04726734743309586,1.969
0.05289418218119116,1.97
0.05084849655151425,1.971
0.041092865592684984,1.972
0.025494624507645242,1.973
0.0069593145798484725,1.974
-0.011674948274810843,1.975
-0.0283251449492532,1.976
-0.04170245417149061,1.977
-0.050935550187351304,1.978
-0.05520725717592982,1.979
-0.053776051770635075,1.98
-0.04641728262513631,1.981
-0.03384361334697499,1.982
-0.017711945569717516,1.983
-0.0003231463364993548,1.984
0.015720746329120825,1.985
0.027875980170837113,1.986
0.034151641545204774,1.987
0.03371934460490445,1.988
0.02741583796114124,1.989
0.01777203568866714,1.99
0.008220940037299994,1.991
0.0016762021635583324,1.992
-0.0006629951372535017,1.993
0.00045754796970976446,1.994
0.0030721456244825604,1.995
0.005119160562017576,1.996
0.005376157598153247,1.997
0.003839447696845067,1.998
0.0014263433251268179,1.999
-0.0007359579961307619,2.0
-0.0018782867401201284,2.001
-0.0017509786661532832,2.002
-0.0005626950868251248,2.003
0.0011621082869119788,2.004
0.0028183338331639078,2.005
0.00396904025438707,2.006
0.004485331625199292,2.007
0.004504478107938217,2.008
0.0041846864321847255,2.009
0.0034119921046061727,2.01
0.0017351347498148317,2.011
-0.0014182731489458535,2.012
-0.006434292529030534,2.013
-0.013179398085786513,2.014
-0.020648886601572176,2.015
-0.026930109391629743,2.016
-0.029781809888006317,2.017
-0.02754763393729013,2.018
-0.019844208766939816,2.019
-0.007742039393294284,2.02
0.0064327314773293025,2.021
0.019518956739139955,2.022
0.028306805077197742,2.023
0.030633508281510187,2.024
0.02620357453894655,2.025
0.016628241990343167,2.026
0.004675962216854379,2.027
-0.0068556212254055286,2.028
-0.015989219860583208,2.029
-0.02172493701448969,2.03
-0.023684467133850255,2.031
-0.021700788559036663,2.032
-0.015662525721810597,2.033
-0.005689752307549279,2.034
0.007442803539732179,2.035
0.021936686288227453,2.036
0.03508669294334891,2.037
0.0439765248420208,2.038
0.04638642439912501,2.039
0.04149574318693063,2.04
0.030163879207710437,2.041
0.014761367564423962,2.042
-0.0014599284846348814,2.043
-0.015373727618996096,2.044
-0.024847060707230972,2.045
-0.028934686556748645,2.046
-0.027548122875781688,2.047
-0.021148131285160195,2.048
-0.010667388383004357,2.049
0.0025024079081343315,2.05
0.016523764619247802,2.051
0.029157847110249144,2.052
0.038030760443738716,2.053
0.04113961159119394,2.054
0.037349800913260546,2.055
0.02666952530484535,2.056
0.010214169504859167,2.057
-0.010107286808786435,2.058
-0.03197351567584732,2.059
-0.05295356667403495,2.06
-0.07081345458070151,2.061
-0.0837989544276539,2.062
-0.09075444103179453,2.063
-0.09112820676990087,2.064
-0.08497597387726735,2.065
-0.07296290470351594,2.066
-0.05629188767559034,2.067
-0.03649003066262892,2.068
-0.015131594126932572,2.069
