VaMe,time
-0.00016269176779288024,0.001
-0.0009716061683492936,0.002
-0.0015847035756213785,0.003
-0.0018478401902134265,0.004
-0.0016958995736052697,0.005
-0.0011414646024273955,0.006
-0.00027178477259205745,0.007
0.000728717972755182,0.008
0.0015742711513990414,0.009
0.0019480373806562954,0.01
0.0016273939592785854,0.011
0.0005774955860287358,0.012
-0.001030785852758137,0.013
-0.0028680059487847416,0.014
-0.004554109699627896,0.015
-0.0058015157751296715,0.016
-0.006489361394921878,0.017
-0.006584383954845146,0.018
-0.006003834341125305,0.019
-0.004607499561534007,0.02
-0.002331605088537253,0.021
0.0006971809963413115,0.022
0.004143259806803475,0.023
0.007491680903276653,0.024
0.01013111725126893,0.025
0.01153581871376347,0.026
0.01147600771626932,0.027
0.010087842592258912,0.028
0.007746879377274895,0.029
0.004879049177401454,0.03
0.0018323507007864555,0.031
-0.0012123344585966988,0.032
-0.004296891588990727,0.033
-0.007601689563019747,0.034
-0.01119170445544011,0.035
-0.014732477458966355,0.036
-0.017364921954953066,0.037
-0.017890008738443774,0.038
-0.015288794409352666,0.039
-0.009350432825671808,0.04
-0.0009613408599955731,0.041
0.008199274431552321,0.042
0.01627839402441758,0.043
0.021739815450435806,0.044
0.023611233160061855,0.045
0.02163560094928999,0.046
0.0164035018086739,0.047
0.009274873573743176,0.048
0.001891673120968805,0.049
-0.004501098780388248,0.05
-0.009460261360582343,0.051
-0.013257997230270992,0.052
-0.016413829491957237,0.053
-0.019105555240939688,0.054
-0.020817427096659236,0.055
-0.020528219414430462,0.056
-0.01736569977243253,0.057
-0.011241252935135275,0.058
-0.0030084834538617535,0.059
0.005866592610386575,0.06
0.01379718958086983,0.061
0.019451561061298955,0.062
0.021976437518260988,0.063
0.02115482934908599,0.064
0.01750149430167331,0.065
0.012171255656868317,0.066
0.006596701246546761,0.067
0.002001338623885081,0.068
-0.0009535463016310367,0.069
-0.0022792477508763965,0.07
-0.002547039667168128,0.071
-0.0025934458139768605,0.072
-0.0031448957215155253,0.073
-0.004525769415600692,0.074
-0.006558727581850045,0.075
-0.008661209249775844,0.076
-0.010099104204406188,0.077
-0.010301161802712651,0.078
-0.009091927317818767,0.079
-0.0067468284183956635,0.08
-0.0038424460755279357,0.081
-0.0009841494478382954,0.082
0.001406573821023245,0.083
0.0031304967036471665,0.084
0.004131700707215559,0.085
0.004409832232887346,0.086
0.003964353980603254,0.087
0.0027871225999221492,0.088
0.0009050364964585964,0.089
-0.0015540508560427943,0.09
-0.004286673595675209,0.091
-0.00677489370528714,0.092
-0.008372977314016178,0.093
-0.008537540800567494,0.094
-0.00707834368726048,0.095
-0.004268334890490495,0.096
-0.0007555372728045679,0.097
0.002675790775820159,0.098
0.0053867045578059125,0.099
0.007073523028187852,0.1
0.007794124867129049,0.101
0.007827803162186694,0.102
0.007440257452822303,0.103
0.006755246747638337,0.104
0.005839014035906143,0.105
0.004808290215191592,0.106
0.003808113793328227,0.107
0.002966050074525687,0.108
0.0023813439071375246,0.109
0.0020731361352896126,0.11
0.0019204593573458279,0.111
0.0016864931033799037,0.112
0.0011219902041506098,0.113
6.068810529978437e-05,0.114
-0.0015653775501298514,0.115
-0.003738289071727907,0.116
-0.006315622494347603,0.117
-0.00897677564430909,0.118
-0.011219742444134205,0.119
-0.012427194210972095,0.12
-0.012009788785791745,0.121
-0.009612031018132263,0.122
-0.005296046109033464,0.123
0.00039279853522237117,0.124
0.006503691263337914,0.125
0.011880881484676932,0.126
0.015453610931774962,0.127
0.016549963109003623,0.128
0.01511884187554606,0.129
0.011737375331283096,0.13
0.007366653753772954,0.131
0.00297572274759789,0.132
-0.0007730254229416452,0.133
-0.0036895546776532086,0.134
-0.006060390303027194,0.135
-0.00847917144395914,0.136
-0.011554458698250596,0.137
-0.015580991055434704,0.138
-0.020265025049001014,0.139
-0.02463616672942507,0.14
-0.027274059110087817,0.141
-0.026819947040830534,0.142
-0.02249559845807597,0.143
-0.014362303629411474,0.144
-0.003314508575856635,0.145
0.009103158764066746,0.146
0.021000581942640262,0.147
0.030507218308127974,0.148
0.036165817029505574,0.149
0.03729276989012452,0.15
0.03414935323936158,0.151
0.027785951591131723,0.152
0.019601428761541275,0.153
0.01088313567401864,0.154
0.002590886628429422,0.155
-0.00460569157314627,0.156
-0.010219703165876464,0.157
-0.01392394333123608,0.158
-0.015624867001566874,0.159
-0.015531163879681521,0.16
-0.01410944553899084,0.161
-0.011921527353436942,0.162
-0.009451705551469028,0.163
-0.007043267146870173,0.164
-0.004937630678215195,0.165
-0.0033089536943825522,0.166
-0.002254314196236662,0.167
-0.0017818071234027132,0.168
-0.0018147695314876195,0.169
-0.002210096834831382,0.17
-0.002785387158502239,0.171
-0.003329686628931251,0.172
-0.0036119556684086423,0.173
-0.003426682578301336,0.174
-0.002651798027934949,0.175
-0.001281053221309828,0.176
0.0005641102653814152,0.177
0.002635058085917822,0.178
0.004565858633130885,0.179
0.005921943054259548,0.18
0.006343588250637385,0.181
0.005741008423079002,0.182
0.004374116622646768,0.183
0.0027200342704461486,0.184
0.0012401724167084177,0.185
0.00022888543521424912,0.186
-0.00020346609386580426,0.187
-8.678226915109567e-05,0.188
0.0004470747746904822,0.189
0.0011962919025803123,0.19
0.0019312656748912513,0.191
0.002445144134433881,0.192
0.0025891262912225294,0.193
0.0022873824084475307,0.194
0.001561491434781568,0.195
0.0005622904723185181,0.196
-0.0004398898508231934,0.197
-0.0011517047231714955,0.198
-0.0014095837249233707,0.199
-0.0012708442973926517,0.2
-0.000967911521520145,0.201
-0.0007760104421439318,0.202
-0.0008999728125052963,0.203
-0.0014387811412816215,0.204
-0.0024004581322367657,0.205
-0.0037038423000141083,0.206
-0.005152453875204204,0.207
-0.0064391199855171125,0.208
-0.007214285696879718,0.209
-0.0071707092238750825,0.21
-0.006123212370684244,0.211
-0.004086420569555768,0.212
-0.0012996194686297588,0.213
0.0018273544707291683,0.214
0.004809120997925012,0.215
0.007185348543744705,0.216
0.008609967627486635,0.217
0.00891566167395907,0.218
0.008127851765692942,0.219
0.00640444881315253,0.22
0.0039359981745356945,0.221
0.000888315245013483,0.222
-0.0025588970815017724,0.223
-0.006105228275321508,0.224
-0.009250264860110713,0.225
-0.011327622030633477,0.226
-0.01168742696434827,0.227
-0.0099655601129513,0.228
-0.006265633725184404,0.229
-0.001148227838641206,0.23
0.004512874260646413,0.231
0.00971991765828645,0.232
0.013570362161627013,0.233
0.015498285356866096,0.234
0.01542364113062184,0.235
0.013669813723921675,0.236
0.010709397728138208,0.237
0.006988892640854762,0.238
0.0029517269353350538,0.239
-0.0008946319473043685,0.24
-0.0040157543786427715,0.241
-0.005982121691591,0.242
-0.0066479249200206295,0.243
-0.006298462396839705,0.244
-0.005651833179232937,0.245
-0.0056686012759455595,0.246
-0.007207707640691121,0.247
-0.010595658116512058,0.248
-0.015256210305736416,0.249
-0.01966708835812137,0.25
-0.021836839163918653,0.251
-0.02017617551474745,0.252
-0.014311605407951653,0.253
-0.005342094861821418,0.254
0.0046077357516199,0.255
0.013235311641396805,0.256
0.018846755205421704,0.257
0.020748884153612663,0.258
0.019197861989602112,0.259
0.015104299493493166,0.26
0.009709330732079406,0.261
0.0043095174838406495,0.262
9.600273787822047e-06,0.263
-0.0024944545291860913,0.264
-0.0030224261746289163,0.265
-0.0018528611752024978,0.266
0.000426820585071294,0.267
0.0030658162646031257,0.268
0.005296390503746781,0.269
0.006511999960391919,0.27
0.006426287236195523,0.271
0.005132221350637444,0.272
0.003029072206996714,0.273
0.0006292174823129849,0.274
-0.0016836122492699325,0.275
-0.003791396320335115,0.276
-0.0057600058128215335,0.277
-0.007619419366800561,0.278
-0.009228980231989283,0.279
-0.010330671265571835,0.28
-0.010679014845279633,0.281
-0.010134143112822798,0.282
-0.008702648601872046,0.283
-0.006535143405342117,0.284
-0.0038996310397293394,0.285
-0.001144333938517976,0.286
0.0013587671156655402,0.287
0.0032901941014812043,0.288
0.004452420235489484,0.289
0.004800931832813963,0.29
0.004446876188800974,0.291
0.0036496643303936442,0.292
0.0027572620918348365,0.293
0.0020765346831892167,0.294
0.0017643495087475676,0.295
0.0018182604240743266,0.296
0.0021341576228202613,0.297
0.0025669925822669054,0.298
0.0029759353858872075,0.299
0.0032542509603142914,0.3
0.0033381217821320144,0.301
0.0031943916186051692,0.302
0.0028029415324138133,0.303
0.0021582970960405384,0.304
0.0012870794432049222,0.305
0.0002503862543694756,0.306
-0.0008725140731859088,0.307
-0.0020013005371963097,0.308
-0.0030664416526028954,0.309
-0.004007014274483511,0.31
-0.004751499191019603,0.311
-0.0052113451358522574,0.312
-0.005310300944671176,0.313
-0.005020115955645671,0.314
-0.0043681960300718916,0.315
-0.003419777353097451,0.316
-0.002251950089804304,0.317
-0.0009336055645476063,0.318
0.000479685624914532,0.319
0.0019266308620053939,0.32
0.0033142410175269203,0.321
0.004516021063605342,0.322
0.0053850809988197825,0.323
0.005774736284942156,0.324
0.005580659403507165,0.325
0.0047877409453720415,0.326
0.0034725541653699765,0.327
0.0017392435244480615,0.328
-0.00035245272994798536,0.329
-0.0027870638483907056,0.33
-0.005516611243148354,0.331
-0.008372602326402882,0.332
-0.011023481859616517,0.333
-0.01298000530681015,0.334
-0.013649755242870348,0.335
-0.01247878735533418,0.336
-0.009187026514312179,0.337
-0.003983504621853855,0.338
0.0024033848691696904,0.339
0.008914949419070584,0.34
0.014471986688520027,0.341
0.018275984781929072,0.342
0.019976745611114222,0.343
0.01964503531166238,0.344
0.01761797464690017,0.345
0.014354256083231877,0.346
0.010360871319087054,0.347
0.006153784226673102,0.348
0.00219878841902303,0.349
-0.0011849494747818517,0.35
-0.0039220462207954975,0.351
-0.006215666909812813,0.352
-0.008476030794503337,0.353
-0.011147944774663236,0.354
-0.014497108778290083,0.355
-0.018436218878726738,0.356
-0.022453355080556257,0.357
-0.025658119448696993,0.358
-0.026950440980342754,0.359
-0.025360070155673035,0.36
-0.020485491562423404,0.361
-0.012736476770281105,0.362
-0.0031986479008704943,0.363
0.006737710756986784,0.364
0.015750943158099502,0.365
0.022822807587215586,0.366
0.027312660996410443,0.367
0.02891498812796825,0.368
0.027576634181249893,0.369
0.023503964378513254,0.37
0.017281328200100442,0.371
0.009906981219936573,0.372
0.0026008075024402475,0.373
-0.003522627590138739,0.374
-0.007733573138644916,0.375
-0.009815198470850278,0.376
-0.010026599429818352,0.377
-0.008929954383632855,0.378
-0.0071551214008385745,0.379
-0.005221034795246566,0.38
-0.003477877778767421,0.381
-0.0021189530797883025,0.382
-0.0011980617732191975,0.383
-0.0006604384497400179,0.384
-0.0004015889310276116,0.385
-0.00031351323396120416,0.386
-0.0002942953927492307,0.387
-0.000255651791181386,0.388
-0.0001557445635812862,0.389
-3.192785634198751e-05,0.39
1.979642135423621e-05,0.391
-8.10652340221126e-05,0.392
-0.0003454813260746697,0.393
-0.000720207593183856,0.394
-0.0011166249464904107,0.395
-0.0014355972924373866,0.396
-0.0015995075053889859,0.397
-0.0015914149400928913,0.398
-0.001470021965050746,0.399
-0.0013364388546748263,0.4
-0.001266263790562338,0.401
-0.0012563926577494717,0.402
-0.0012275191410992513,0.403
-0.0010708213170696247,0.404
-0.0007026251091839394,0.405
-9.670166526832355e-05,0.406
0.0007124813662373419,0.407
0.0016349452794033475,0.408
0.002534772894887922,0.409
0.00324702877245149,0.41
0.0035811408697651744,0.411
0.0033107356681657176,0.412
0.0021974251756075,0.413
8.664842484227113e-05,0.414
-0.00295756478478276,0.415
-0.006552645434360634,0.416
-0.009994274696251228,0.417
-0.012401845943965262,0.418
-0.012997508942967674,0.419
-0.011385398897031567,0.42
-0.007684874377747584,0.421
-0.002472349204362496,0.422
0.0034218159009490943,0.423
0.009151701525284673,0.424
0.014004278832721045,0.425
0.01742615530141704,0.426
0.018993874830255487,0.427
0.018406812342897195,0.428
0.015556623547752318,0.429
0.010653016336325023,0.43
0.004311863259071095,0.431
-0.0024760019743401123,0.432
-0.008517443251581228,0.433
-0.012717919954904004,0.434
-0.014423565186420448,0.435
-0.013614420019948502,0.436
-0.01083526474224354,0.437
-0.006941079226170517,0.438
-0.002812146342994938,0.439
0.0008426600365434957,0.44
0.0035717873088599774,0.441
0.005190278531048106,0.442
0.005726983154297186,0.443
0.005335500060006869,0.444
0.004225805245137503,0.445
0.0026428818023955286,0.446
0.0008561756458875724,0.447
-0.0008849115524367294,0.448
-0.002406252119154959,0.449
-0.0036171418032298393,0.45
-0.004470326731276303,0.451
-0.004911153406274575,0.452
-0.004855240991370992,0.453
-0.004232520562250036,0.454
-0.0030689387818543805,0.455
-0.0015243390505071614,0.456
0.0001368149432528931,0.457
0.0016113219795639074,0.458
0.002632595274543976,0.459
0.003025308890448189,0.46
0.0027201602953200194,0.461
0.0017575486139663114,0.462
0.00031966848247638334,0.463
-0.0012542239903775758,0.464
-0.002554946961247986,0.465
-0.003262205255354381,0.466
-0.0032596628011007647,0.467
-0.0026491508176136585,0.468
-0.0016849472494100829,0.469
-0.0006812584222867267,0.47
7.663488269887302e-05,0.471
0.0004184043630680066,0.472
0.0003426289589824093,0.473
1.7979681223755301e-06,0.474
-0.0003678831033365703,0.475
-0.000534562763146712,0.476
-0.00033943136708272263,0.477
0.00027069820286920927,0.478
0.0012313010560065535,0.479
0.002368531684270917,0.48
0.003442473531415856,0.481
0.004211988285797221,0.482
0.004504167600064474,0.483
0.004269594786125369,0.484
0.0035910556353094133,0.485
0.0026446108985967564,0.486
0.0016367734726508876,0.487
0.0007400600961716715,0.488
4.932316703981982e-05,0.489
-0.0004316435653199962,0.49
-0.0007654874605172073,0.491
-0.0010274238007578524,0.492
-0.001261841246985954,0.493
-0.001474273860267572,0.494
-0.0016558856580639128,0.495
-0.001810245212285872,0.496
-0.001947753630663322,0.497
-0.0020624751525959006,0.498
-0.0021232308121622127,0.499
-0.0020856673816454737,0.5
-0.0019186416852019854,0.501
-0.0016328421941705046,0.502
-0.0012880824438124445,0.503
-0.0009574262666732889,0.504
-0.0006835011544835164,0.505
-0.00047357241454961405,0.506
-0.00031788074578134834,0.507
-0.00021449878003124666,0.508
-0.00018978308549329716,0.509
-0.0002832876726264605,0.51
-0.0005019561623045303,0.511
-0.0007911368312992181,0.512
-0.001054737890945056,0.513
-0.001206355428156333,0.514
-0.0012105950691677083,0.515
-0.001092584282329311,0.516
-0.0009143971732001994,0.517
-0.0007333726222549551,0.518
-0.0005623871821329201,0.519
-0.0003529398930177337,0.52
-1.630052237856002e-05,0.521
0.0005295519209454261,0.522
0.0013029918725179638,0.523
0.002204981743899082,0.524
0.0030125054161299113,0.525
0.0034537240318526946,0.526
0.0033233579271322454,0.527
0.002550150687485128,0.528
0.0011867661970549402,0.529
-0.0006137994764235738,0.53
-0.0025817046102693964,0.531
-0.004327042675331591,0.532
-0.005426064888850754,0.533
-0.005557444347382861,0.534
-0.004595416939970699,0.535
-0.0026376974036426094,0.536
1.5354814991108348e-05,0.537
0.002920706304930542,0.538
0.005574409857330019,0.539
0.007505734618872792,0.54
0.008381358569699855,0.541
0.008092252863060331,0.542
0.006774462177484182,0.543
0.004742653042291915,0.544
0.002373761444873385,0.545
9.591882148482771e-07,0.546
-0.002140238541034262,0.547
-0.003907326112793003,0.548
-0.005223942147104729,0.549
-0.00607440904455054,0.55
-0.006517204452905142,0.551
-0.0066759819557785155,0.552
-0.006690862403427118,0.553
-0.006657831876985423,0.554
-0.006587560024029645,0.555
-0.006401453793232977,0.556
-0.0059730479866815095,0.557
-0.005191976715269295,0.558
-0.004003816078920288,0.559
-0.002406453239524448,0.56
-0.00042873004116746895,0.561
0.001880441140074167,0.562
0.004439894556004929,0.563
0.0070928652434748,0.564
0.009562625102583024,0.565
0.011465139833084656,0.566
0.012397154925544272,0.567
0.012078018689234265,0.568
0.010490596422338863,0.569
0.007925997376929395,0.57
0.004873099895221872,0.571
0.0018197839999358372,0.572
-0.0008892372937394242,0.573
-0.0030768476533108843,0.574
-0.004707761137858146,0.575
-0.005863526840666858,0.576
-0.006690531032152086,0.577
-0.007316144483440798,0.578
-0.00778496930305295,0.579
-0.008048714244499329,0.58
-0.007998655061099109,0.581
-0.007522449863430815,0.582
-0.006562246620550258,0.583
-0.005149141656424115,0.584
-0.0034040691123060794,0.585
-0.0015019592810939307,0.586
0.0003799175215607425,0.587
0.002096162023321343,0.588
0.0035427862472048317,0.589
0.004649193835852904,0.59
0.005369367338542613,0.591
0.005682020910782441,0.592
0.005591202602889843,0.593
0.005130336431435142,0.594
0.004368063799678667,0.595
0.0034008511190998514,0.596
0.00233946059470108,0.597
0.0012983426938986793,0.598
0.00037362115187934925,0.599
-0.00038593981887482707,0.6
-0.0009870757800275328,0.601
-0.001476038841840151,0.602
-0.0019141759340997387,0.603
-0.002348571183422828,0.604
-0.0027873221093015145,0.605
-0.0032025928155571745,0.606
-0.0035481618049874445,0.607
-0.0037610262302633693,0.608
-0.0037668506618099193,0.609
-0.003508331788281827,0.61
-0.0029753201838425406,0.611
-0.002224466577255905,0.612
-0.0013758326167613146,0.613
-0.0005646052004105469,0.614
0.0001315554921407507,0.615
0.000726410169102313,0.616
0.0012902002068462337,0.617
0.0018836468538597653,0.618
0.0025058241922344816,0.619
0.003076367234057483,0.62
0.003466730319523133,0.621
0.003563040577424473,0.622
0.0033116713669186473,0.623
0.0027314868927000857,0.624
0.0019081516024641164,0.625
0.0009697503228009148,0.626
4.760017220111675e-05,0.627
-0.0007496318516285367,0.628
-0.0013375308231493976,0.629
-0.0016563119039931825,0.63
-0.0016861536441865749,0.631
-0.0014647254774116064,0.632
-0.0010877793454214127,0.633
-0.000687139915478983,0.634
-0.00039951442162942366,0.635
-0.00033203202297729564,0.636
-0.0005208797941996749,0.637
-0.0009060884234163499,0.638
-0.0013462520233365166,0.639
-0.0016682350834953876,0.64
-0.0017309488663272865,0.641
-0.0014808575613447352,0.642
-0.0009733014321757553,0.643
-0.0003341176954614484,0.644
0.000307622494276244,0.645
0.0008543352662813948,0.646
0.0012400108647589556,0.647
0.001430349100714525,0.648
0.0014363330615132321,0.649
0.0013163590246099022,0.65
0.0011428462798784582,0.651
0.0009546146218448967,0.652
0.0007268033703731183,0.653
0.0003811700664733339,0.654
-0.00015674283197493293,0.655
-0.0008910111763199868,0.656
-0.0017244778215262627,0.657
-0.002479914700054689,0.658
-0.0029684425758294136,0.659
-0.0030712966322775496,0.66
-0.0027828927624561745,0.661
-0.0021945376235830245,0.662
-0.001444913893934003,0.663
-0.0006747735521793029,0.664
2.1602686067514988e-06,0.665
0.0005199522995071819,0.666
0.0008696889322175503,0.667
0.0010850915208090192,0.668
0.001209298247764495,0.669
0.0012612978668390148,0.67
0.0012218540951762313,0.671
0.0010590789401207048,0.672
0.0007782904411532403,0.673
0.0004439610689166176,0.674
0.00015178504646753957,0.675
-2.5996238821085547e-05,0.676
-7.739117232323931e-05,0.677
-3.682405560277507e-05,0.678
6.05593813726011e-05,0.679
0.00020560612923622537,0.68
0.00039745034735229594,0.681
0.0006102172238932341,0.682
0.0007892826064806087,0.683
0.0008827446371734537,0.684
0.0008718418592069397,0.685
0.0007724299115624833,0.686
0.0006178809482156892,0.687
0.0004349004520665408,0.688
0.00021732100222040095,0.689
-7.002120707567366e-05,0.69
-0.0004415559841146199,0.691
-0.000851103908145342,0.692
-0.0012116847318168246,0.693
-0.0014487070673590203,0.694
-0.0015386351527883436,0.695
-0.0015120151020597277,0.696
-0.0014311143008642782,0.697
-0.0013598029509579192,0.698
-0.001335856894830737,0.699
-0.0013607770970618873,0.7
-0.0014076936751047605,0.701
-0.0014373729955716036,0.702
-0.0014157499181965407,0.703
-0.0013155435490444826,0.704
-0.0011054538039399716,0.705
-0.0007582073251115977,0.706
-0.0002716868043635656,0.707
0.00033143737986250817,0.708
0.0010195586940588916,0.709
0.001753355703383754,0.71
0.002464397633730798,0.711
0.003033146457483304,0.712
0.0033089396193897312,0.713
0.0031748902149438467,0.714
0.002605890204502414,0.715
0.001681921081388761,0.716
0.0005592172701579872,0.717
-0.000574453080357825,0.718
-0.0015406728588225182,0.719
-0.0022068058059229664,0.72
-0.002512080923155418,0.721
-0.0024706378119505046,0.722
-0.0021501889465514092,0.723
-0.0016497711884202087,0.724
-0.0010997390369616245,0.725
-0.0006558906177340885,0.726
-0.000452939330972782,0.727
-0.0005490160133982946,0.728
-0.0009029198926397581,0.729
-0.001381252967864671,0.73
-0.0017939730198989153,0.731
-0.0019588018074386403,0.732
-0.0017652314248972716,0.733
-0.0012080122120223882,0.734
-0.00038527385161145133,0.735
0.0005377000207371085,0.736
0.0013943137555794763,0.737
0.002069079394720516,0.738
0.0025031174955970036,0.739
0.002680387384297522,0.74
0.0026137175717503994,0.741
0.0023288580016777895,0.742
0.0018615792541950107,0.743
0.0012642727767068636,0.744
0.0006006924523559491,0.745
-6.470892702414076e-05,0.746
-0.0006681815271205201,0.747
-0.001146153271261111,0.748
-0.0014401720815936767,0.749
-0.0015128668874159568,0.75
-0.0013701885399108119,0.751
-0.001063843974862726,0.752
-0.0006693142368388058,0.753
-0.0002627832157927381,0.754
8.805529670304871e-05,0.755
0.00032622117949664966,0.756
0.0004133757952420208,0.757
0.00034349786507555124,0.758
0.000149222376236905,0.759
-0.00011107263815526494,0.76
-0.0003725477840229076,0.761
-0.0005741255597792521,0.762
-0.000672023997666053,0.763
-0.0006654472891205864,0.764
-0.0006125167013311493,0.765
-0.0006116301335046218,0.766
-0.0007521695113847883,0.767
-0.001063253055799891,0.768
-0.001490127762253578,0.769
-0.0019012048343627754,0.77
-0.002121526882321867,0.771
-0.0020002857606185257,0.772
-0.0014924597177208793,0.773
-0.0007044362763860078,0.774
0.0001377729678311058,0.775
0.0007952029155855065,0.776
0.001130546656858856,0.777
0.0011509754250356662,0.778
0.0009715354064423346,0.779
0.0007459055296382474,0.78
0.0005926902597469806,0.781
0.0005438209771610257,0.782
0.0005528226423635205,0.783
0.000554987456748912,0.784
0.0005253520310097112,0.785
0.0004854700530912511,0.786
0.00045820445610818446,0.787
0.0004242653683877699,0.788
0.0003283604994044391,0.789
0.00012898127826851667,0.79
-0.00015511467270734917,0.791
-0.0004445657114420465,0.792
-0.0006371961179189846,0.793
-0.0006502225899983439,0.794
-0.0004593156499421799,0.795
-0.00012593508878839057,0.796
0.00021311107951946552,0.797
0.0004024329076789757,0.798
0.0003474702497261097,0.799
6.507335073208163e-05,0.8
-0.0003297752334579471,0.801
-0.0006852412432018915,0.802
-0.0008795448127344342,0.803
-0.0008590578086348498,0.804
-0.0006475551932921891,0.805
-0.0003343137722728039,0.806
-3.1631222787025044e-05,0.807
0.0001817417039064113,0.808
0.0002872841424332922,0.809
0.00030700602644227336,0.81
0.00026531703517184,0.811
0.00016907389572241223,0.812
1.5874227522491167e-05,0.813
-0.0001858448378151963,0.814
-0.000410214399704516,0.815
-0.00062876608508513,0.816
-0.0008223133746203406,0.817
-0.0009730344848631812,0.818
-0.0010594368908506805,0.819
-0.0010662165666936235,0.82
-0.000988626833470402,0.821
-0.0008249896291226364,0.822
-0.0005669113779181093,0.823
-0.0001963562314544006,0.824
0.0002968156622054091,0.825
0.0008789144627178809,0.826
0.0014488616428997288,0.827
0.0018583970541655034,0.828
0.0019747482758077995,0.829
0.001742650437204762,0.83
0.001201156279103637,0.831
0.0004612643916418233,0.832
-0.0003266281122835476,0.833
-0.0010051862961218256,0.834
-0.0014400334032756397,0.835
-0.0015537943342423715,0.836
-0.00136527335513152,0.837
-0.0009963673447184167,0.838
-0.0006180717387232437,0.839
-0.0003727569152835211,0.84
-0.0003286188784497525,0.841
-0.00048498039024270163,0.842
-0.0008032041280027832,0.843
-0.001216519382383172,0.844
-0.0016222449673849245,0.845
-0.0019008926474332309,0.846
-0.0019574505433848114,0.847
-0.0017461327099983,0.848
-0.0012660261656011296,0.849
-0.000547181412022463,0.85
0.0003424962291641515,0.851
0.0012777855358913827,0.852
0.0020914249941757,0.853
0.0026302335534664463,0.854
0.0028042359339521825,0.855
0.0025994240996056214,0.856
0.0020671675181427873,0.857
0.0013115107287023917,0.858
0.0004714346026744266,0.859
-0.00031682220902014757,0.86
-0.0009617290322836277,0.861
-0.0014295327877211221,0.862
-0.001718714785204532,0.863
-0.001819222835633296,0.864
-0.001698430164901269,0.865
-0.0013274987634951756,0.866
-0.0007236363161042901,0.867
1.962529570946378e-05,0.868
0.0007372742973328972,0.869
0.0012400419312643273,0.87
0.001382966810704979,0.871
0.0011210059430918247,0.872
0.0005277418327247365,0.873
-0.00023131874577518103,0.874
-0.0009658037620826782,0.875
-0.0015338585998951998,0.876
-0.001874462594662697,0.877
-0.0019851296815535475,0.878
-0.0018795424808893124,0.879
-0.0015692002284631852,0.88
-0.0010740751992002761,0.881
-0.0004361480583317236,0.882
0.0002738516924836933,0.883
0.000946487206919418,0.884
0.0014366647495163178,0.885
0.0016092639198421038,0.886
0.00140211096616285,0.887
0.0008551091788361333,0.888
0.0001028113358021324,0.889
-0.0006568246319960825,0.89
-0.0012186297676396603,0.891
-0.0014318798350021183,0.892
-0.0012450135113028235,0.893
-0.0007260803052719427,0.894
-4.2786171062500014e-05,0.895
0.0006003011539536101,0.896
0.0010256805797204537,0.897
0.0011195104554031457,0.898
0.0008614975774253256,0.899
0.00034614985999271985,0.9
-0.0002409271970847192,0.901
-0.0006962162626053993,0.902
-0.0008817937441086121,0.903
-0.0007735218269789422,0.904
-0.00046031790526310896,0.905
-9.992601698069362e-05,0.906
0.0001631135297693438,0.907
0.0002729716334121631,0.908
0.0002675254386475508,0.909
0.00022035729508786548,0.91
0.00018723443616788638,0.911
0.00018918259811232692,0.912
0.00021850531416105746,0.913
0.0002547248634249317,0.914
0.0002840702646918638,0.915
0.00030121293938606495,0.916
0.00028586080149303414,0.917
0.00019526499890178006,0.918
-2.817818961526236e-06,0.919
-0.0002900017845665045,0.92
-0.0005955809157488022,0.921
-0.000842379649134697,0.922
-0.0009971692160367638,0.923
-0.0010779664290363777,0.924
-0.001118064051817949,0.925
-0.0011262766848399752,0.926
-0.001071846635197412,0.927
-0.0008997308712917133,0.928
-0.0005792354441561701,0.929
-0.0001548802668342872,0.93
0.00025629010987523397,0.931
0.0005251016809184821,0.932
0.0005767273943711993,0.933
0.0004213417008936643,0.934
0.00013530128154800434,0.935
-0.00019242177414303995,0.936
-0.0004979401944617116,0.937
-0.0007401643652252686,0.938
-0.0008899045780211384,0.939
-0.0009368212701711346,0.94
-0.0008968540083953407,0.941
-0.0007921877933573596,0.942
-0.0006270789149067043,0.943
-0.00039325988698414517,0.944
-8.634842025118798e-05,0.945
0.0002882267867865959,0.946
0.0007098561681732285,0.947
0.001129425946800865,0.948
0.0014643563239973732,0.949
0.0016204274740602353,0.95
0.0015295499964719465,0.951
0.0011789532250508757,0.952
0.0006184782763868663,0.953
-5.1521458525466616e-05,0.954
-0.0006983503372713162,0.955
-0.0011777919015364593,0.956
-0.0013706855025146054,0.957
-0.0012359189702950254,0.958
-0.0008437980216482357,0.959
-0.00035041058005186147,0.96
6.94239400911296e-05,0.961
0.00028164980770167716,0.962
0.00022659539591901451,0.963
-7.349098917298681e-05,0.964
-0.0005311611737425081,0.965
-0.0010229217418536445,0.966
-0.001421690550993688,0.967
-0.0016312028239434278,0.968
-0.0016079103679845024,0.969
-0.0013566890623761014,0.97
-0.000918357091027537,0.971
-0.0003599221997822344,0.972
0.0002442755893930648,0.973
0.0008297612132825366,0.974
0.0013368593843017674,0.975
0.001699705050248555,0.976
0.001856374448211803,0.977
0.0017681179900453051,0.978
0.0014290470558005325,0.979
0.0008733238129390219,0.98
0.00018366149598283328,0.981
-0.0005149041763220515,0.982
-0.0010884118336442602,0.983
-0.0014330874688540487,0.984
-0.001492367347488533,0.985
-0.0012572221776567204,0.986
-0.0007682228013537967,0.987
-0.00012481816147576381,0.988
0.0005181916172521264,0.989
0.0009943682694885394,0.99
0.001183729472398847,0.991
0.0010354155449325525,0.992
0.000567455285191987,0.993
-0.00013434646426242094,0.994
-0.0009368715475476236,0.995
-0.0016895012589423712,0.996
-0.002239487424554983,0.997
-0.0024467275520464516,0.998
-0.0022201443626494234,0.999
-0.001579657759086481,1.0
-0.0006975351977966742,1.001
0.0001526953192194254,1.002
0.0007282328515873898,1.003
0.0009274434541019243,1.004
0.0008027096141164634,1.005
0.0005021429988942116,1.006
0.00020494932474884948,1.007
6.404559718110498e-05,1.008
0.00014990473977542434,1.009
0.00041945109112415265,1.01
0.0007319918716411168,1.011
0.0009085190663409321,1.012
0.0008086099652295174,1.013
0.0003812022678599882,1.014
-0.00032760993420009795,1.015
-0.0011835223016470162,1.016
-0.001978697118800553,1.017
-0.0024828402114365467,1.018
-0.002535996053278706,1.019
-0.0021169835088736422,1.02
-0.0013374651520026155,1.021
-0.0003839914295583543,1.022
0.0005512498745103535,1.023
0.0013200684502568609,1.024
0.001834769614878567,1.025
0.0020664865937952566,1.026
0.0020455695268912183,1.027
0.0018583852693867403,1.028
0.001624690076527307,1.029
0.001452253847327662,1.03
0.0013814176681706074,1.031
0.0013576295156200026,1.032
0.0012623244962932667,1.033
0.0009833039466257772,1.034
0.0004719333573238323,1.035
-0.0002449331246449399,1.036
-0.001081685499814215,1.037
-0.0019169826083475763,1.038
-0.0026190775582401447,1.039
-0.003069600167786397,1.04
-0.0031833875882996358,1.041
-0.0029295908535404715,1.042
-0.002357101520457031,1.043
-0.0015962027832409425,1.044
-0.0008064751322547866,1.045
-0.00011410335453231155,1.046
0.0004059154823580491,1.047
0.0007240484465746169,1.048
0.0008573501272739507,1.049
0.0008653840652344045,1.05
0.0008294692065139476,1.051
0.0008193303163384751,1.052
0.0008649170009328224,1.053
0.0009499319481899398,1.054
0.001017293355084066,1.055
0.0009844790045436126,1.056
0.0007834032236017189,1.057
0.0004033759955112406,1.058
-0.0001015937031731722,1.059
-0.0006446630668481088,1.06
-0.0011498759143182022,1.061
-0.00157321658190253,1.062
-0.0018935136237517502,1.063
-0.0020973855704305563,1.064
-0.002173761202722372,1.065
-0.0021166896963450412,1.066
-0.0019298390347094734,1.067
-0.0016235952839402641,1.068
-0.0012058725305160165,1.069
-0.0006825329732857804,1.07
-7.420138035864724e-05,1.071
0.0005694123099150478,1.072
0.0011762226240312828,1.073
0.0016746257270683978,1.074
0.002009507345437938,1.075
0.0021451967492426443,1.076
0.0020760270395165487,1.077
0.001837744020600317,1.078
0.0014981616939436304,1.079
0.0011350334301901191,1.08
0.0008106997377441784,1.081
0.0005519613726986045,1.082
0.0003453473918893557,1.083
0.00014967538359796125,1.084
-7.128629836208368e-05,1.085
-0.0003216952250684145,1.086
-0.0005766225341193998,1.087
-0.0007896550146493053,1.088
-0.0009023788585363944,1.089
-0.0008823315926323497,1.09
-0.0007593768985197089,1.091
-0.0006120543702244402,1.092
-0.0005190973265378524,1.093
-0.0005176013831960349,1.094
-0.0005888672913967184,1.095
-0.000679344367033073,1.096
-0.0007362277037541871,1.097
-0.0007303876071846762,1.098
-0.0006637670697207443,1.099
-0.0005642432254275229,1.1
-0.0004746623224046155,1.101
-0.00043805252096664664,1.102
-0.00047892545212347435,1.103
-0.0005981726290703879,1.104
-0.0007834194121103862,1.105
-0.0010145851828800955,1.106
-0.001255894353353718,1.107
-0.0014378894519595563,1.108
-0.0014520271245039356,1.109
-0.0011903805515135304,1.11
-0.0006146193343832694,1.111
0.0002079648127468876,1.112
0.0011244506804462405,1.113
0.0019389113831554036,1.114
0.002457990667828709,1.115
0.0025434053043948334,1.116
0.002160211113196819,1.117
0.0013967477653195669,1.118
0.00043362287738965934,1.119
-0.0005312216633819351,1.12
-0.001343056680263282,1.121
-0.001890573898159672,1.122
-0.002085223984859259,1.123
-0.0018841096447846175,1.124
-0.0013367865113250062,1.125
-0.0005898896002145823,1.126
0.00015952440403592256,1.127
0.0007258539724697459,1.128
0.0009868237301108064,1.129
0.0009133455600002153,1.13
0.0005763616549701615,1.131
0.00013279514300353288,1.132
-0.000227145073604114,1.133
-0.00036824267350476337,1.134
-0.00027108685499807876,1.135
-1.7737866786231966e-05,1.136
0.00027001431391774505,1.137
0.0004924064699586568,1.138
0.0006113196171447975,1.139
0.0006512734176918325,1.14
0.0006598478477792745,1.141
0.0006633550585306432,1.142
0.0006505176751016773,1.143
0.000580472755223216,1.144
0.0004043693776951225,1.145
9.248823094307036e-05,1.146
-0.00034997198364346277,1.147
-0.0008828293709328359,1.148
-0.0014369736451686772,1.149
-0.0019307982824961491,1.15
-0.002294017529632319,1.151
-0.002479753389879138,1.152
-0.0024663068616785962,1.153
-0.002255165591261412,1.154
-0.00186664707705895,1.155
-0.0013411157382164159,1.156
-0.0007369584798042079,1.157
-0.00011653448215379575,1.158
0.000462709756247134,1.159
0.00094551280375449,1.16
0.0012851191242998447,1.161
0.0014622482095226267,1.162
0.0014875729665040402,1.163
0.0013725691401896333,1.164
0.0010994732799812013,1.165
0.0006366748381246829,1.166
2.0540191826639252e-06,1.167
-0.0006857987867394942,1.168
-0.001226590647230467,1.169
-0.00141799709105391,1.17
-0.001146652357962183,1.171
-0.0004477047815054548,1.172
0.0005000101501642808,1.173
0.0014453313390010696,1.174
0.002152649729815623,1.175
0.0024549806003030974,1.176
0.002275533105615293,1.177
0.0016401351963363313,1.178
0.0006759287553561269,1.179
-0.00041538706222835954,1.18
-0.001404303938253263,1.181
-0.0020865183287318537,1.182
-0.0023348403814622463,1.183
-0.002141078782867549,1.184
-0.001623076758954277,1.185
-0.000973434857899285,1.186
-0.0003743574664526228,1.187
6.004264875669499e-05,1.188
0.0002932901735590223,1.189
0.00035065659936014514,1.19
0.0002901516131217218,1.191
0.00016369599034297567,1.192
-1.0349215316258521e-05,1.193
-0.00023604605627173666,1.194
-0.0005043793625315273,1.195
-0.0007756171588623442,1.196
-0.0009870041292332722,1.197
-0.001071169166072163,1.198
-0.000985394398186093,1.199
-0.0007449788068225587,1.2
-0.00042768981884883713,1.201
-0.0001302447577932591,1.202
8.966332343801888e-05,1.203
0.00023340532481303268,1.204
0.0003331520661900263,1.205
0.0004190057721344723,1.206
0.0005116168353478003,1.207
0.0006164501454182643,1.208
0.0007129691199139535,1.209
0.0007692251033362188,1.21
0.0007722423712663075,1.211
0.0007279263065843738,1.212
0.0006360834287126248,1.213
0.0004888442212455546,1.214
0.0002882659416513253,1.215
4.272687897581502e-05,1.216
-0.0002523266136560524,1.217
-0.0006136605135198294,1.218
-0.0010420016576397856,1.219
-0.0014903546086501246,1.22
-0.001851087547419291,1.221
-0.001979756305187583,1.222
-0.0017691025268571161,1.223
-0.0012304060752945472,1.224
-0.0005036595774611913,1.225
0.00021653814964702912,1.226
0.0007762890528172228,1.227
0.0011062143959790407,1.228
0.0011970947027596765,1.229
0.0010657971317756876,1.23
0.0007548000176830389,1.231
0.0003380367059065525,1.232
-9.294232352038278e-05,1.233
-0.00045556371413939636,1.234
-0.0007016277600555061,1.235
-0.0008220479152161494,1.236
-0.0008286738346152828,1.237
-0.0007474826246603022,1.238
-0.0006322107975653056,1.239
-0.000554817048039815,1.24
-0.0005600633812097461,1.241
-0.0006340349370704675,1.242
-0.00072354307089958,1.243
-0.0007774943740472847,1.244
-0.0007655379854591846,1.245
-0.0006789131105273655,1.246
-0.0005319062587254413,1.247
-0.0003530540213601802,1.248
-0.00016256125189458863,1.249
4.2141349851310914e-05,1.25
0.0002748855131824788,1.251
0.0005327331880277203,1.252
0.0007835301477078142,1.253
0.0009855622293371284,1.254
0.0011178803277672553,1.255
0.001195765342696787,1.256
0.0012641269964764848,1.257
0.0013644091205247816,1.258
0.0014900910719174982,1.259
0.0015712573567072611,1.26
0.001505426759344167,1.261
0.001212677862361578,1.262
0.0006777780156681146,1.263
-3.873403110586079e-05,1.264
-0.0008081798216282581,1.265
-0.0014657327406799837,1.266
-0.0018759963687493678,1.267
-0.0019887620916913813,1.268
-0.001847346070074522,1.269
-0.0015580964535006649,1.27
-0.0012418156306547169,1.271
-0.0009987168380270455,1.272
-0.000895858411954197,1.273
-0.0009484462489827679,1.274
-0.0011013592201327676,1.275
-0.0012507515329156932,1.276
-0.001295446317770968,1.277
-0.001176083718256319,1.278
-0.0008956536683780593,1.279
-0.0005176674723025191,1.28
-0.00012892495492346196,1.281
0.00020427412965874314,1.282
0.0004491705564618723,1.283
0.000599841359569846,1.284
0.000674977227567752,1.285
0.0007118342234932977,1.286
0.0007421294639279454,1.287
0.0007678523081928808,1.288
0.0007623873377393558,1.289
0.0006905311485653931,1.29
0.0005287345019414461,1.291
0.00027866712303118075,1.292
-3.2497651243320594e-05,1.293
-0.00036007062209422746,1.294
-0.0006457805167860151,1.295
-0.0008259074806382976,1.296
-0.0008482849269550667,1.297
-0.0006901036520098277,1.298
-0.0003747538223477586,1.299
2.533699698005712e-05,1.3
0.000413132850840461,1.301
0.0007066721214740813,1.302
0.0008737079555649614,1.303
0.0009407561455555618,1.304
0.0009659300477631507,1.305
0.0009892302450665272,1.306
0.0009899573248714235,1.307
0.0008860235195237863,1.308
0.0005844319832282348,1.309
5.022800691316571e-05,1.31
-0.00065250257922339,1.311
-0.0013738473013058664,1.312
-0.0019379135043489598,1.313
-0.002220314086412321,1.314
-0.00219923535724836,1.315
-0.0019481536298207476,1.316
-0.001590849645887399,1.317
-0.0012520493206368821,1.318
-0.0010081942358058152,1.319
-0.0008560459344373999,1.32
-0.0007301508600126644,1.321
-0.0005548263251793426,1.322
-0.0002873297838586138,1.323
6.310621646324677e-05,1.324
0.0004333848986100621,1.325
0.0007263069879341314,1.326
0.0008557847744406516,1.327
0.000795467579730049,1.328
0.000599286064576827,1.329
0.00037399462170263165,1.33
0.00021773025655533762,1.331
0.00017808189992615307,1.332
0.0002569006608790546,1.333
0.0004306547566382493,1.334
0.0006611410416747236,1.335
0.0009043190111586974,1.336
0.0011222613969072899,1.337
0.0012878819177399574,1.338
0.0013728454197853863,1.339
0.0013356243842159291,1.34
0.0011369626041729806,1.341
0.0007724913545477434,1.342
0.00028729468322714414,1.343
-0.00024980420211989033,1.344
-0.0007902952685245883,1.345
-0.0013089691828930218,1.346
-0.0017645826562129067,1.347
-0.002087523810018877,1.348
-0.0022203186216811824,1.349
-0.0021656709690776616,1.35
-0.001994711474642088,1.351
-0.0018071761611197993,1.352
-0.0016687572413486926,1.353
-0.001571398228312269,1.354
-0.001452428134674691,1.355
-0.001248682348497807,1.356
-0.0009326349596802703,1.357
-0.0005184690474977116,1.358
-4.922909943947895e-05,1.359
0.0004203176490725517,1.36
0.0008290935036460707,1.361
0.0011131447789037502,1.362
0.0012216313660529255,1.363
0.0011423902173125992,1.364
0.0009246617488502383,1.365
0.0006742210866126542,1.366
0.0005064878137709068,1.367
0.00048560572175081315,1.368
0.0006032837492583512,1.369
0.0008131028923512859,1.37
0.0010713421696744157,1.371
0.0013443200014432246,1.372
0.0015972331453258713,1.373
0.0017833418272485615,1.374
0.0018433041194209426,1.375
0.0017216886877858683,1.376
0.0013802159246064645,1.377
0.0008033287445461004,1.378
1.9692445104420525e-05,1.379
-0.0008808400632395727,1.38
-0.0017644107793504155,1.381
-0.00248783940856285,1.382
-0.0029426964339962585,1.383
-0.0030984438874782903,1.384
-0.00300221242687943,1.385
-0.0027387492223240138,1.386
-0.0023995008820848532,1.387
-0.002071013483534952,1.388
-0.0018177242529245805,1.389
-0.0016505217241018647,1.39
-0.0015066876024303893,1.391
-0.0012659737822047655,1.392
-0.0008026027762483621,1.393
-6.546738372281897e-05,1.394
0.0008612116149459552,1.395
0.001791393084143453,1.396
0.002542643013241155,1.397
0.003006888355440581,1.398
0.0031524959963025886,1.399
0.0029999366850868023,1.4
0.002591434043860436,1.401
0.001969062754192981,1.402
0.001185931153311487,1.403
0.00033387467889403654,1.404
-0.0004596602897457081,1.405
-0.0010758475522947772,1.406
-0.0014466562996712485,1.407
-0.001567109472810753,1.408
-0.0014964328844484238,1.409
-0.0013460161709564922,1.41
-0.0012317733789209673,1.411
-0.001220032544264487,1.412
-0.001314512877402925,1.413
-0.001476461351240429,1.414
-0.0016397024235559644,1.415
-0.0017151189371024664,1.416
-0.0016070385979656571,1.417
-0.0012479921711899878,1.418
-0.0006375456343460587,1.419
0.00013683557210285982,1.42
0.0009193278984387379,1.421
0.001537719959933349,1.422
0.001851841360038497,1.423
0.0017893567969806219,1.424
0.0013750994596993602,1.425
0.0007325552475617917,1.426
4.7489893127745296e-05,1.427
-0.0004840524092898534,1.428
-0.0007116737086809878,1.429
-0.0005867169106318978,1.43
-0.00018931789370547807,1.431
0.0003071257770959324,1.432
0.0007196809473651571,1.433
0.0009289876664267491,1.434
0.0009034050657934555,1.435
0.0006835726654179524,1.436
0.0003509387852322698,1.437
-5.0360612783846126e-06,1.438
-0.000318722819155184,1.439
-0.0005721720947491816,1.44
-0.0007849956990755428,1.441
-0.0009758173622700975,1.442
-0.0011433257339332405,1.443
-0.0012732162660825245,1.444
-0.001338677440667667,1.445
-0.0013025879125013718,1.446
-0.0011426802940881805,1.447
-0.0008738451325245161,1.448
-0.0005312343745332747,1.449
-0.00013367795799139776,1.45
0.00031696203988795324,1.451
0.0007954824316247216,1.452
0.001227144056581841,1.453
0.0015059929183054049,1.454
0.0015328351128716812,1.455
0.001250955745271527,1.456
0.0006765020292049456,1.457
-9.328913102271786e-05,1.458
-0.0009065487554437629,1.459
-0.0016042406256086457,1.46
-0.002062900580800896,1.461
-0.0022152839487930838,1.462
-0.0020546361339883845,1.463
-0.0016323984602026943,1.464
-0.0010498273444060412,1.465
-0.00044315915705112974,1.466
5.0461100508027916e-05,1.467
0.0003489760504280611,1.468
0.0004600153143064573,1.469
0.0004583439741554518,1.47
0.0004346520108441965,1.471
0.00046391458252299973,1.472
0.000594488634204306,1.473
0.0008257457479575429,1.474
0.0010799634967483503,1.475
0.0012166070484620063,1.476
0.0011085083241392125,1.477
0.0007268434066600546,1.478
0.0001593836160107396,1.479
-0.00043568817122809674,1.48
-0.0008848960319386941,1.481
-0.001051848720351901,1.482
-0.0008935246533856544,1.483
-0.00048565002620305786,1.484
1.736583433899601e-05,1.485
0.0004578171133321733,1.486
0.0007277665808263461,1.487
0.0007794669386441346,1.488
0.0006103424064209668,1.489
0.0002557118962813786,1.49
-0.00021097061678837156,1.491
-0.0007024069356621206,1.492
-0.0011536566118970808,1.493
-0.0015291552557271336,1.494
-0.0018006443501280345,1.495
-0.00193262190293517,1.496
-0.0018944953808887847,1.497
-0.0016796891739608098,1.498
-0.0013131293269089902,1.499
-0.0008507661562049647,1.5
-0.0003729814184169818,1.501
3.935829725349208e-05,1.502
0.00033805131333851553,1.503
0.0005183046726389123,1.504
0.0006067666863101132,1.505
0.0006460350176372845,1.506
0.0006806481857521025,1.507
0.0007491002118802109,1.508
0.0008732821182619354,1.509
0.001038951654483453,1.51
0.0011908305541679471,1.511
0.0012574205427567141,1.512
0.0011936673734039608,1.513
0.0010145611169616539,1.514
0.0007885296630758145,1.515
0.0005973456925706063,1.516
0.0004905769805367397,1.517
0.0004506768994103623,1.518
0.000402179675029789,1.519
0.00026689043567651677,1.52
8.536113154495147e-06,1.521
-0.00035660437528506914,1.522
-0.0007651314979943119,1.523
-0.001132587886340095,1.524
-0.001409298083141342,1.525
-0.0016245946637482383,1.526
-0.001860756526892462,1.527
-0.002173808960292936,1.528
-0.0025447194647246914,1.529
-0.002894164533813264,1.53
-0.003121938764385498,1.531
-0.0031413503133076144,1.532
-0.002904339194655168,1.533
-0.0024152980791768007,1.534
-0.0017270562106599429,1.535
-0.0009130494149014598,1.536
-3.5784511665984614e-05,1.537
0.0008616573382996962,1.538
0.0017438844579701596,1.539
0.0025602789089305953,1.54
0.0032200643403874967,1.541
0.0036058439122903206,1.542
0.003646983521555503,1.543
0.0033779845991775714,1.544
0.002903370034254013,1.545
0.0023148247324676027,1.546
0.0016559631289676986,1.547
0.0009493851389557725,1.548
0.00022830561656549675,1.549
-0.0004606798618396531,1.55
-0.0010636922258775861,1.551
-0.0015234742820691347,1.552
-0.0017902187654487882,1.553
-0.0018324758533669696,1.554
-0.001644170412678736,1.555
-0.0012566020748045062,1.556
-0.0007415959942664716,1.557
-0.0001883529146702531,1.558
0.00032911820467532626,1.559
0.0007675661231932681,1.56
0.0011104101062029818,1.561
0.0013579491500233145,1.562
0.00151507551749059,1.563
0.001580135764966678,1.564
0.0015452350466234074,1.565
0.0013998913020785845,1.566
0.0011316937966683084,1.567
0.0007320211297165542,1.568
0.00020212322785121602,1.569
-0.00045283777110266196,1.57
-0.001236348811717278,1.571
-0.0021723550743311393,1.572
-0.003313635646543028,1.573
-0.004719317251298026,1.574
-0.0063944594531537375,1.575
-0.008232315742661136,1.576
-0.00998198343601872,1.577
-0.011258780884677248,1.578
-0.011624084068905463,1.579
-0.010706365084516166,1.58
-0.008312109529745515,1.581
-0.004510059864906151,1.582
0.0003320836269471414,1.583
0.005594892458955536,1.584
0.010542914123351947,1.585
0.014497090948593482,1.586
0.016976748721435602,1.587
0.01778751089804912,1.588
0.017050412417043907,1.589
0.015144392170934688,1.59
0.012558775101468708,1.591
0.009725518076303606,1.592
0.006914605742478099,1.593
0.004217957464400437,1.594
0.0016101500668089348,1.595
-0.0009536662407600849,1.596
-0.003463916277377388,1.597
-0.0058314309407914485,1.598
-0.007908186380642297,1.599
-0.00954329300534228,1.6
-0.010630164865070442,1.601
-0.01111444257946641,1.602
-0.010998110299987568,1.603
-0.01037552287257115,1.604
-0.009464643838552627,1.605
-0.008572157678782104,1.606
-0.007983692655247772,1.607
-0.007837023642096857,1.608
-0.008055004915906187,1.609
-0.008365373417626578,1.61
-0.008384179284181588,1.611
-0.007735646633369328,1.612
-0.006193841233563527,1.613
-0.003799572778298385,1.614
-0.0008496843884594408,1.615
0.0022754426004738208,1.616
0.005311556681072377,1.617
0.008174221320003202,1.618
0.010881336408636389,1.619
0.013451064979511809,1.62
0.015858778040996988,1.621
0.018049060657636447,1.622
0.01993657709382603,1.623
0.021334065726870074,1.624
0.02183880413510104,1.625
0.020813696299769223,1.626
0.01758382147754456,1.627
0.011785116804894486,1.628
0.0036400716970099393,1.629
-0.006006068753275079,1.63
-0.015885385433038048,1.631
-0.024635961762473343,1.632
-0.03111915927436377,1.633
-0.03460260611040069,1.634
-0.034761680659940945,1.635
-0.03157151183031126,1.636
-0.0252455483503637,1.637
-0.01630046138667951,1.638
-0.0056458759425142635,1.639
0.0054559594839700964,1.64
0.015592854061552676,1.641
0.02348119475180748,1.642
0.02822163759170143,1.643
0.029462615020441958,1.644
0.027421725978509916,1.645
0.02275977648492724,1.646
0.016376808222034578,1.647
0.009226962877201577,1.648
0.0021996028570309286,1.649
-0.003959629950315691,1.65
-0.008732304688291124,1.651
-0.011890581826563393,1.652
-0.013486847116629692,1.653
-0.013780722996177766,1.654
-0.013147491244481599,1.655
-0.011985577391742257,1.656
-0.010629198488056798,1.657
-0.009294220270215436,1.658
-0.00807235010103494,1.659
-0.006945218213314183,1.66
-0.00580597020134842,1.661
-0.004503974718556131,1.662
-0.0029071517674721134,1.663
-0.0009520467866660352,1.664
0.0013464376642962801,1.665
0.003923748474270887,1.666
0.006694595141687899,1.667
0.009534596975747727,1.668
0.012214563728631804,1.669
0.014353000294351007,1.67
0.015459944833514616,1.671
0.015104852682698684,1.672
0.01314338760594483,1.673
0.009820250879988501,1.674
0.005626259379543391,1.675
0.0010336266885611362,1.676
-0.0036481515181335977,1.677
-0.008220751227584115,1.678
-0.012477410470690503,1.679
-0.01612536884313062,1.68
-0.018766571024483526,1.681
-0.019957266245145034,1.682
-0.019335538221674546,1.683
-0.01674296180274345,1.684
-0.012303590444935869,1.685
-0.006455943606981224,1.686
8.195509316994386e-05,1.687
0.006424156942847006,1.688
0.011698720030659424,1.689
0.0152560493816885,1.69
0.016803836969179423,1.691
0.01639987664765801,1.692
0.014340950019488744,1.693
0.011051412542090642,1.694
0.0070375793808419235,1.695
0.0028743704249750202,1.696
-0.0008474775423762319,1.697
-0.0036329928444851904,1.698
-0.005210706841634204,1.699
-0.005601754118738419,1.7
-0.005076253918439317,1.701
-0.004016954526349019,1.702
-0.002767128057283748,1.703
-0.00152457734813423,1.704
-0.0003090302127028722,1.705
0.0009746055193390125,1.706
0.0024016474360164693,1.707
0.003914080890954075,1.708
0.005300578344125333,1.709
0.006272596622232063,1.71
0.006573194288533362,1.711
0.006036279710684953,1.712
0.004589179310990159,1.713
0.0022639420161878927,1.714
-0.0007533168588919459,1.715
-0.004090096316398981,1.716
-0.007245230406411621,1.717
-0.009745735440075648,1.718
-0.011315150325368206,1.719
-0.011934737393519627,1.72
-0.011774824606335279,1.721
-0.011065487625338048,1.722
-0.009984836533279402,1.723
-0.00862766896286159,1.724
-0.007056711247772004,1.725
-0.0053647281219714295,1.726
-0.00368856233480157,1.727
-0.002178665922074458,1.728
-0.0009449255980775114,1.729
2.0422364186737898e-05,1.73
0.0009107791963290574,1.731
0.0020687252715608654,1.732
0.0037996947877969945,1.733
0.0061568265862442005,1.734
0.008900288557496448,1.735
0.011680556109695124,1.736
0.014254939407174367,1.737
0.016512854244038807,1.738
0.018291475248871817,1.739
0.019199825210485542,1.74
0.01868026007037982,1.741
0.01627477267881137,1.742
0.011859465284377913,1.743
0.0057059871070379384,1.744
-0.0015635249289474749,1.745
-0.009027867919459177,1.746
-0.015568516951320896,1.747
-0.02011893901971054,1.748
-0.021997891576122863,1.749
-0.021129504486033793,1.75
-0.018037881047079225,1.751
-0.013662901917909132,1.752
-0.00911803298208869,1.753
-0.005478135509580428,1.754
-0.0035728467337424706,1.755
-0.0037276493717492854,1.756
-0.005541337794767452,1.757
-0.007913469951813667,1.758
-0.009420877359519578,1.759
-0.008873312930172498,1.76
-0.005738196767511876,1.761
-0.00024774567272257226,1.762
0.006787233300062,1.763
0.014288365930300107,1.764
0.021147723732036088,1.765
0.02635204416382559,1.766
0.0291054991522023,1.767
0.02899765646678799,1.768
0.026113420903366352,1.769
0.020954272987154736,1.77
0.014213046715827836,1.771
0.006594723982522969,1.772
-0.001239884439868812,1.773
-0.008679993665077134,1.774
-0.015167725979085053,1.775
-0.02020140588125013,1.776
-0.023358517099875582,1.777
-0.02436593452289254,1.778
-0.023211521206939895,1.779
-0.020228846954107847,1.78
-0.016070164310067293,1.781
-0.01154343671034751,1.782
-0.00737915721710316,1.783
-0.004049477765433547,1.784
-0.0017089075058772578,1.785
-0.0002392784307795053,1.786
0.0006367102622210882,1.787
0.0012305357486120444,1.788
0.0018022238254364897,1.789
0.002506628326018269,1.79
0.003375137248773077,1.791
0.004363780046851348,1.792
0.005431314270091402,1.793
0.006567104632246181,1.794
0.007766280886871403,1.795
0.009008736744266485,1.796
0.01025610864205091,1.797
0.01143607733838138,1.798
0.01241039944865436,1.799
0.012974039357002313,1.8
0.012913283753878168,1.801
0.012082831592950004,1.802
0.010431774127620794,1.803
0.00795314658958177,1.804
0.004621235291190307,1.805
0.0004107449707554873,1.806
-0.004591645100802961,1.807
-0.010080534029934892,1.808
-0.015518385641441042,1.809
-0.02020775540805803,1.81
-0.02340515018801821,1.811
-0.024465487275687814,1.812
-0.0230061752966689,1.813
-0.01902122776896052,1.814
-0.012886318609653719,1.815
-0.005301678283125624,1.816
0.0027534574785967277,1.817
0.010086872252897639,1.818
0.015503476395989015,1.819
0.018176261532310896,1.82
0.01794158107885138,1.821
0.015262038519880422,1.822
0.01091683675209638,1.823
0.005709497769272964,1.824
0.0003870682226546165,1.825
-0.004294774169076902,1.826
-0.007584066496199246,1.827
-0.008888602827037574,1.828
-0.007935227532332847,1.829
-0.004865012170618445,1.83
-0.0002687388332443944,1.831
0.004891827457948763,1.832
0.00948318873590886,1.833
0.012438661734885502,1.834
0.012972446658716967,1.835
0.010758977389980728,1.836
0.006062246518935239,1.837
-0.00025675026462778565,1.838
-0.006915725606761278,1.839
-0.012545221337148178,1.84
-0.016088591594562284,1.841
-0.017109480015211648,1.842
-0.015834079641311134,1.843
-0.012916403047359899,1.844
-0.009114002962167246,1.845
-0.005054994774989991,1.846
-0.0011478245310031338,1.847
0.002362587647296005,1.848
0.005239293887511959,1.849
0.007163683226492671,1.85
0.007856445902036787,1.851
0.00734303347278514,1.852
0.0061155074079163605,1.853
0.004987864142654898,1.854
0.004691191953612864,1.855
0.005460746707634024,1.856
0.006878792863039148,1.857
0.008096754478508725,1.858
0.008327841131963241,1.859
0.007268745480090719,1.86
0.005130218781000501,1.861
0.002347284921440529,1.862
-0.0006687938267951772,1.863
-0.003564298019378477,1.864
-0.005994037420074638,1.865
-0.007622600123736779,1.866
-0.008166580388225346,1.867
-0.007455103801156098,1.868
-0.005491907584004908,1.869
-0.002470303333569958,1.87
0.0012341908205210134,1.871
0.005032578718105663,1.872
0.00813508144053903,1.873
0.009733661395396614,1.874
0.009276621654923762,1.875
0.006638362168417043,1.876
0.0021034840755834675,1.877
-0.003773723446862734,1.878
-0.010318392771429824,1.879
-0.016805764176682943,1.88
-0.022453588300737518,1.881
-0.026424822261923338,1.882
-0.027916724334520672,1.883
-0.026303992044381393,1.884
-0.021289975197419642,1.885
-0.013079410230083466,1.886
-0.0025193027532860904,1.887
0.008958411350779459,1.888
0.019665097677697387,1.889
0.028091941234488722,1.89
0.03324319805365329,1.891
0.03476783656387454,1.892
0.032867131702489234,1.893
0.028061375435232766,1.894
0.020987394727693436,1.895
0.012331611618912778,1.896
0.002853930934944819,1.897
-0.006625528758762013,1.898
-0.015297022565804444,1.899
-0.022375279311869598,1.9
-0.02706355250531302,1.901
-0.028654783348218034,1.902
-0.026838847983829652,1.903
-0.021975271642099094,1.904
-0.015042059893400166,1.905
-0.007267526520689292,1.906
0.0003030405122953382,1.907
0.007059495284188199,1.908
0.012796684414991606,1.909
0.017483950221322864,1.91
0.021019379011802786,1.911
0.02311392138686759,1.912
0.023370893796422872,1.913
0.02150626178753661,1.914
0.01751805080312359,1.915
0.011686451388705539,1.916
0.004492205896907647,1.917
-0.0034161223224192664,1.918
-0.011212365418485732,1.919
-0.017935008185920625,1.92
-0.022618678602259933,1.921
-0.02451992704823344,1.922
-0.023395599915778473,1.923
-0.019659505128566117,1.924
-0.014283366154294685,1.925
-0.008499676391370148,1.926
-0.0034259160112833573,1.927
0.00028625009341378793,1.928
0.002629141260762006,1.929
0.004115439896698702,1.93
0.005409126822625185,1.931
0.006944708965035387,1.932
0.008740892834739573,1.933
0.010464593469438718,1.934
0.011660719604675861,1.935
0.011968447037475067,1.936
0.011200907747608133,1.937
0.009326910360389516,1.938
0.006428711121613039,1.939
0.0026598910270080496,1.94
-0.001751185862370426,1.941
-0.006438550606713571,1.942
-0.010860230794739094,1.943
-0.014344779753928085,1.944
-0.01621790996442268,1.945
-0.015977786656779916,1.946
-0.01344130698760343,1.947
-0.008810780227034024,1.948
-0.0026889344598527644,1.949
0.003966406639911147,1.95
0.01004962791435886,1.951
0.014677051866042966,1.952
0.017458616024681115,1.953
0.01844304443152124,1.954
0.01785722504005071,1.955
0.015902699470254772,1.956
0.012721247717196385,1.957
0.008496985606062303,1.958
0.003590723222568661,1.959
-0.0014320688536231185,1.96
-0.005944986916413867,1.961
-0.009493926350303614,1.962
-0.011968620010405445,1.963
-0.013608319582253586,1.964
-0.014847165830596792,1.965
-0.016078852904745835,1.966
-0.01744177433707792,1.967
-0.018750298421132173,1.968
-0.019619417264307923,1.969
-0.019657587370076928,1.97
-0.018570749514081848,1.971
-0.016140984408323636,1.972
-0.012151692639642088,1.973
-0.006399363679523044,1.974
0.0011297371961682895,1.975
0.010054811775364733,1.976
0.01954893434918472,1.977
0.02844596416914703,1.978
0.03544213302205158,1.979
0.03937214141207188,1.98
0.03952610924351401,1.981
0.035892707782078634,1.982
0.02916148851180488,1.983
0.020453679367035304,1.984
0.010970445320415433,1.985
0.001745005035894436,1.986
-0.0064780834241182856,1.987
-0.013277499172733038,1.988
-0.018519166406419416,1.989
-0.022258093394931115,1.99
-0.024614759806570945,1.991
-0.025697751003517295,1.992
-0.025605606401451438,1.993
-0.024454875242134327,1.994
-0.022380515057460894,1.995
-0.019513578552150485,1.996
-0.015952910263754706,1.997
-0.011729488031748775,1.998
-0.006801520959129683,1.999
-0.0011765555502200908,2.0
0.004838376323758791,2.001
0.010470100204765447,2.002
0.014636269401385892,2.003
0.016404112361839952,2.004
0.015451248329913448,2.005
0.012232237105869124,2.006
0.007795440453178495,2.007
0.0033910190113548948,2.008
7.269436534140558e-05,2.009
-0.0015284271897318528,2.01
-0.0012395391314342166,2.011
0.0006963103107491038,2.012
0.003701584906809788,2.013
0.0070138486808334465,2.014
0.00987295315021142,2.015
0.011676303495244558,2.016
0.012084827712692259,2.017
0.01108514599285221,2.018
0.008961211492505007,2.019
0.0061356513408731056,2.02
0.0029381454984594873,2.021
-0.0005634078706006429,2.022
-0.004565732953978034,2.023
-0.009366010769126236,2.024
-0.015096904159899376,2.025
-0.021464947440695274,2.026
-0.02760254213220667,2.027
-0.03212131160181914,2.028
-0.03341842573408041,2.029
-0.030188067854789044,2.03
-0.021979686894729747,2.031
-0.009546766305991739,2.032
0.00525614954398455,2.033
0.019972765844885942,2.034
0.03213854731057497,2.035
0.039767112149837164,2.036
0.04169929054959334,2.037
0.037803858199699024,2.038
0.028986366495332674,2.039
0.017015986940902623,2.04
0.004217811665850389,2.041
-0.006960168344468375,2.042
-0.01446929817612604,2.043
-0.017170363686145558,2.044
-0.015163641227647563,2.045
-0.009750147249758766,2.046
-0.003033285511854627,2.047
0.0026282815573738945,2.048
0.005177461306449714,2.049
0.0033668220977226223,2.05
-0.0028825943841762946,2.051
-0.012355353449482066,2.052
-0.02270728205956359,2.053
-0.030970861375923642,2.054
-0.034326254926340324,2.055
-0.03093577497507958,2.056
-0.020601987146109998,2.057
-0.004957109769722905,2.058
0.01296260574027329,2.059
0.02950534280256541,2.06
0.04122960826754285,2.061
0.04567064867275133,2.062
0.04195803090338983,2.063
0.031028493764091815,2.064
0.015204363847117475,2.065
-0.0026242468591857722,2.066
-0.01962126872015095,2.067
-0.03324638489369664,2.068
-0.04141585974196202,2.069
-0.042805825667698756,2.07
-0.03720312412040804,2.071
-0.025628154874683493,2.072
-0.010122777526852405,2.073
0.00667861226478517,2.074
0.022079878246482703,2.075
0.03380780641666347,2.076
0.040290346444548514,2.077
0.0407689775011807,2.078
0.03541460186090484,2.079
0.02542716168645524,2.08
0.01287268194434547,2.081
0.00015691383736501227,2.082
-0.010636551753500284,2.083
-0.018231459242277145,2.084
-0.022285447969972914,2.085
-0.0231555089499035,2.086
-0.021513769053136435,2.087
-0.018118836780658492,2.088
-0.0138187573009004,2.089
-0.009539619266450094,2.09
-0.006054044432867989,2.091
-0.0036689683008053796,2.092
-0.00215821239243394,2.093
-0.001053009058639336,2.094
-2.5067787686500887e-05,2.095
0.0009900255081357224,2.096
0.0019742411781397285,2.097
0.0030451157391186683,2.098
0.004514165957043387,2.099
0.006792721823366716,2.1
0.010141717930797564,2.101
0.014353364208720559,2.102
0.018590877801352768,2.103
0.021489815081484617,2.104
0.021522313492310447,2.105
0.017590343236285257,2.106
0.009588594275869779,2.107
-0.0014677963387870383,2.108
-0.013804649050551352,2.109
-0.02536867029716714,2.11
-0.03415654248108519,2.111
-0.03846524589439092,2.112
-0.037222307734321364,2.113
-0.030361976136624367,2.114
-0.019029645293206603,2.115
-0.005442518996129728,2.116
0.007622686104632574,2.117
0.01764859045045966,2.118
0.023186700442364257,2.119
0.024122783464030663,2.12
0.021285115848645723,2.121
0.01589685477345383,2.122
0.009297840703359352,2.123
0.002870609299114471,2.124
-0.0021096502410799444,2.125
-0.004778270303485287,2.126
-0.004919435729060423,2.127
-0.002915004641558088,2.128
0.0005218934963728502,2.129
0.004564034408100019,2.13
0.008344031526305926,2.131
0.01101349187064228,2.132
0.011927796503736958,2.133
0.01092062181269761,2.134
0.008455615234881137,2.135
0.0054858657817877955,2.136
0.0030539654298356173,2.137
0.0018394490884534283,2.138
0.0018634927309899697,2.139
0.0024441542186978142,2.14
0.002435693198199526,2.141
0.0007124222304421834,2.142
-0.003322681043963175,2.143
-0.009483374237320702,2.144
-0.016875794552245735,2.145
-0.024197897806203218,2.146
-0.03012177379681417,2.147
-0.03361458517683597,2.148
-0.03408562740971034,2.149
-0.031310236420263086,2.15
-0.025238721858883654,2.151
-0.01594988538038652,2.152
-0.003818944995742832,2.153
0.010306990937125494,2.154
0.025041125697319137,2.155
0.038469715030935235,2.156
0.048299808153117546,2.157
0.052241963572404786,2.158
0.04865958136127186,2.159
0.03735317951711563,2.16
0.02012292132697928,2.161
0.0006426087208799862,2.162
-0.016617666107808845,2.163
-0.02801046692368277,2.164
-0.031930522186230006,2.165
-0.029051897991815314,2.166
-0.02169544718297468,2.167
-0.012796091920091271,2.168
-0.0049805349185592426,2.169
1.234357152428642e-05,2.17
0.001644756107135198,2.171
0.0006351744645507997,2.172
-0.0014261702335045172,2.173
-0.0028981816190352064,2.174
-0.002919344785688317,2.175
-0.0017525361605250167,2.176
-0.000469891512067657,2.177
-0.00018445865392862875,2.178
-0.0013520304423822582,2.179
-0.003544919214322544,2.18
-0.005601878361203421,2.181
-0.005999450541671739,2.182
-0.0035083110589317185,2.183
0.002089043810044987,2.184
0.00975735752820153,2.185
0.017595821730089615,2.186
0.023485049218094595,2.187
0.02564499698984644,2.188
0.023012153641162103,2.189
0.015501366865505541,2.19
0.004220456082578426,2.191
-0.008553470589004556,2.192
-0.01993689634165883,2.193
-0.027413766051015403,2.194
-0.029696215108748755,2.195
-0.027038728769573896,2.196
-0.020873345730815243,2.197
-0.012974042772481372,2.198
-0.00467099796326329,2.199
0.0034209754468256864,2.2
0.011137939271039236,2.201
0.018268989954537813,2.202
0.024171066585680735,2.203
0.027752651770298543,2.204
0.027842070623178002,2.205
0.023722864542141696,2.206
0.015561031250605064,2.207
0.004518288933662799,2.208
-0.007448841507457472,2.209
-0.017950115687326403,2.21
-0.024629679250480423,2.211
-0.02577211981346634,2.212
-0.02095544761363529,2.213
-0.01151237671704393,2.214
-0.000454425169472182,2.215
0.008441468434284838,2.216
0.01221692965561715,2.217
0.010151181400261194,2.218
0.004074593055209066,2.219
-0.002622842220703441,2.22
-0.006656739290741575,2.221
-0.006295703178922551,2.222
-0.001940314219808887,2.223
0.004217898268671636,2.224
0.009040419671072695,2.225
0.009456138459089786,2.226
0.003490114628614154,2.227
-0.008933577933374156,2.228
-0.02576108870735383,2.229
-0.04330760114959027,2.23
-0.05730953122099938,2.231
-0.06421797905595,2.232
-0.06227026133339519,2.233
-0.05182544970557241,2.234
-0.03490193162265643,2.235
-0.014351109158910056,2.236
0.006850983089450406,2.237
0.02603650124053279,2.238
0.04119544760757327,2.239
0.051371917948246866,2.24
0.056881378741593124,2.241
0.059012112657711495,2.242
0.059270387829209244,2.243
0.058727801912455524,2.244
0.057865984151442285,2.245
0.05667391591238813,2.246
0.05461071121461624,2.247
0.05057711979101947,2.248
0.043310068511565304,2.249
0.032124761991315226,2.25
0.017453910005935762,2.251
0.0008154906502833962,2.252
