VaMe,time
0.00412356317962345,0.001
0.004675513025715695,0.002
0.005231694468323735,0.003
0.0057916537175855985,0.004
0.006354965585021833,0.005
0.006921243931996066,0.006
0.007490146380157707,0.007
0.00806137324311501,0.008
0.008634661716004015,0.009
0.00920977700175877,0.01
0.009786502310070595,0.011
0.010364629510216973,0.012
0.01094395167738992,0.013
0.011524257988599601,0.014
0.012105330652592266,0.015
0.012686943042398513,0.016
0.013268858347264125,0.017
0.013850828988247136,0.018
0.014432597482436697,0.019
0.015013898554920201,0.02
0.015594461381782975,0.021
0.016174010775390293,0.022
0.016752266365630115,0.023
0.017328939865532543,0.024
0.017903732940005697,0.025
0.018476339015481368,0.026
0.019046449108329918,0.027
0.01961375833502762,0.028
0.020177969723313996,0.029
0.020738793366993902,0.03
0.021295940700674833,0.031
0.021849117711985937,0.032
0.02239802464875081,0.033
0.022942365616561107,0.034
0.02348186277346667,0.035
0.02401626779732756,0.036
0.024545366964569472,0.037
0.025068978938509054,0.038
0.025586945890030948,0.039
0.02609911977254953,0.04
0.02660534777620883,0.041
0.02710546403369344,0.042
0.027599291632615427,0.043
0.02808665031138044,0.044
0.02856736245771115,0.045
0.0290412539691194,0.046
0.02950814948836282,0.047
0.029967863889422994,0.048
0.03042019574535191,0.049
0.03086492825883828,0.05
0.03130183608156443,0.051
0.031730691339035645,0.052
0.0321512640491157,0.053
0.032563316344207484,0.054
0.03296659487044811,0.055
0.03336082968791532,0.056
0.033745743792490686,0.057
0.03412106844044832,0.058
0.03448655753582481,0.059
0.03484199813351341,0.06
0.03518721630626982,0.061
0.03552207812455951,0.062
0.03584648576243986,0.063
0.03616036874005263,0.064
0.03646367018601013,0.065
0.0367563304454483,0.066
0.037038276983219376,0.067
0.037309430522863125,0.068
0.037569726359231705,0.069
0.03781914044390933,0.07
0.03805771123883462,0.071
0.038285552678465354,0.072
0.03850285591899507,0.073
0.03870987950393708,0.074
0.03890692973876084,0.075
0.03909433485234152,0.076
0.039272419389587206,0.077
0.039441488552380256,0.078
0.03960182726188203,0.079
0.03975370716114378,0.08
0.03989739224112193,0.081
0.04003314053304664,0.082
0.04016120377117606,0.083
0.040281827335566345,0.084
0.040395252019474095,0.085
0.04050171798976849,0.086
0.04060147009694879,0.087
0.040694762862219624,0.088
0.04078186327891643,0.089
0.04086304999815921,0.09
0.04093860831575337,0.091
0.04100882136817779,0.092
0.04107395879778414,0.093
0.041134265552634997,0.094
0.04118995523417519,0.095
0.04124121053110351,0.096
0.041288188197695516,0.097
0.04133102466261979,0.098
0.041369840973392476,0.099
0.04140474735061362,0.1
0.04143584748206505,0.101
0.041463242210653346,0.102
0.04148703184136369,0.103
0.04150731610567181,0.104
0.04152419100739824,0.105
0.04153774225327793,0.106
0.04154803614330704,0.107
0.041555111557593755,0.108
0.04155897823528819,0.109
0.041559622148074224,0.11
0.041557012671105675,0.111
0.04155110618236655,0.112
0.041541844323670814,0.113
0.041529147760926886,0.114
0.0415129092079887,0.115
0.04149299155187925,0.116
0.04146923296494655,0.117
0.041441454291522975,0.118
0.04140946312140674,0.119
0.04137305212550073,0.12
0.0413319928328902,0.121
0.04128603145462954,0.122
0.04123489473608527,0.123
0.04117830599958554,0.124
0.04111600407149611,0.125
0.04104775804884571,0.126
0.040973373896434864,0.127
0.04089269082842331,0.128
0.04080556714232871,0.129
0.04071186027710888,0.13
0.040611414607151834,0.131
0.04050406865614323,0.132
0.040389677200767395,0.133
0.040268134668951974,0.134
0.04013939146093604,0.135
0.040003460762033594,0.136
0.03986041541689279,0.137
0.039710375539376654,0.138
0.039553488610678665,0.139
0.03938990636897533,0.14
0.039219767926734844,0.141
0.03904319869571947,0.142
0.03886032396906146,0.143
0.038671286622063594,0.144
0.03847626057879945,0.145
0.03827545747441802,0.146
0.03806912627460219,0.147
0.03785754634581722,0.148
0.03764101527833227,0.149
0.03741983354191869,0.15
0.03719428896813769,0.151
0.03696464503212509,0.152
0.03673113563503751,0.153
0.03649396454120924,0.154
0.036253305042921104,0.155
0.03600929824862664,0.156
0.03576205205061496,0.157
0.035511643505414615,0.158
0.03525812604724453,0.159
0.03500154108191024,0.16
0.03474193178064305,0.161
0.03447935585436365,0.162
0.03421389396039397,0.163
0.03394565112538813,0.164
0.03367474995728457,0.165
0.03340131708566537,0.166
0.03312546971232875,0.167
0.03284731256519322,0.168
0.03256694804950946,0.169
0.03228449108866377,0.17
0.03200007946529693,0.171
0.031713876472418995,0.172
0.03142606589723154,0.173
0.031136840362818972,0.174
0.03084638695081548,0.175
0.030554878839671326,0.176
0.03026247949101904,0.177
0.029969355346440584,0.178
0.029675688019830445,0.179
0.029381680882864,0.18
0.029087558891034877,0.181
0.02879356219505371,0.182
0.02849993526281199,0.183
0.028206914665522984,0.184
0.02791472034600547,0.185
0.027623553920344365,0.186
0.027333602487038648,0.187
0.02704504357052578,0.188
0.02675804887276421,0.189
0.026472786929996415,0.19
0.02618942518864072,0.191
0.025908131704357358,0.192
0.025629076427173717,0.193
0.02535243188067873,0.194
0.02507837295783458,0.195
0.02480707554519632,0.196
0.024538713759609195,0.197
0.02427345572925972,0.198
0.024011458250295877,0.199
0.023752861931752477,0.2
0.023497789602568882,0.201
0.02324634880532018,0.202
0.02299863566503511,0.203
0.022754737101345002,0.204
0.022514730507574948,0.205
0.022278681500516297,0.206
0.022046641053871382,0.207
0.021818643654773467,0.208
0.021594707780311327,0.209
0.021374838985601975,0.21
0.021159034653878497,0.211
0.020947288648353463,0.212
0.020739594191932064,0.213
0.02053594421795641,0.214
0.020336329646328807,0.215
0.02014073690508133,0.216
0.019949146144985788,0.217
0.019761530972954078,0.218
0.01957785948066753,0.219
0.019398095372794785,0.22
0.019222197565928655,0.221
0.019050117516113983,0.222
0.01888179648685977,0.223
0.018717167185181627,0.224
0.018556161335208064,0.225
0.01839871985229219,0.226
0.018244801369438287,0.227
0.018094386791454156,0.228
0.017947478923888233,0.229
0.0178040970689681,0.23
0.017664267651360758,0.231
0.017528014640350625,0.232
0.0173953559448483,0.233
0.017266308012861994,0.234
0.017140893528093486,0.235
0.017019146272148126,0.236
0.016901111345127156,0.237
0.016786841340979075,0.238
0.0166763897748532,0.239
0.016569803954789752,0.24
0.01646712029152603,0.241
0.016368363354308253,0.242
0.016273546515688072,0.243
0.016182671565778562,0.244
0.016095727359832102,0.245
0.01601268895251825,0.246
0.015933517543804468,0.247
0.01585816092762965,0.248
0.015786555144617003,0.249
0.015718627902908823,0.25
0.01565430271259485,0.251
0.015593502229132715,0.252
0.015536150170975574,0.253
0.015482171964808207,0.254
0.015431494612519355,0.255
0.015384046245485939,0.256
0.0153397555392709,0.257
0.015298550778835908,0.258
0.015260358023521535,0.259
0.015225098088079791,0.26
0.015192683927780263,0.261
0.015163021828573464,0.262
0.015136017790873306,0.263
0.015111586399959165,0.264
0.015089658448712111,0.265
0.015070185217875157,0.266
0.015053138763542384,0.267
0.015038508493233243,0.268
0.015026294942563028,0.269
0.015016501888289627,0.27
0.015009128699914352,0.271
0.01500416616167797,0.272
0.015001597447719743,0.273
0.015001401812628724,0.274
0.015003557555837424,0.275
0.015008042950663908,0.276
0.015014835092663168,0.277
0.015023906813847292,0.278
0.015035222838559145,0.279
0.015048738052521082,0.28
0.01506439949214302,0.281
0.01508214971151916,0.282
0.015101928117751585,0.283
0.015123669250873816,0.284
0.015147300045582394,0.285
0.015172740062954292,0.286
0.015199906635304796,0.287
0.015228722595974348,0.288
0.015259123164764297,0.289
0.015291060073061427,0.29
0.015324502012527401,0.291
0.015359431019832307,0.292
0.01539583520786818,0.293
0.015433700540790329,0.294
0.01547300716481352,0.295
0.015513733126080304,0.296
0.015555861528982832,0.297
0.0155993858707728,0.298
0.015644311894384637,0.299
0.015690656391275204,0.3
0.015738443683051787,0.301
0.015787700458449617,0.302
0.015838449855388875,0.303
0.015890706936585355,0.304
0.01594447831645772,0.305
0.015999766100547475,0.306
0.016056572991607492,0.307
0.016114905277502187,0.308
0.016174772134848064,0.309
0.01623618142414982,0.31
0.016299134875464614,0.311
0.01636362717970305,0.312
0.016429649932507288,0.313
0.016497196268467983,0.314
0.016566261989895862,0.315
0.016636842215790523,0.316
0.01670892580611052,0.317
0.016782492625516388,0.318
0.016857516810206453,0.319
0.016933973245482938,0.32
0.017011842624917273,0.321
0.01709111289309222,0.322
0.017171776468239214,0.323
0.01725382429072189,0.324
0.017337241105028798,0.325
0.017422006861969618,0.326
0.017508103707410273,0.327
0.017595523377114838,0.328
0.017684270994113307,0.329
0.017774364409538695,0.33
0.017865829976041664,0.331
0.017958696343257665,0.332
0.018052987932849002,0.333
0.018148719302734432,0.334
0.018245891256538065,0.335
0.01834448955089341,0.336
0.01844448646875273,0.337
0.018545844424392673,0.338
0.018648520497055444,0.339
0.01875247109489451,0.34
0.01885765595498859,0.341
0.018964040693791706,0.342
0.019071597438747888,0.343
0.019180303552995277,0.344
0.019290138912662836,0.345
0.019401082415836435,0.346
0.01951310829173225,0.347
0.01962618239946902,0.348
0.019740258646542445,0.349
0.019855276703297335,0.35
0.019971163087728738,0.351
0.0200878362338357,0.352
0.020205213759408685,0.353
0.020323219572788254,0.354
0.020441789095030718,0.355
0.02056087133986326,0.356
0.020680427084555673,0.357
0.0208004231314526,0.358
0.02092082399709822,0.359
0.021041584637106894,0.36
0.021162648484839352,0.361
0.02128395120968968,0.362
0.021405426345402108,0.363
0.02152700951759938,0.364
0.021648640647601913,0.365
0.0217702645074497,0.366
0.021891829968456594,0.367
0.022013288160065675,0.368
0.02213458957298445,0.369
0.02225567998140755,0.37
0.022376495359122107,0.371
0.02249695753715815,0.372
0.02261697384105021,0.373
0.02273644205071516,0.374
0.022855258346459427,0.375
0.022973325110846276,0.376
0.023090556809300722,0.377
0.023206882947098075,0.378
0.023322247534102943,0.379
0.023436605124283066,0.38
0.02354991407710919,0.381
0.023662128090966583,0.382
0.023773188234111887,0.383
0.02388301928623187,0.384
0.023991532228570065,0.385
0.02409863019065983,0.386
0.024204214521661934,0.387
0.024308190087982004,0.388
0.024410469827292763,0.389
0.024510978185148094,0.39
0.024609652635068324,0.391
0.02470644230694343,0.392
0.02480130302485183,0.393
0.024894188958187062,0.394
0.024985043699628277,0.395
0.025073796455258545,0.396
0.025160366079635288,0.397
0.025244668871469263,0.398
0.025326625002883442,0.399
0.02540616219060108,0.4
0.025483217130896598,0.401
0.025557735156779112,0.402
0.025629668136788745,0.403
0.025698970220034624,0.404
0.02576559102905599,0.405
0.025829467805659007,0.406
0.025890521430447035,0.407
0.02594865980203428,0.408
0.026003785615117795,0.409
0.026055803538363956,0.41
0.02610462488716414,0.411
0.026150169877567526,0.412
0.026192367703032446,0.413
0.026231154428715292,0.414
0.026266468382548574,0.415
0.02629824294434794,0.416
0.02632639914767117,0.417
0.026350843946691984,0.418
0.02637147735990163,0.419
0.02638820419173362,0.42
0.026400943763392824,0.421
0.02640963414863134,0.422
0.026414229769550587,0.423
0.026414692508930738,0.424
0.02641097969717824,0.425
0.026403037068035373,0.426
0.026390802436561757,0.427
0.026374215840794954,0.428
0.02635322778248758,0.429
0.026327801340756067,0.43
0.02629790759513287,0.431
0.02626351620401259,0.432
0.026224587011998667,0.433
0.026181069799849098,0.434
0.02613291267392648,0.435
0.02608007229171726,0.436
0.026022519632382887,0.437
0.025960239260999066,0.438
0.025893222413061467,0.439
0.02582145659609125,0.44
0.025744918364022845,0.441
0.025663575586657144,0.442
0.025577398081618394,0.443
0.02548636997876096,0.444
0.025390498637001185,0.445
0.025289817767878957,0.446
0.025184383595902877,0.447
0.02507426407298121,0.448
0.02495952569629627,0.449
0.024840228529443592,0.45
0.024716435494917293,0.451
0.02458822871384511,0.452
0.024455722001412616,0.453
0.024319064731847473,0.454
0.024178436625434035,0.455
0.024034034843388744,0.456
0.02388605819504806,0.457
0.023734697620918916,0.458
0.02358013858811144,0.459
0.023422570183934868,0.46
0.02326219230745299,0.461
0.02309921772511187,0.462
0.022933869760866882,0.463
0.02276637731783424,0.464
0.02259696901394819,0.465
0.022425867846181776,0.466
0.022253287111015832,0.467
0.022079427530321535,0.468
0.021904474925242477,0.469
0.021728598120316116,0.47
0.021551948342776475,0.471
0.02137466179177527,0.472
0.021196864939636823,0.473
0.021018680437702334,0.474
0.020840231847603925,0.475
0.020661646307479013,0.476
0.020483054913513873,0.477
0.020304591131616347,0.478
0.020126387863104077,0.479
0.019948573875083496,0.48
0.01977127026649643,0.481
0.019594587518441765,0.482
0.019418623446235923,0.483
0.019243462028856094,0.484
0.01906917272579379,0.485
0.018895809735072197,0.486
0.018723411284601366,0.487
0.018552000268320688,0.488
0.018381587404751324,0.489
0.018212176424456942,0.49
0.01804376996850577,0.491
0.017876375266517797,0.492
0.017710008945021644,0.493
0.017544700350884113,0.494
0.017380492830534625,0.495
0.0172174425065926,0.496
0.017055614293907093,0.497
0.016895075261967932,0.498
0.016735887242406437,0.499
0.01657810335347475,0.5
0.01642177111989941,0.501
0.01626693857636677,0.502
0.01611365810856146,0.503
0.015961986080450612,0.504
0.01581197876362301,0.505
0.01566368653718844,0.506
0.015517149362229962,0.507
0.015372394962596096,0.508
0.015229438543074106,0.509
0.015088283789939748,0.51
0.014948926486123653,0.511
0.014811360120433917,0.512
0.014675581095374464,0.513
0.014541591984931454,0.514
0.014409402521792165,0.515
0.014279028622264375,0.516
0.014150490006277047,0.517
0.014023806900219286,0.518
0.0138989960854638,0.519
0.01377606699415698,0.52
0.013655019877703971,0.521
0.013535847690906131,0.522
0.013418540610683212,0.523
0.013303090788743654,0.524
0.01318949590953038,0.525
0.013077761063806448,0.526
0.012967898884176505,0.527
0.012859928303439072,0.528
0.012753872611328506,0.529
0.01264975749852559,0.53
0.01254760941640734,0.531
0.0124474540231206,0.532
0.012349314068766501,0.533
0.012253206657383922,0.534
0.01215914164018349,0.535
0.012067123149406354,0.536
0.011977153489182615,0.537
0.01188923647868466,0.538
0.01180337813288435,0.539
0.011719584234721843,0.54
0.01163785622628831,0.541
0.011558188680196525,0.542
0.011480570096061371,0.543
0.01140498466726932,0.544
0.011331412136999043,0.545
0.01125982650161687,0.546
0.011190196823780899,0.547
0.011122491604977278,0.548
0.011056684681184169,0.549
0.010992759875941206,0.55
0.010930713085397534,0.551
0.010870551488953648,0.552
0.010812290045728867,0.553
0.010755946122950841,0.554
0.010701534718356038,0.555
0.01064906778539612,0.556
0.010598558583487497,0.557
0.010550028032266037,0.558
0.01050350961914562,0.559
0.01045905139373382,0.56
0.01041671494344441,0.561
0.010376571961169803,0.562
0.010338699431842808,0.563
0.010303174414905593,0.564
0.010270069516796706,0.565
0.010239450717215682,0.566
0.010211378416105673,0.567
0.01018591034868361,0.568
0.010163104345101277,0.569
0.010143019926428855,0.57
0.010125718460453946,0.571
0.010111261947870799,0.572
0.010099710853531922,0.573
0.010091121593021914,0.574
0.010085544254555502,0.575
0.01008302092793615,0.576
0.010083584725140152,0.577
0.010087259323999164,0.578
0.010094058801089944,0.579
0.010103987664482623,0.58
0.010117041062544331,0.581
0.01013320499405093,0.582
0.010152456316185329,0.583
0.010174762655878765,0.584
0.010200082575042386,0.585
0.010228366051323613,0.586
0.010259554842936074,0.587
0.010293582370711861,0.588
0.010330373467044905,0.589
0.010369844806401287,0.59
0.010411906225498513,0.591
0.010456462186000251,0.592
0.010503412480804419,0.593
0.010552651737978985,0.594
0.010604067989109638,0.595
0.010657541531243668,0.596
0.010712945326772846,0.597
0.010770146730565323,0.598
0.010829009326200168,0.599
0.010889394058663402,0.6
0.01095115946361731,0.601
0.011014160944840494,0.602
0.011078249062345414,0.603
0.01114326742912208,0.604
0.0112090520198598,0.605
0.011275433226877117,0.606
0.01134223973175235,0.607
0.011409302363958087,0.608
0.011476456876788518,0.609
0.011543545095282545,0.61
0.011610414110366842,0.611
0.011676913505523712,0.612
0.01174289121525105,0.613
0.011808189978436478,0.614
0.011872647127385321,0.615
0.011936098431434262,0.616
0.011998383830257623,0.617
0.012059352552387536,0.618
0.012118866255729359,0.619
0.012176799403860215,0.62
0.012233036433151613,0.621
0.012287466064740694,0.622
0.012339975205614537,0.623
0.012390446919117226,0.624
0.012438764408590191,0.625
0.012484817649525576,0.626
0.012528508330745996,0.627
0.012569751371519314,0.628
0.01260847287654963,0.629
0.012644604900659417,0.63
0.012678078826276864,0.631
0.012708821618197658,0.632
0.012736758273650254,0.633
0.01276181864155735,0.634
0.01278394427119241,0.635
0.01280309265991212,0.636
0.0128192379099691,0.637
0.012832367424384221,0.638
0.01284247519449857,0.639
0.012849554718815936,0.64
0.012853596895276284,0.641
0.012854595060515296,0.642
0.01285255311469975,0.643
0.012847491655876779,0.644
0.012839450162312029,0.645
0.012828485136959162,0.646
0.012814664727495964,0.647
0.012798061173198401,0.648
0.012778744204536655,0.649
0.012756779354140827,0.65
0.012732231825682281,0.651
0.012705172246907285,0.652
0.012675680666168544,0.653
0.012643847595624681,0.654
0.012609772121060932,0.655
0.012573557448292924,0.656
0.012535305206928662,0.657
0.012495111543875422,0.658
0.012453067642589456,0.659
0.012409263682286661,0.66
0.012363792945316776,0.661
0.012316753934953215,0.662
0.012268250031312256,0.663
0.01221838685015298,0.664
0.012167268068818377,0.665
0.01211499189566708,0.666
0.01206165104680719,0.667
0.01200733681505577,0.668
0.011952144807560574,0.669
0.011896179655532513,0.67
0.011839557269858865,0.671
0.011782403991210262,0.672
0.011724852562508723,0.673
0.011667036212012859,0.674
0.011609084185319364,0.675
0.011551121693215146,0.676
0.011493273300154849,0.677
0.011435666251233814,0.678
0.011378431648640597,0.679
0.011321703457872055,0.68
0.011265616090128789,0.681
0.011210301414773798,0.682
0.011155885952088544,0.683
0.011102488748998105,0.684
0.011050220137227085,0.685
0.010999181314330338,0.686
0.010949464545240936,0.687
0.010901153755787377,0.688
0.010854325313241044,0.689
0.010809048787934024,0.69
0.010765387446729693,0.691
0.010723398197222463,0.692
0.010683130831614568,0.693
0.01064462702549557,0.694
0.010607920257126686,0.695
0.010573037309162918,0.696
0.010540000653437817,0.697
0.01050883069633524,0.698
0.01047954750339803,0.699
0.010452172038166677,0.7
0.010426727020849963,0.701
0.010403237417584579,0.702
0.010381730354093066,0.703
0.010362234069885434,0.704
0.010344775557233836,0.705
0.010329377458078442,0.706
0.01031605650070113,0.707
0.010304825252106943,0.708
0.010295695873301104,0.709
0.01028868326494771,0.71
0.010283806297664271,0.711
0.010281087035412383,0.712
0.010280548390994326,0.713
0.010282210912161546,0.714
0.010286089597167905,0.715
0.010292191890376237,0.716
0.010300517524980365,0.717
0.01031105958832517,0.718
0.010323805624323966,0.719
0.010338738107124762,0.72
0.01035583410875608,0.721
0.010375064225834237,0.722
0.01039639139539143,0.723
0.010419770739455955,0.724
0.010445150802102439,0.725
0.0104724750530601,0.726
0.01050168220158013,0.727
0.010532705128096339,0.728
0.010565470207758623,0.729
0.010599899069602306,0.73
0.010635912403867926,0.731
0.010673433497565377,0.732
0.010712389608412936,0.733
0.010752710421556328,0.734
0.010794324372332407,0.735
0.010837155963096179,0.736
0.010881127258645922,0.737
0.010926163024610362,0.738
0.010972196224587148,0.739
0.01101917141916296,0.74
0.011067045217550467,0.741
0.011115783699670203,0.742
0.011165357198753837,0.743
0.011215734277330833,0.744
0.011266878819086858,0.745
0.011318752560459854,0.746
0.011371320615420183,0.747
0.011424556414445461,0.748
0.011478444827919116,0.749
0.011532983498808451,0.75
0.011588182451762765,0.751
0.011644062000763579,0.752
0.011700648963392847,0.753
0.011757971464170595,0.754
0.011816053950763919,0.755
0.011874915550775533,0.756
0.011934573119901036,0.757
0.01199504646036696,0.758
0.012056362471901042,0.759
0.012118556919673246,0.76
0.012181673690519647,0.761
0.012245761828254792,0.762
0.01231087095857414,0.763
0.012377046344998609,0.764
0.012444325800062543,0.765
0.012512739979216087,0.766
0.012582314940074987,0.767
0.012653074641366741,0.768
0.012725042075047861,0.769
0.012798238706136948,0.77
0.01287268225011695,0.771
0.01294838356391156,0.772
0.013025344616603617,0.773
0.01310355898375951,0.774
0.013183013828650461,0.775
0.013263691270471811,0.776
0.013345568188553925,0.777
0.01342861465146848,0.778
0.013512791698795278,0.779
0.013598049615074922,0.78
0.013684327662424112,0.781
0.013771555204480063,0.782
0.0138596533756651,0.783
0.01394853659291829,0.784
0.014038113485312448,0.785
0.014128286788356599,0.786
0.014218951900809188,0.787
0.014309994938600133,0.788
0.01440129258176766,0.789
0.014492715072429043,0.79
0.014584130866298896,0.791
0.014675410486035956,0.792
0.014766428193491075,0.793
0.014857060987539597,0.794
0.014947184945472036,0.795
0.015036670294228602,0.796
0.015125378758533606,0.797
0.015213165858864154,0.798
0.01529988656234433,0.799
0.015385400893756595,0.8
0.015469577702060092,0.801
0.015552296011202255,0.802
0.015633443686228495,0.803
0.015712913394788336,0.804
0.015790596630335295,0.805
0.015866378583019567,0.806
0.015940137721341712,0.807
0.01601175077587875,0.808
0.016081099499430505,0.809
0.01614807528357502,0.81
0.016212579830446498,0.811
0.016274521430350974,0.812
0.016333808219737754,0.813
0.01639034309720252,0.814
0.01644402513855317,0.815
0.016494756804703754,0.816
0.016542451811187353,0.817
0.016587039637075047,0.818
0.016628465255122526,0.819
0.016666684004563014,0.82
0.01670165332358943,0.821
0.01673332627183221,0.822
0.0167616520045381,0.823
0.016786582765423,0.824
0.016808082302037498,0.825
0.016826131858547044,0.826
0.016840732815666094,0.827
0.016851906185952066,0.828
0.016859689346367543,0.829
0.016864130359004952,0.83
0.016865280286878673,0.831
0.01686318561938576,0.832
0.01685788564204045,0.833
0.016849417446349074,0.834
0.016837824975457102,0.835
0.016823166747515706,0.836
0.016805519721758692,0.837
0.016784978716431052,0.838
0.016761651615186585,0.839
0.01673565134452203,0.84
0.01670708713520155,0.841
0.016676059630562522,0.842
0.016642662405614916,0.843
0.016606986909595275,0.844
0.016569126333484976,0.845
0.01652917659289797,0.846
0.016487234338454847,0.847
0.016443392600345073,0.848
0.016397736364977752,0.849
0.01635034169256873,0.85
0.01630127949467524,0.851
0.016250620891522616,0.852
0.016198440502035033,0.853
0.016144816136015237,0.854
0.01608982490399499,0.855
0.016033537837504552,0.856
0.01597601764385666,0.857
0.01591732218521434,0.858
0.015857510597158717,0.859
0.0157966474913582,0.86
0.01573480340009638,0.861
0.015672051507482136,0.862
0.015608462067285653,0.863
0.015544098011005036,0.864
0.015479015157047306,0.865
0.01541326644910043,0.866
0.015346906511320556,0.867
0.015279993751409714,0.868
0.015212589322329903,0.869
0.015144753228207393,0.87
0.015076539211552508,0.871
0.015007992105196332,0.872
0.014939150048022615,0.873
0.014870049416341216,0.874
0.014800728822951413,0.875
0.014731230562771622,0.876
0.014661599378149304,0.877
0.014591878937388513,0.878
0.014522107240232455,0.879
0.014452313424072048,0.88
0.014382518103042665,0.881
0.01431273663132233,0.882
0.014242982897093396,0.883
0.014173272037494633,0.884
0.014103621589080868,0.885
0.014034050890474445,0.886
0.013964578603832089,0.887
0.013895218899914623,0.888
0.013825978598575534,0.889
0.013756858073058946,0.89
0.013687855956883342,0.891
0.013618974830061626,0.892
0.01355022521825387,0.893
0.013481626667046021,0.894
0.013413205536273754,0.895
0.013344989939891931,0.896
0.013277004053157963,0.897
0.013209265837658404,0.898
0.013141790117411513,0.899
0.01307459431338639,0.9
0.013007703358418334,0.901
0.012941152608250172,0.902
0.012874988681988705,0.903
0.012809268198757193,0.904
0.012744054409761776,0.905
0.01267941199254898,0.906
0.012615401702879888,0.907
0.01255207838128695,0.908
0.01248949398297442,0.909
0.012427702859325396,0.91
0.012366765596966525,0.911
0.012306749954014644,0.912
0.012247728859933249,0.913
0.012189775990526756,0.914
0.012132960646434498,0.915
0.012077345124983822,0.916
0.012022986138766546,0.917
0.011969937907118089,0.918
0.011918253850807926,0.919
0.011867986008806697,0.92
0.011819182607147838,0.921
0.011771884978538035,0.922
0.011726125953601065,0.923
0.011681930933002701,0.924
0.011639320457113156,0.925
0.011598312512272422,0.926
0.011558923922643453,0.927
0.011521170767921368,0.928
0.011485067835488897,0.929
0.011450627204422326,0.93
0.011417856171001991,0.931
0.01138675493230164,0.932
0.011357314764034721,0.933
0.011329517322804109,0.934
0.011303334784529743,0.935
0.011278729930520754,0.936
0.01125565611122095,0.937
0.01123405803620955,0.938
0.011213873902821558,0.939
0.011195038184595177,0.94
0.011177483953562809,0.941
0.01116114385062885,0.942
0.011145949152946533,0.943
0.011131827279550909,0.944
0.01111869984278403,0.945
0.011106483794972295,0.946
0.011095095805294962,0.947
0.011084457782871588,0.948
0.011074501810891021,0.949
0.011065173885151316,0.95
0.011056436278959077,0.951
0.011048268436518748,0.952
0.011040666369271118,0.953
0.011033640630168358,0.954
0.011027213055213717,0.955
0.011021412542242448,0.956
0.011016270157871997,0.957
