VaMe,time
-0.015598593839754524,0.001
-0.01470593150199194,0.002
-0.01381935806241511,0.003
-0.012939635843117945,0.004
-0.012067512018961918,0.005
-0.011203717598219169,0.006
-0.010348962821931859,0.007
-0.00950392859922409,0.008
-0.00866925537318028,0.009
-0.007845531360049833,0.01
-0.007033282322908504,0.011
-0.006232965114221793,0.012
-0.0054449667571283234,0.013
-0.004669609856052906,0.014
-0.003907163891299305,0.015
-0.0031578605890741343,0.016
-0.0024219087378452796,0.017
-0.0016995011837741124,0.018
-0.000990811343420665,0.019
-0.00029598521525019085,0.02
0.0003848643571543997,0.021
0.00105165945447207,0.022
0.0017043556392363083,0.023
0.0023429381795577017,0.024
0.002967416656490551,0.025
0.0035778184447930413,0.026
0.004174181535812654,0.027
0.00475654805672829,0.028
0.00532496094787312,0.029
0.005879464521323361,0.03
0.006420106107427596,0.031
0.00694693558997045,0.032
0.007460002815416847,0.033
0.00795935644119372,0.034
0.008445047324874654,0.035
0.008917134918341547,0.036
0.009375692755789674,0.037
0.009820810550107945,0.038
0.01025259197379151,0.039
0.010671148640849322,0.04
0.011076593758619408,0.041
0.011469041010680645,0.042
0.011848610586515792,0.043
0.012215438202523791,0.044
0.012569682124096912,0.045
0.012911526037849506,0.046
0.01324117733567646,0.047
0.013558861061027074,0.048
0.013864810748798983,0.049
0.01415925971353395,0.05
0.014442438125915804,0.051
0.014714577515507726,0.052
0.014975918198731376,0.053
0.01522671462421271,0.054
0.015467237045073256,0.055
0.01569776983565117,0.056
0.01591860726562209,0.057
0.01613004776407163,0.058
0.01633238765866949,0.059
0.016525915434743448,0.06
0.016710907973987506,0.061
0.01688762983060703,0.062
0.017056334810784283,0.063
0.01721726803779666,0.064
0.017370667404651485,0.065
0.017516764290501953,0.066
0.01765578372709144,0.067
0.017787944201764466,0.068
0.01791345723564771,0.069
0.01803252685642713,0.07
0.018145349137009707,0.071
0.018252112038048184,0.072
0.01835299576610055,0.073
0.018448173687210394,0.074
0.018537813571649794,0.075
0.0186220787124704,0.076
0.01870112837329248,0.077
0.0187751171157626,0.078
0.018844192769969157,0.079
0.01890849323282696,0.08
0.018968143440427288,0.081
0.01902325499352604,0.082
0.019073929622810664,0.083
0.019120264940458327,0.084
0.019162360280658337,0.085
0.019200321474803567,0.086
0.019234263997082116,0.087
0.01926431413255196,0.088
0.019290608088509534,0.089
0.01931328917445637,0.09
0.019332503268869553,0.091
0.01934839281705189,0.092
0.019361090674685985,0.093
0.01937071729381825,0.094
0.019377383758220294,0.095
0.019381198635550465,0.096
0.019382274883546144,0.097
0.019380734804778716,0.098
0.019376712284606024,0.099
0.019370351949817524,0.1
0.01936180535889413,0.101
0.01935122482084573,0.102
0.019338756286220452,0.103
0.019324534112052143,0.104
0.01930868019556479,0.105
0.01929130676658855,0.106
0.019272519744575927,0.107
0.019252420495420156,0.108
0.019231105537323098,0.109
0.01920866439892878,0.11
0.019185176176842775,0.111
0.01916070617806932,0.112
0.019135304538901034,0.113
0.019109007091336627,0.114
0.019081836373047802,0.115
0.019053801175027987,0.116
0.01902489603296731,0.117
0.018995103303572215,0.118
0.018964398121840323,0.119
0.018932753941388717,0.12
0.018900146262421834,0.121
0.0188665532359523,0.122
0.01883195263744329,0.123
0.018796316446134363,0.124
0.01875960751814983,0.125
0.0187217828387472,0.126
0.018682802460008138,0.127
0.018642639340207087,0.128
0.018601286275501974,0.129
0.018558758061974382,0.13
0.018515088158935454,0.131
0.018470320175147322,0.132
0.018424497221680325,0.133
0.018377656146229673,0.134
0.018329831391339004,0.135
0.018281064661923526,0.136
0.01823141350882458,0.137
0.018180955506132985,0.138
0.018129787340417702,0.139
0.018078018978165925,0.14
0.018025764410187085,0.141
0.017973133152421994,0.142
0.017920227830351815,0.143
0.017867148573469,0.144
0.017813999189736193,0.145
0.01776089039198106,0.146
0.017707938884438355,0.147
0.01765526291656488,0.148
0.01760297597375325,0.149
0.017551181916901085,0.15
0.017499974527898036,0.151
0.017449440738128194,0.152
0.017399664172806754,0.153
0.017350726779401623,0.154
0.01730270829457231,0.155
0.017255684027424903,0.156
0.01720972149553334,0.157
0.01716487687022603,0.158
0.017121193088715264,0.159
0.017078700890186295,0.16
0.017037421695078322,0.161
0.016997370258259422,0.162
0.01695855588459688,0.163
0.01692098174025459,0.164
0.01688464241645529,0.165
0.016849521303333333,0.166
0.01681559022334469,0.167
0.01678281189688399,0.168
0.016751143009030134,0.169
0.016720535498445717,0.17
0.016690935291990394,0.171
0.016662279327219098,0.172
0.016634493550729747,0.173
0.016607494586472586,0.174
0.016581194818685783,0.175
0.016555508462630656,0.176
0.016530356669565253,0.177
0.01650567063081462,0.178
0.016481391968879877,0.179
0.016457469983244735,0.18
0.016433855835376848,0.181
0.01641049572973409,0.182
0.016387328052903057,0.183
0.01636428760943328,0.184
0.016341314013936233,0.185
0.01631835956947396,0.186
0.016295394681085627,0.187
0.01627241046131561,0.188
0.0162494184386957,0.189
0.016226447423284503,0.19
0.01620353766681874,0.191
0.016180732911232454,0.192
0.016158073000916665,0.193
0.01613559191016305,0.194
0.01611332310860873,0.195
0.016091308231708706,0.196
0.016069603950828258,0.197
0.016048284848254206,0.198
0.01602744198561579,0.199
0.0160071776769627,0.2
0.01598759766768631,0.201
0.01596880305669431,0.202
0.015950885601666714,0.203
0.015933928177658756,0.204
0.015918007828425187,0.205
0.015903197915348756,0.206
0.015889568164564088,0.207
0.015877182781966558,0.208
0.015866097396068733,0.209
0.0158563567261789,0.21
0.015847994960243708,0.211
0.01584103862326355,0.212
0.015835509800496417,0.213
0.01583142798519297,0.214
0.015828809982852958,0.215
0.015827667860257983,0.216
0.015828005668533502,0.217
0.015829817171319968,0.218
0.01583308688556427,0.219
0.015837794044263234,0.22
0.015843916900558266,0.221
0.015851435337530716,0.222
0.015860331131482684,0.223
0.015870586024577322,0.224
0.015882178219733496,0.225
0.01589507818129911,0.226
0.01590924487229763,0.227
0.01592462351759789,0.228
0.01594114498481156,0.229
0.01595872618598071,0.23
0.01597727166218679,0.231
0.01599667669692365,0.232
0.016016831199686426,0.233
0.01603762302999792,0.234
0.016058939665691958,0.235
0.01608066743020498,0.236
0.016102688290414797,0.237
0.016124876447244526,0.238
0.0161470986795193,0.239
0.016169219953762574,0.24
0.01619111155654311,0.241
0.016212658412955723,0.242
0.01623376420692502,0.243
0.01625435397480211,0.244
0.016274374003777126,0.245
0.016293788885769784,0.246
0.016312575645931228,0.247
0.01633071548423878,0.248
0.01634818594929236,0.249
0.01636495850237501,0.25
0.016381003302557543,0.251
0.016396297150348658,0.252
0.016410829806322396,0.253
0.016424607019798726,0.254
0.016437650317358814,0.255
0.016449993984068968,0.256
0.01646167986433401,0.257
0.016472750659551276,0.258
0.01648324314672172,0.259
0.016493184245539576,0.26
0.016502591856106575,0.261
0.016511478488942296,0.262
0.016519854087703234,0.263
0.016527726145863227,0.264
0.01653509701621302,0.265
0.01654196019452337,0.266
0.016548299188153103,0.267
0.01655409081341512,0.268
0.016559310503957463,0.269
0.016563936159165026,0.27
0.01656794895288399,0.271
0.016571330797314928,0.272
0.01657405946221028,0.273
0.016576104881300704,0.274
0.01657743058300388,0.275
0.01657800013164052,0.276
0.016577784847227224,0.277
0.01657676962069366,0.278
0.01657495551286599,0.279
0.016572358736000152,0.28
0.016569006126080258,0.281
0.01656492774352112,0.282
0.016560148874406967,0.283
0.01655468604794502,0.284
0.01654854958539599,0.285
0.01654174937618766,0.286
0.016534299286354064,0.287
0.016526218599046197,0.288
0.016517530628144816,0.289
0.016508258987925302,0.29
0.016498422458065834,0.291
0.016488030489876453,0.292
0.016477082000692894,0.293
0.01646556790421705,0.294
0.016453474744945577,0.295
0.016440786635317048,0.296
0.016427484353130843,0.297
0.016413542153123042,0.298
0.016398925187744905,0.299
0.016383591020817587,0.3
0.01636749529729685,0.301
0.01635059833619234,0.302
0.016332869744690233,0.303
0.01631428984641898,0.304
0.016294847670703452,0.305
0.01627453577954054,0.306
0.016253343538381513,0.307
0.016231252775881836,0.308
0.01620823925087225,0.309
0.016184278621273213,0.31
0.01615935269269868,0.311
0.01613345308647158,0.312
0.016106581369942835,0.313
0.01607874557119992,0.314
0.016049953913018757,0.315
0.0160202084242848,0.316
0.015989502212047833,0.317
0.015957821158480587,0.318
0.015925146287209282,0.319
0.015891453216093157,0.32
0.015856709489853484,0.321
0.015820874116596773,0.322
0.01578390194029038,0.323
0.01574575043764313,0.324
0.015706384990736302,0.325
0.01566578074999348,0.326
0.015623920680319882,0.327
0.0155807901402055,0.328
0.015536370536121911,0.329
0.01549063731721736,0.33
0.015443565209888174,0.331
0.015395137288240565,0.332
0.015345352821162402,0.333
0.015294231630350586,0.334
0.015241814512340125,0.335
0.015188159916987177,0.336
0.015133337642656968,0.337
0.015077420690364277,0.338
0.015020477406032968,0.339
0.014962567445490224,0.34
0.014903743304735784,0.341
0.014844054863600572,0.342
0.014783553621099201,0.343
0.014722295555029585,0.344
0.014660342549645397,0.345
0.014597762196379416,0.346
0.014534625705856122,0.347
0.014471003818729317,0.348
0.014406961802791636,0.349
0.014342556710161965,0.35
0.014277839199144228,0.351
0.014212858040047804,0.352
0.014147663734179586,0.353
0.014082309483461725,0.354
0.014016849335810756,0.355
0.013951334245454706,0.356
0.013885808334931,0.357
0.013820308490248732,0.358
0.013754868091856937,0.359
0.013689522409838423,0.36
0.013624312978778776,0.361
0.013559289882262347,0.362
0.013494511728138031,0.363
0.013430043375456318,0.364
0.01336595173650757,0.365
0.013302300632710097,0.366
0.013239147010429778,0.367
0.013176540882727465,0.368
0.01311452872369904,0.369
0.013053157775961223,0.37
0.012992479291489561,0.371
0.012932550100949177,0.372
0.01287343239710683,0.373
0.012815191713165213,0.374
0.012757893245856989,0.375
0.012701597455052888,0.376
0.012646357224487518,0.377
0.012592218321161194,0.378
0.01253922192284426,0.379
0.012487406466163219,0.38
0.012436807258918237,0.381
0.012387454217390438,0.382
0.012339369992354273,0.383
0.012292570875606604,0.384
0.012247070138383474,0.385
0.012202881263661307,0.386
0.012160019166331573,0.387
0.012118498965340637,0.388
0.012078332847942994,0.389
0.012039526770423473,0.39
0.0120020795426362,0.391
0.011965985138462733,0.392
0.01193123630733113,0.393
0.011897827250347355,0.394
0.011865754484621457,0.395
0.011835015743670942,0.396
0.011805607007717177,0.397
0.011777518784682887,0.398
0.011750734339925744,0.399
0.01172523149177518,0.4
0.011700986058587149,0.401
0.011677974012761355,0.402
0.011656171079946246,0.403
0.011635550134919057,0.404
0.011616078460361673,0.405
0.01159771771503545,0.406
0.011580427197966831,0.407
0.01156416817959605,0.408
0.01154890712223732,0.409
0.011534617119734187,0.41
0.011521277583387989,0.411
0.01150887229112136,0.412
0.011497385938140621,0.413
0.011486799969519929,0.414
0.011477090011647909,0.415
0.011468227125280197,0.416
0.01146018219938514,0.417
0.011452930791957186,0.418
0.01144645646466482,0.419
0.011440751913469788,0.42
0.011435817808482334,0.421
0.011431659617551836,0.422
0.011428282965995669,0.423
0.011425688936936487,0.424
0.011423871937852412,0.425
0.011422821486323557,0.426
0.011422525945931725,0.427
0.011422975429798659,0.428
0.011424162644111528,0.429
0.01142608140664598,0.43
0.01142872334635908,0.431
0.011432074932687244,0.432
0.011436117591691341,0.433
0.01144083116831024,0.434
0.011446198107286386,0.435
0.011452205811170901,0.436
0.011458846237386898,0.437
0.011466112794144032,0.438
0.01147399586788494,0.439
0.011482480177693745,0.44
0.01149154631867749,0.441
0.011501175048265167,0.442
0.011511351254515747,0.443
0.01152206606269435,0.444
0.011533316835615154,0.445
0.011545105178089599,0.446
0.011557433222018734,0.447
0.01157029924678817,0.448
0.011583695127435427,0.449
0.011597607467565623,0.45
0.0116120211186911,0.451
0.011626922339489374,0.452
0.011642300107025343,0.453
0.011658145345459068,0.454
0.011674448329831248,0.455
0.011691195129315542,0.456
0.01170836502729805,0.457
0.011725930876872204,0.458
0.01174386224208246,0.459
0.011762129317310238,0.46
0.011780705827623295,0.461
0.01179956997500621,0.462
0.011818702935246637,0.463
0.011838085195977125,0.464
0.011857692965425127,0.465
0.011877498049639485,0.466
0.01189747205082152,0.467
0.011917592072091154,0.468
0.011937844873764748,0.469
0.011958228284130668,0.47
0.011978749751235118,0.471
0.011999422339042052,0.472
0.012020259211656422,0.473
0.012041269192332064,0.474
0.01206245639921371,0.475
0.012083824071366678,0.476
0.012105379549040703,0.477
0.0121271375688597,0.478
0.012149120782542329,0.479
0.012171357392182317,0.48
0.012193876433901667,0.481
0.012216702562591194,0.482
0.01223985338630884,0.483
0.012263340441047682,0.484
0.012287171157190316,0.485
0.012311348821168524,0.486
0.012335870503654969,0.487
0.01236072564856925,0.488
0.01238589761095122,0.489
0.01241136720136013,0.49
0.012437115697706507,0.491
0.01246312601594582,0.492
0.012489381989260568,0.493
0.012515866083557559,0.494
0.012542556153444757,0.495
0.012569422735959443,0.496
0.012596429037737543,0.497
0.012623534284057996,0.498
0.012650698759372888,0.499
0.012677888520034679,0.5
0.012705078737706066,0.501
0.012732255207600763,0.502
0.012759413834203204,0.503
0.01278655820931267,0.504
0.012813695631207317,0.505
0.012840832101776648,0.506
0.012867967664569846,0.507
0.012895094594714523,0.508
0.012922199667700996,0.509
0.012949268582284082,0.51
0.012976289870392836,0.511
0.013003257047039276,0.512
0.013030168584556615,0.513
0.013057025603867298,0.514
0.013083827677681913,0.515
0.013110568331667107,0.516
0.013137233007331004,0.517
0.01316380059451876,0.518
0.01319024624321681,0.519
0.013216542641408148,0.52
0.013242658770770452,0.521
0.013268557082279087,0.522
0.01329419215839147,0.523
0.013319513437586672,0.524
0.013344470810544342,0.525
0.013369020006742949,0.526
0.013393125846653729,0.527
0.013416762568030099,0.528
0.01343991094320799,0.529
0.013462552873161136,0.53
0.013484666322336483,0.531
0.013506224685396362,0.532
0.013527201517818496,0.533
0.013547577166601777,0.534
0.013567343672248983,0.535
0.013586506654676091,0.536
0.01360508420382149,0.537
0.01362310325674339,0.538
0.013640594225399335,0.539
0.013657585025016948,0.54
0.013674096578195677,0.541
0.013690142007839143,0.542
0.013705729477302739,0.543
0.013720866272754114,0.544
0.013735561938036937,0.545
0.01374982956533757,0.546
0.013763684936856582,0.547
0.01377714351259242,0.548
0.01379021612326785,0.549
0.013802905699018646,0.55
0.013815207213127477,0.551
0.013827110153962291,0.552
0.013838600762932852,0.553
0.013849662145151627,0.554
0.013860272141595957,0.555
0.013870400549984228,0.556
0.013880008444585555,0.557
0.013889050780835169,0.558
0.013897480401423749,0.559
0.013905250949525907,0.56
0.013912317538920404,0.561
0.013918634838174078,0.562
0.0139241533154642,0.563
0.013928816691719755,0.564
0.013932563858691805,0.565
0.013935334735167016,0.566
0.013937076479754961,0.567
0.01393774715107711,0.568
0.013937315670342785,0.569
0.013935758026389489,0.57
0.01393305099036717,0.571
0.013929166832714836,0.572
0.013924072974407254,0.573
0.01391773672539702,0.574
0.013910131518938969,0.575
0.013901241590043207,0.576
0.0138910641907943,0.577
0.01387960926654305,0.578
0.013866896612476498,0.579
0.013852950646277618,0.58
0.013837794050578393,0.581
0.013821443868036545,0.582
0.013803913214385451,0.583
0.013785217245455467,0.584
0.0137653792840325,0.585
0.013744434459149973,0.586
0.013722430160269795,0.587
0.01369942347187913,0.588
0.01367547618968036,0.589
0.013650648678921126,0.59
0.013624995143421796,0.591
0.013598562994343472,0.592
0.013571396143813887,0.593
0.013543539270115664,0.594
0.013515040521060903,0.595
0.013485951782066857,0.596
0.01345632643629126,0.597
0.013426215249392985,0.598
0.013395662544554958,0.599
0.013364705560688986,0.6
0.013333377459765636,0.601
0.013301711310176951,0.602
0.013269742396269687,0.603
0.01323750802026035,0.604
0.013205044989998034,0.605
0.01317238573331579,0.606
0.013139555264866994,0.607
0.013106571384530172,0.608
0.013073448108487876,0.609
0.013040200072946085,0.61
0.013006845897769499,0.611
0.01297340964676586,0.612
0.012939920053853294,0.613
0.012906407484570758,0.614
0.012872899448926507,0.615
0.012839417064945293,0.616
0.012805975015916217,0.617
0.012772584698300277,0.618
0.012739257768773627,0.619
0.012706007915049904,0.62
0.012672850328701347,0.621
0.012639799146509572,0.622
0.012606863774498362,0.623
0.012574046137475009,0.624
0.012541340872796647,0.625
0.012508738209463962,0.626
0.012476227351834228,0.627
0.012443798561975661,0.628
0.012411443203762142,0.629
0.012379151533745684,0.63
0.012346909138553073,0.631
0.012314694948356025,0.632
0.012282483309416004,0.633
0.012250248904592009,0.634
0.012217971368820085,0.635
0.012185637698108872,0.636
0.01215324196148386,0.637
0.012120782465268237,0.638
0.012088257128966702,0.639
0.01205565913570268,0.64
0.012022975925993714,0.641
0.011990192607222361,0.642
0.011957297423573845,0.643
0.011924286369140868,0.644
0.011891165514686585,0.645
0.011857950467300073,0.646
0.011824662808912185,0.647
0.011791324578182816,0.648
0.01175795399741375,0.649
0.011724565690809156,0.65
0.011691174858506586,0.651
0.0116578018691272,0.652
0.011624474686101845,0.653
0.011591228587471745,0.654
0.011558103558316237,0.655
0.011525140012842692,0.656
0.011492374167153919,0.657
0.011459835514895525,0.658
0.011427548045466111,0.659
0.011395533906644752,0.66
0.011363817026770683,0.661
0.011332425321456214,0.662
0.011301390989227923,0.663
0.01127074869712973,0.664
0.011240531999927611,0.665
0.011210769682271185,0.666
0.011181484724834129,0.667
0.011152696735063194,0.668
0.011124425586539312,0.669
0.011096693749900802,0.67
0.011069526510170933,0.671
0.011042950239985786,0.672
0.011016989197715083,0.673
0.010991662070092341,0.674
0.010966980491941785,0.675
0.010942950747553064,0.676
0.010919577177077693,0.677
0.010896865129108757,0.678
0.010874822477401937,0.679
0.010853459384324454,0.68
0.010832786188810358,0.681
0.010812810059209227,0.682
0.01079353249871359,0.683
0.010774949785822132,0.684
0.010757055864546205,0.685
0.010739845287007829,0.686
0.010723314533054189,0.687
0.01070746138314771,0.688
0.010692282610565058,0.689
0.010677770821067566,0.69
0.010663912282596022,0.691
0.010650687464032079,0.692
0.01063807390384187,0.693
0.01062604946292053,0.694
0.010614594430385559,0.695
0.010603691820093724,0.696
0.010593325639225491,0.697
0.010583477645939435,0.698
0.010574124567649943,0.699
0.010565238118754735,0.7
0.010556787822023201,0.701
0.010548744263796705,0.702
0.010541080729716483,0.703
0.010533772634513293,0.704
0.010526794954855328,0.705
0.010520118726990905,0.706
0.010513708962575474,0.707
0.010507525764549027,0.708
0.010501527630524761,0.709
0.010495674549006802,0.71
0.010489929404479128,0.711
0.010484257144269229,0.712
0.010478621909430436,0.713
0.010472984009070747,0.714
0.010467299818591007,0.715
0.010461525569306053,0.716
0.010455622562626414,0.717
0.010449560921311099,0.718
0.010443320681120052,0.719
0.010436890133301568,0.72
0.010430261823934276,0.721
0.0104234274845971,0.722
0.010416374584057262,0.723
0.010409086884220622,0.724
0.010401548393110322,0.725
0.010393748093060812,0.726
0.010385683582593978,0.727
0.010377362929542016,0.728
0.010368804397173038,0.729
0.01036003390283236,0.73
0.010351080400874632,0.731
0.010341970613852494,0.732
0.010332726360228438,0.733
0.01032336635937914,0.734
0.010313910206239587,0.735
0.010304381165121081,0.736
0.010294806575607383,0.737
0.010285216041289598,0.738
0.010275638012355726,0.739
0.01026609620249918,0.74
0.010256608102917796,0.741
0.010247186578449894,0.742
0.010237842922873016,0.743
0.010228589259098843,0.744
0.010219439381511203,0.745
0.010210407784242327,0.746
0.01020150706973903,0.747
0.010192745250011962,0.748
0.010184125448162315,0.749
0.010175648801384756,0.75
0.010167318519428509,0.751
0.010159142699806315,0.752
0.010151134938853036,0.753
0.010143312731577158,0.754
0.010135694077503123,0.755
0.010128293485539739,0.756
0.01012111967975825,0.757
0.010114176581145742,0.758
0.01010746645661466,0.759
0.010100993024648723,0.76
0.010094763316558036,0.761
0.010088787897123315,0.762
0.01008307928222076,0.763
0.010077648828245677,0.764
0.010072503560238583,0.765
0.010067645351293092,0.766
0.010063073234087519,0.767
0.010058786802800687,0.768
0.010054788335406354,0.769
0.010051082779126112,0.77
0.010047675707425435,0.771
0.010044570043490405,0.772
0.010041763416572197,0.773
0.010039248092830421,0.774
0.010037013441081514,0.775
0.010035049090149009,0.776
0.010033347212831457,0.777
0.010031903323806966,0.778
0.010030715353003082,0.779
0.010029780930461479,0.78
0.010029093854008313,0.781
0.010028642443717022,0.782
0.01002841161194155,0.783
0.010028386980993257,0.784
0.010028558233860067,0.785
0.01002892043706851,0.786
0.010029473189022182,0.787
0.010030217841152867,0.788
0.010031153682233597,0.789
0.010032275083620576,0.79
0.010033571610980455,0.791
0.010035030909965043,0.792
0.010036642292345745,0.793
0.010038399322695015,0.794
0.010040300739824348,0.795
0.0100423494714641,0.796
0.010044549718091902,0.797
0.010046903047575313,0.798
0.010049406101020081,0.799
0.010052051919324007,0.8
0.010054833607213405,0.801
0.010057747532020269,0.802
0.010060794561947558,0.803
0.010063979145861457,0.804
0.010067306537663533,0.805
0.010070779129001877,0.806
0.010074393955018331,0.807
0.010078143209218004,0.808
0.010082017271571835,0.809
0.010086008146451159,0.81
0.010090111743605247,0.811
0.01009432834193053,0.812
0.010098660966429467,0.813
0.010103112035328453,0.814
0.010107680133334827,0.815
0.01011235960847733,0.816
0.010117143552104645,0.817
0.010122027757107709,0.818
0.010127013162270144,0.819
0.010132105943369163,0.82
0.010137315392026709,0.821
0.01014265021895565,0.822
0.01014811488779597,0.823
0.010153708407869081,0.824
0.010159426527009355,0.825
0.010165265534027962,0.826
0.010171225414429183,0.827
0.01017731132799304,0.828
0.010183533035904517,0.829
0.010189902167690548,0.83
0.010196428242506255,0.831
0.010203116097365362,0.832
0.010209966936569925,0.833
0.010216981914740436,0.834
0.010224165390009967,0.835
0.010231526186020221,0.836
0.010239076618203363,0.837
0.010246829624821542,0.838
0.010254795022904278,0.839
0.010262976966087956,0.84
0.010271374332300907,0.841
0.010279983418419165,0.842
0.010288800877527215,0.843
0.010297825524103923,0.844
0.010307058555552836,0.845
0.010316502055697008,0.846
0.010326156081319968,0.847
0.010336015843925846,0.848
0.01034607132657428,0.849
0.01035630997499536,0.85
0.010366720465745462,0.851
0.010377295308998315,0.852
0.01038803140181492,0.853
0.010398928497429478,0.854
0.010409985912622722,0.855
0.010421198680146211,0.856
0.010432555688171405,0.857
0.010444041415618794,0.858
0.010455639782872133,0.859
0.010467337669906675,0.86
0.01047912693776607,0.861
0.010491004567350286,0.862
0.010502970739733613,0.863
0.010515025211234444,0.864
0.010527163673661312,0.865
0.010539376793346865,0.866
0.010551652767623066,0.867
0.01056398114665798,0.868
0.010576355360521239,0.869
0.010588773040740919,0.87
0.010601234202475822,0.871
0.010613737789385229,0.872
0.010626278064526533,0.873
0.01063884332322668,0.874
0.010651418035561829,0.875
0.010663986659648437,0.876
0.010676536776910179,0.877
0.010689060474938304,0.878
0.010701553622464489,0.879
0.010714012949508602,0.88
0.010726432005769056,0.881
0.01073879897822708,0.882
0.010751098533969822,0.883
0.010763316077660538,0.884
0.01077544133797259,0.885
0.010787469796578143,0.886
0.010799401803024309,0.887
0.010811239679158336,0.888
0.010822983692215756,0.889
0.010834628875287305,0.89
0.010846164898363417,0.891
0.010857579072518464,0.892
0.01086886035643937,0.893
0.010880002369924617,0.894
0.010891004528210436,0.895
0.01090187094386735,0.896
0.010912607052060827,0.897
0.010923215174251582,0.898
0.010933692222513995,0.899
0.0109440317111474,0.9
0.0109542281672973,0.901
0.01096428066205001,0.902
0.010974194034332386,0.903
0.010983977761501245,0.904
0.01099364286446041,0.905
0.011003197816103228,0.906
0.011012645493137642,0.907
0.011021983260287652,0.908
0.011031206048044981,0.909
0.011040310238558509,0.91
0.011049296442473622,0.911
0.011058170328862886,0.912
0.011066941213343786,0.913
0.011075618552561976,0.914
0.011084207813381113,0.915
0.01109270875506988,0.916
0.011101117687420009,0.917
0.011109431536731391,0.918
0.011117650725564027,0.919
0.011125779736674944,0.92
0.011133825425941449,0.921
0.01114179354975831,0.922
0.011149684898208459,0.923
0.011157493632783174,0.924
0.011165209261921832,0.925
0.011172820584526264,0.926
0.011180319096943439,0.927
0.011187700671130885,0.928
0.011194965073796024,0.929
0.011202113154083818,0.93
0.011209142729471381,0.931
0.01121604626534844,0.932
0.011222812780017882,0.933
0.011229432475935539,0.934
0.011235900782638216,0.935
0.011242220004203878,0.936
0.011248398251228954,0.937
0.011254445964566628,0.938
0.011260371276330339,0.939
0.011266176926977888,0.94
0.01127186103589931,0.941
0.011277420912268356,0.942
0.01128285718507236,0.943
0.011288176417061143,0.944
0.011293391567348291,0.945
0.01129852013401276,0.946
0.011303580218385116,0.947
0.01130858605671712,0.948
0.011313546150473136,0.949
0.011318465597126352,0.95
0.011323350377702731,0.951
0.011328210510051428,0.952
0.011333060889455546,0.953
0.011337919845413953,0.954
0.011342805799053803,0.955
0.011347733166866462,0.956
0.011352709904300363,0.957
0.011357738523080797,0.958
0.011362819593238064,0.959
0.011367955300935803,0.96
0.011373151554512344,0.961
0.011378418087989063,0.962
0.011383766384839082,0.963
0.0113892059837337,0.964
0.011394741289063046,0.965
0.011400371508520704,0.966
0.011406093858468896,0.967
0.011411907477132043,0.968
0.011417815732609547,0.969
0.011423826218909016,0.97
0.01142994860253921,0.971
0.011436190904168423,0.972
0.0114425557209152,0.973
0.011449038833123835,0.974
0.011455631273162504,0.975
0.011462323107232957,0.976
0.011469106617285445,0.977
0.011475977831016948,0.978
0.011482936023497287,0.979
0.011489981039422408,0.98
0.011497109347205122,0.981
0.011504311612379947,0.982
0.011511574109667296,0.983
0.011518882759358579,0.984
0.011526226714619473,0.985
0.011533599714683578,0.986
0.011540998911328924,0.987
0.011548421526476284,0.988
0.011555860637694077,0.989
0.011563302789198818,0.99
0.0115707293749162,0.991
0.011578120589156811,0.992
0.011585459358365328,0.993
0.011592733771911414,0.994
0.011599937447749259,0.995
0.011607067566519087,0.996
0.0116141209312518,0.997
0.01162109000505599,0.998
0.011627962026749839,0.999
0.011634722144820345,1.0
0.01164135800956659,1.001
0.011647862933916434,1.002
0.011654236575567271,1.003
0.011660483182829745,1.004
0.011666607821945792,1.005
0.01167261184274054,1.006
0.01167849021095044,1.007
0.011684232682417809,1.008
0.011689827679294421,1.009
0.01169526620160925,1.01
0.011700544141216025,1.011
0.011705662376833351,1.012
0.011710624422009456,1.013
0.011715432301512408,1.014
0.011720083157892603,1.015
0.011724569455311203,1.016
0.011728882649832361,1.017
0.011733017339162748,1.018
0.01173697339568618,1.019
0.01174075537168131,1.02
0.011744369415568601,1.021
0.011747818873232507,1.022
0.011751101233597029,1.023
0.0117542087809918,1.024
0.011757132306255079,1.025
0.011759865217750213,1.026
0.011762406170328317,1.027
0.011764759545901336,1.028
0.01176693359887868,1.029
0.011768936547462847,1.03
0.011770772318596408,1.031
0.011772439132887363,1.032
0.01177393234400186,1.033
0.011775249135088107,1.034
0.011776391960427552,1.035
0.011777369525688284,1.036
0.011778195308182153,1.037
0.011778884023571697,1.038
0.011779447166270333,1.039
0.011779889976964872,1.04
0.011780211929113773,1.041
0.011780410161997514,1.042
0.011780483430168758,1.043
0.011780434764771584,1.044
0.011780272115443052,1.045
0.011780006691210631,1.046
0.011779649240606037,1.047
0.011779205985403302,1.048
0.011778677300844156,1.049
0.011778060387871454,1.05
0.011777353519800532,1.051
0.011776558879903526,1.052
0.011775682912056763,1.053
0.011774734283369233,1.054
0.011773720085810619,1.055
0.011772641983871825,1.056
0.011771494947410553,1.057
0.011770269608781908,1.058
0.011768956314026082,1.059
0.011767548453304036,1.06
0.011766044023409175,1.061
0.01176444508020437,1.062
0.0117627549396471,1.063
0.011760974023528438,1.064
0.01175909722025348,1.065
0.011757115350532468,1.066
0.011755019727397733,1.067
0.01175280660855488,1.068
0.01175047946442906,1.069
0.011748048538199414,1.07
0.01174552789304681,1.071
0.01174293080906361,1.072
0.011740265670060729,1.073
0.011737535097345025,1.074
0.011734738892094676,1.075
0.011731878413019637,1.076
0.01172895990307756,1.077
0.011725995750425563,1.078
0.011723003406437338,1.079
0.011720001991806764,1.08
0.01171700770540958,1.081
0.011714030935225857,1.082
0.011711077353479458,1.083
0.01170815168520474,1.084
0.011705261056102742,1.085
0.011702416205194825,1.086
0.011699630339746492,1.087
0.01169691599782585,1.088
0.011694281096143632,1.089
0.01169172659099672,1.09
0.011689247558827023,1.091
0.01168683667663002,1.092
0.011684487729826824,1.093
0.01168219771271714,1.094
0.011679966961167135,1.095
0.011677797070901963,1.096
0.011675687199536735,1.097
0.011673631094865881,1.098
0.011671617498888998,1.099
0.011669633737230727,1.1
0.011667669718545156,1.101
0.011665720090150478,1.102
0.011663783925933112,1.103
0.011661862171064583,1.104
0.011659953643660985,1.105
0.011658051464739829,1.106
0.01165614232000906,1.107
0.01165420908801987,1.108
0.01165223481374692,1.109
0.011650205843010178,1.11
0.01164811314446122,1.111
0.01164595144756826,1.112
0.011643716090281085,1.113
0.011641398719140019,1.114
0.011638985061813094,1.115
0.011636457095325686,1.116
0.011633797821338023,1.117
0.011630995270479215,1.118
0.011628044077372458,1.119
0.01162494438638355,1.12
0.01162169838960322,1.121
0.011618305701419586,1.122
0.011614760231896606,1.123
0.011611050886232198,1.124
0.011607165402837048,1.125
0.011603094683267194,1.126
0.011598835746349978,1.127
0.011594392574154674,1.128
0.01158977453477054,1.129
0.01158499243000927,1.13
0.011580053652565666,1.131
0.011574959966052636,1.132
0.011569709969534098,1.133
0.011564303860674781,1.134
0.011558746947729796,1.135
0.011553050532544224,1.136
0.011547230230693407,1.137
0.011541302234072988,1.138
0.011535278843921902,1.139
0.011529165856584892,1.14
0.011522963654801214,1.141
0.011516670851112024,1.142
0.011510287963286462,1.143
0.01150381966120529,1.144
0.011497275058185933,1.145
0.011490665808974813,1.146
0.011484002406345714,1.147
0.01147729065177799,1.148
0.01147053119161854,1.149
0.011463722732572675,1.15
0.011456866359445284,1.151
0.011449968276429431,1.152
0.011443040064897518,1.153
0.01143609658501192,1.154
0.01142915206804096,1.155
0.01142221590942558,1.156
0.01141529088965787,1.157
0.0114083752589124,1.158
0.011401466867063302,1.159
0.011394566702694685,1.16
0.011387680625619942,1.161
0.011380818904099494,1.162
0.011373993454993406,1.163
0.01136721369196111,1.164
0.011360483653538379,1.165
0.011353802841133754,1.166
0.01134716992586669,1.167
0.011340586380209836,1.168
0.011334058107846703,1.169
0.011327594681972622,1.17
0.011321206495627052,1.171
0.011314900811246148,1.172
0.011308678832478615,1.173
0.011302535860156289,1.174
0.011296464277669862,1.175
0.011290457205575604,1.176
0.011284511057559827,1.177
0.011278626247815433,1.178
0.011272805744092378,1.179
0.01126705168189001,1.18
0.011261361721046083,1.181
0.01125572808696366,1.182
0.011250140391063824,1.183
0.011244589889272629,1.184
0.011239072342799276,1.185
0.011233588411693715,1.186
0.011228141625725557,1.187
0.011222734557409308,1.188
0.011217364976534357,1.189
0.011212024683635942,1.19
0.011206702021579203,1.191
0.01120138606020996,1.192
0.011196069998015439,1.193
0.01119075271557414,1.194
0.011185438141994342,1.195
0.011180132331532307,1.196
0.011174839180159638,1.197
0.011169557616629662,1.198
0.011164282814745264,1.199
0.01115901045138971,1.2
0.011153740861098523,1.201
0.01114848104198121,1.202
0.011143244041127279,1.203
0.011138045983378952,1.204
0.01113290168838132,1.205
0.011127821011452913,1.206
0.011122808366165695,1.207
0.011117865663118202,1.208
0.011112996400812572,1.209
0.011108208732039718,1.21
0.011103516609501327,1.211
0.011098938718911478,1.212
0.0110944951846324,1.213
0.011090203172356693,1.214
0.011086074394430698,1.215
0.011082116726024327,1.216
0.011078338336737117,1.217
0.011074751167664846,1.218
0.011071372189395244,1.219
0.011068222315583104,1.22
0.011065323368713284,1.221
0.011062694091996577,1.222
0.011060347194752596,1.223
0.011058289322376128,1.224
0.011056523680235903,1.225
0.011055053281837736,1.226
0.011053883200393485,1.227
0.011053021189824735,1.228
0.011052476443882747,1.229
0.011052256617741443,1.23
0.011052364417964223,1.231
0.011052796372480345,1.232
0.011053545019520005,1.233
0.011054602576806665,1.234
0.011055963507743722,1.235
0.011057624996521754,1.236
0.011059585377431257,1.237
0.011061840967130655,1.238
0.011064382628197948,1.239
0.01106719443135956,1.24
0.011070255651128607,1.241
0.011073544560447112,1.242
0.0110770417871658,1.243
0.011080732156386934,1.244
0.011084604595029201,1.245
0.011088649883922063,1.246
0.011092856882841892,1.247
0.01109720956024603,1.248
0.011101687428801259,1.249
0.011106269162270638,1.25
0.011110936628434527,1.251
0.01111567709816429,1.252
0.011120482995825109,1.253
0.011125349398395323,1.254
0.011130270033976635,1.255
0.011135233572170312,1.256
0.011140222668288926,1.257
0.0111452164834243,1.258
0.01115019470663707,1.259
0.011155140786068761,1.26
0.011160043307156612,1.261
0.01116489510848227,1.262
0.01116969002854207,1.263
0.011174418515781936,1.264
0.01117906546101048,1.265
0.011183612511461976,1.266
0.011188042822889419,1.267
0.01119234480366514,1.268
0.01119651335401712,1.269
0.011200548510983947,1.27
0.011204451872059873,1.271
0.01120822207112245,1.272
0.011211852017843317,1.273
0.011215330009926404,1.274
0.011218643651889395,1.275
0.011221783862975737,1.276
0.0112247472837531,1.277
0.011227536482587296,1.278
0.011230157781178925,1.279
0.01123261719457613,1.28
0.011234916540970674,1.281
0.011237052657516775,1.282
0.0112390203375222,1.283
0.011240816360857032,1.284
0.011242441920108062,1.285
0.011243902599577934,1.286
0.01124520612084302,1.287
0.011246358555018657,1.288
0.011247360657448338,1.289
0.01124820674018307,1.29
0.011248886949517105,1.291
0.011249391115087716,1.292
0.011249711928623429,1.293
0.011249846448129486,1.294
0.0112497955689053,1.295
0.01124956133285654,1.296
0.011249142944733862,1.297
0.011248534169931846,1.298
0.011247724498810764,1.299
0.011246703143748907,1.3
0.011245462928592595,1.301
0.01124400218706067,1.302
0.011242324236005055,1.303
0.011240434644686442,1.304
0.011238337141662424,1.305
0.011236030148239432,1.306
0.011233506319660346,1.307
0.011230755407081367,1.308
0.011227768293634708,1.309
0.01122454004729118,1.31
0.011221071031350149,1.311
0.011217365707541328,1.312
0.011213429166725943,1.313
0.011209262859213394,1.314
0.011204862850099672,1.315
0.011200222448378644,1.316
0.011195336924288883,1.317
0.011190206986631637,1.318
0.011184839674458165,1.319
0.011179246642157479,1.32
0.011173440261559312,1.321
0.011167429021427798,1.322
0.011161215267767729,1.323
0.011154797175755423,1.324
0.011148173159044239,1.325
0.011141345809284279,1.326
0.01113432403345244,1.327
0.01112712300524875,1.328
0.011119761788534698,1.329
0.011112259176005083,1.33
0.011104629874809403,1.331
0.011096883963334778,1.332
0.01108903010422668,1.333
0.01108107981142751,1.334
0.011073050079686904,1.335
0.011064963517441264,1.336
0.011056846175192632,1.337
0.011048723637571823,1.338
0.011040616767077377,1.339
0.01103253965605999,1.34
0.011024501225259619,1.341
0.011016508816834115,1.342
0.011008571328344648,1.343
0.011000700814545945,1.344
0.010992912242321413,1.345
0.010985221270937895,1.346
0.010977640721420257,1.347
0.010970177937201316,1.348
0.0109628352914652,1.349
0.010955613402529627,1.35
0.010948514495168519,1.351
0.010941544000160553,1.352
0.010934709923338283,1.353
0.01092802024776538,1.354
0.010921479329835197,1.355
0.010915085324883615,1.356
0.0109088304918929,1.357
0.010902703992329748,1.358
0.01089669518175533,1.359
0.010890795887960871,1.36
0.010885001074863569,1.361
0.010879307636601701,1.362
0.01087371140089746,1.363
0.010868203625892855,1.364
0.01086276971861022,1.365
0.01085739157807674,1.366
0.01085205160852611,1.367
0.010846735669934484,1.368
0.010841433858416212,1.369
0.010836139085095443,1.37
0.010830843789637888,1.371
0.010825536018855306,1.372
0.01082019747819187,1.373
0.010814805271453516,1.374
0.010809335890762935,1.375
0.01080376892768695,1.376
0.010798089226050155,1.377
0.01079228701508002,1.378
0.010786355803139577,1.379
0.010780288526827515,1.38
0.010774074078142163,1.381
0.010767697072362971,1.382
0.010761141263769298,1.383
0.010754393957491105,1.384
0.010747448817991312,1.385
0.010740306203290825,1.386
0.01073297113162574,1.387
0.010725449341833742,1.388
0.010717742827737131,1.389
0.01070984767430659,1.39
0.010701755964275151,1.391
0.010693460049097193,1.392
0.010684956368969302,1.393
0.010676247441568042,1.394
0.010667341549412866,1.395
0.01065824996540833,1.396
0.010648982643296856,1.397
0.010639545226511934,1.398
0.01062993998522556,1.399
0.010620169776062794,1.4
0.010610241873136774,1.401
0.010600169632573167,1.402
0.010589971610269014,1.403
0.01057966849196184,1.404
0.010569278903895371,1.405
0.010558816333463816,1.406
0.010548289279153859,1.407
0.010537704316569361,1.408
0.01052706983095639,1.409
0.010516398635419167,1.41
0.010505708776027045,1.411
0.010495022270691929,1.412
0.010484361804121522,1.413
0.010473746587480945,1.414
0.010463190410623218,1.415
0.01045270377551699,1.416
0.010442298113574338,1.417
0.010431988971868351,1.418
0.01042179689987566,1.419
0.0104117460246159,1.42
0.01040186069280018,1.421
0.010392161451212963,1.422
0.010382662995086882,1.423
0.010373375809776486,1.424
0.010364310067840263,1.425
0.010355479241254717,1.426
0.010346902153712693,1.427
0.010338603044894996,1.428
0.010330609470349267,1.429
0.010322948528696632,1.43
0.010315643403497929,1.431
0.0103087128949197,1.432
0.010302174329822633,1.433
0.010296047366281676,1.434
0.010290356293241095,1.435
0.01028513012378405,1.436
0.01028040072897215,1.437
0.010276199562198487,1.438
0.010272553987160532,1.439
0.010269484954487927,1.44
0.010267007287916723,1.441
0.010265131805554622,1.442
0.010263867428952519,1.443
0.010263222112189916,1.444
0.010263202201058417,1.445
0.010263810412922274,1.446
0.010265043788104278,1.447
0.010266893654627716,1.448
0.010269348041568102,1.449
0.01027239467822522,1.45
0.010276022563878858,1.451
0.010280221328987666,1.452
0.01028497868349824,1.453
0.010290277613279287,1.454
0.010296095904122487,1.455
0.010302408916948487,1.456
0.010309193857633217,1.457
0.010316433469322353,1.458
0.010324118299043738,1.459
0.01033224727126296,1.46
0.010340826395420909,1.461
0.01034986558550204,1.462
0.01035937425700868,1.463
0.010369357926647161,1.464
0.010379818401191922,1.465
0.0103907574915937,1.466
0.010402181578262474,1.467
0.010414104724441898,1.468
0.01042654958567737,1.469
0.010439546177580158,1.47
0.010453128899938168,1.471
0.010467332386766596,1.472
0.010482187263991931,1.473
0.010497717830240472,1.474
0.010513942945069105,1.475
0.01053087886556372,1.476
0.010548541780424558,1.477
0.010566948833064489,1.478
0.010586117326200186,1.479
0.010606062240564736,1.48
0.010626793138971713,1.481
0.01064831266812353,1.482
0.01067061785610508,1.483
0.010693702712516611,1.484
0.010717560027983514,1.485
0.01074218161427683,1.486
0.010767557043626665,1.487
0.010793671325996117,1.488
0.010820502784963609,1.489
0.01084802287924982,1.49
0.010876198456998951,1.491
0.010904995080814422,1.492
0.010934379820942555,1.493
0.010964322666557882,1.494
0.010994796118166355,1.495
0.011025772769517878,1.496
0.011057221694488487,1.497
0.011089106197261127,1.498
0.011121385091006086,1.499
0.01115401644968841,1.5
0.011186961031423533,1.501
0.011220183691195176,1.502
0.011253652429505564,1.503
0.011287335303603417,1.504
0.011321196399423103,1.505
0.011355193604888559,1.506
0.011389280249902873,1.507
0.011423409434200163,1.508
0.011457538384344027,1.509
0.01149163128227064,1.51
0.011525659959553874,1.511
0.011559602179644298,1.512
0.011593437581565115,1.513
0.01162714265672095,1.514
0.01166068815631811,1.515
0.011694041156567659,1.516
0.011727169701454224,1.517
0.011760046577919734,1.518
0.011792650791805113,1.519
0.011824966760357254,1.52
0.011856981676665828,1.521
0.011888681727806487,1.522
0.01192004806537074,1.523
0.011951053793259971,1.524
0.011981662942859848,1.525
0.01201183088719655,1.526
0.01204150453799233,1.527
0.012070621751707188,1.528
0.01209911145713057,1.529
0.012126895976876656,1.53
0.012153894801993753,1.531
0.012180027936222144,1.532
0.012205217482956648,1.533
0.012229386783488455,1.534
0.012252457304024515,1.535
0.012274345463262176,1.536
0.01229496279283341,1.537
0.012314220430595685,1.538
0.012332035532381307,1.539
0.012348337044032093,1.54
0.012363069982729402,1.541
0.012376198125512963,1.542
0.012387704947762338,1.543
0.012397592484851443,1.544
0.01240587772070909,1.545
0.012412586305699334,1.546
0.012417745041270549,1.547
0.012421377578353824,1.548
0.012423506947203544,1.549
0.012424162857645296,1.55
0.01242338894717547,1.551
0.01242124729318345,1.552
0.012417819628092587,1.553
0.012413205442937114,1.554
0.012407517538675285,1.555
0.012400875789964646,1.556
0.012393400299221069,1.557
0.012385206169191053,1.558
0.012376402219891489,1.559
0.012367093354790627,1.56
0.012357383675623345,1.561
0.012347377954319155,1.562
0.012337180868828384,1.563
0.012326894285559714,1.564
0.0123166137338167,1.565
0.012306426416343733,1.566
0.012296412137174164,1.567
0.01228664560541067,1.568
0.012277197742358574,1.569
0.01226813508938725,1.57
0.012259517801888074,1.571
0.012251397925706004,1.572
0.012243819882963549,1.573
0.01223682329091524,1.574
0.012230446489546104,1.575
0.012224729281550346,1.576
0.012219714174247076,1.577
0.012215445747963464,1.578
0.012211967978007384,1.579
0.01220932039256887,1.58
0.012207535825244867,1.581
0.01220664200471295,1.582
0.01220666569545181,1.583
0.012207636357828174,1.584
0.012209587618357103,1.585
0.012212556262728408,1.586
0.012216579090549616,1.587
0.012221688752693513,1.588
0.012227910866136176,1.589
0.0122352643777308,1.59
0.01224376459770308,1.591
0.012253426650005745,1.592
0.012264267765475532,1.593
0.012276307872735908,1.594
0.012289568326667246,1.595
0.012304068853124718,1.596
0.01231982370260866,1.597
0.012336839466466775,1.598
0.012355116278662004,1.599
0.012374651058795958,1.6
0.0123954402891015,1.601
0.01241748116688972,1.602
0.012440771073576806,1.603
0.012465305634900852,1.604
0.012491075783892833,1.605
0.012518064687797918,1.606
0.012546246173545895,1.607
0.012575585623427862,1.608
0.012606042222604395,1.609
0.012637570723057774,1.61
0.012670121752974915,1.611
0.01270364042325808,1.612
0.012738064033018493,1.613
0.012773321130476245,1.614
0.012809333341312089,1.615
0.012846018459657499,1.616
0.012883292388261367,1.617
0.012921068862828435,1.618
0.012959257126268454,1.619
0.012997759028577442,1.62
0.013036468127647423,1.621
0.013075272002018324,1.622
0.013114056289082044,1.623
0.013152708516876376,1.624
0.013191121003571742,1.625
0.013229192582229425,1.626
0.013266828787524419,1.627
0.013303940088860159,1.628
0.013340437893760672,1.629
0.013376229476770904,1.63
0.01341121559327862,1.631
0.013445293600830216,1.632
0.013478364014383478,1.633
0.013510336498889886,1.634
0.013541133276847283,1.635
0.013570689483650736,1.636
0.013598950553167715,1.637
0.0136258670880784,1.638
0.013651388541677762,1.639
0.013675458864581208,1.64
0.013698017242986969,1.641
0.013719003350761984,1.642
0.013738363490786982,1.643
0.013756054616271177,1.644
0.013772044896169086,1.645
0.013786310397386443,1.646
0.013798828912410415,1.647
0.013809574771048624,1.648
0.013818519069299925,1.649
0.013825635230911775,1.65
0.013830905483985004,1.651
0.013834324594549408,1.652
0.013835899891166417,1.653
0.013835647927183574,1.654
0.013833588518367943,1.655
0.013829738114876618,1.656
0.013824106604508817,1.657
0.013816700280336902,1.658
0.013807528666567606,1.659
0.013796611035917485,1.66
0.01378398036069146,1.661
0.013769683797602057,1.662
0.013753779359022701,1.663
0.013736329395679304,1.664
0.013717393687851742,1.665
0.013697026741437076,1.666
0.013675280908435977,1.667
0.013652211589012347,1.668
0.013627880265189043,1.669
0.01360235416041429,1.67
0.013575702990391705,1.671
0.013547994013693733,1.672
0.013519287914714264,1.673
0.013489638256946088,1.674
0.013459094529521562,1.675
0.013427706027738214,1.676
0.013395524118489868,1.677
0.01336260208223018,1.678
0.013328992567060535,1.679
0.013294743612409614,1.68
0.013259895792441941,1.681
0.013224482828679362,1.682
0.013188534967808196,1.683
0.013152082316371693,1.684
0.013115156194423622,1.685
0.013077788084355618,1.686
0.013040006510210967,1.687
0.0130018331726724,1.688
0.012963280948912742,1.689
0.012924355260604451,1.69
0.012885057168807564,1.691
0.012845385721213595,1.692
0.012805338510934924,1.693
0.012764910243506922,1.694
0.012724089949369697,1.695
0.012682859250852463,1.696
0.012641194111568058,1.697
0.012599069526978033,1.698
0.012556464510508455,1.699
0.012513365414729513,1.7
0.012469766847842187,1.701
0.012425670052021694,1.702
0.012381078980692146,1.703
0.012335995239214586,1.704
0.012290414782611529,1.705
0.012244329067757164,1.706
0.01219773002137545,1.707
0.01215061589936779,1.708
0.0121029959376479,1.709
0.012054892974144065,1.71
0.012006343645377908,1.711
0.01195739600078015,1.712
0.011908104749920056,1.713
0.011858525180261694,1.714
0.01180870829038308,1.715
0.011758699893453054,1.716
0.01170854354576033,1.717
0.011658284363542581,1.718
0.011607971359846307,1.719
0.011557657750610966,1.72
0.011507399434626472,1.721
0.011457252000081113,1.722
0.011407267024332974,1.723
0.01135748933381143,1.724
0.011307956878861266,1.725
0.011258702891725593,1.726
0.011209758248713031,1.727
0.011161152319300973,1.728
0.011112911727194832,1.729
0.011065057790312735,1.73
0.011017605142784315,1.731
0.010970563521616905,1.732
0.010923941569418321,1.733
0.010877750128470719,1.734
0.010832003747987077,1.735
0.010786720288948025,1.736
0.01074191894861479,1.737
0.010697617184955268,1.738
0.010653827415751337,1.739
0.010610555248028668,1.74
0.010567800685783266,1.741
0.010525561740015007,1.742
0.010483838715562804,1.743
0.010442637961655562,1.744
0.010401974408617917,1.745
0.010361872356493976,1.746
0.010322364156320287,1.747
0.010283486697189089,1.748
0.010245276618727553,1.749
0.010207767132302639,1.75
0.010170989273106662,1.751
0.010134976907738073,1.752
0.010099772332777394,1.753
0.010065430177460194,1.754
0.010032018838586147,1.755
0.009999619322414834,1.756
0.009968321696349565,1.757
0.009938219727889016,1.758
0.009909405499589973,1.759
0.009881967285011544,1.76
0.009855992260391843,1.761
0.009831571592830931,1.762
0.009808804581871852,1.763
0.009787800473585885,1.764
0.009768677758547117,1.765
0.009751561213678001,1.766
0.009736577386399612,1.767
0.009723849863226167,1.768
0.009713496301370497,1.769
0.009705628140654144,1.77
0.009700351560697982,1.771
0.00969776772779546,1.772
0.009697971876499263,1.773
0.00970105217772315,1.774
0.00970708962451262,1.775
0.009716159063835113,1.776
0.009728330260510181,1.777
0.009743667953499815,1.778
0.009762230866728354,1.779
0.00978407074850839,1.78
0.00980923278477805,1.781
0.009837757527622842,1.782
0.009869683258673994,1.783
0.009905047809287944,1.784
0.009943889486716043,1.785
0.009986247071641174,1.786
0.010032158959726244,1.787
0.010081661563300868,1.788
0.01013478710049421,1.789
0.010191561285106617,1.79
0.010252002159640219,1.791
0.010316120820401188,1.792
0.010383923067887388,1.793
0.010455410481929342,1.794
0.010530580250199794,1.795
0.01060942383280002,1.796
0.010691925296868854,1.797
0.010778060665246218,1.798
0.010867798684893466,1.799
0.01096110188949892,1.8
0.011057926754317661,1.801
0.011158222730134223,1.802
0.01126193083394673,1.803
0.011368983022948928,1.804
0.011479303035731124,1.805
0.011592808138162285,1.806
0.011709410939491783,1.807
0.01182902093894346,1.808
0.01195154560842126,1.809
0.01207689069242577,1.81
0.01220495937802332,1.811
0.012335650158432163,1.812
0.012468854104548455,1.813
0.012604453544928205,1.814
0.012742323340000798,1.815
0.012882333261741067,1.816
0.013024349249761914,1.817
0.013168232654285676,1.818
0.013313837957251159,1.819
0.013461010816478144,1.82
0.01360958838764609,1.821
0.013759401760054212,1.822
0.013910278581947612,1.823
0.014062044315756316,1.824
0.014214521510990395,1.825
0.014367527300618362,1.826
0.014520871056165596,1.827
0.014674355444120244,1.828
0.014827782127303488,1.829
0.014980959927621057,1.83
0.01513371242745467,1.831
0.015285883016144898,1.832
0.015437336105940567,1.833
0.015587953769030815,1.834
0.015737627860023983,1.835
0.015886250515370567,1.836
0.01603371007388278,1.837
0.016179896897232048,1.838
0.016324714882835302,1.839
0.01646809188675383,1.84
0.01660998608780147,1.841
0.016750387723665654,1.842
0.016889316257652866,1.843
0.017026813572770912,1.844
0.01716293417109486,1.845
0.01729773439778156,1.846
0.017431264843008526,1.847
0.017563569676412365,1.848
0.01769469169267836,1.849
0.017824678236462083,1.85
0.017953584705168564,1.851
0.018081475023897654,1.852
0.018208419573208557,1.853
0.01833449134700707,1.854
0.01845976121827474,1.855
0.018584293111852536,1.856
0.018708139709503843,1.857
0.01883133914064807,1.858
0.018953912997546375,1.859
0.01907586593373731,1.86
0.01919718697401885,1.861
0.019317852408875524,1.862
0.01943782977821169,1.863
0.01955708207450445,1.864
0.01967557105364092,1.865
0.0197932585430616,1.866
0.019910104933266618,1.867
0.02002606489989059,1.868
0.020141082601182064,1.869
0.02025509058182193,1.87
0.02036801431975278,1.871
0.02047977975785578,1.872
0.020590320447191467,1.873
0.020699583060600768,1.874
0.020807530966125205,1.875
0.020914145421512723,1.876
0.02101942385538197,1.877
0.021123374833858014,1.878
0.021226009743855797,1.879
0.021327333512303637,1.88
0.021427340358752083,1.881
0.021526018422711943,1.882
0.021623359417542305,1.883
0.021719367216421776,1.884
0.02181406279570159,1.885
0.021907485170298717,1.886
0.021999688492390982,1.887
0.022090735863602225,1.888
0.02218069060898478,1.889
0.022269607266781677,1.89
0.02235752728826821,1.891
0.022444482467195347,1.892
0.022530502562167806,1.893
0.022615621626037533,1.894
0.022699880559070785,1.895
0.02278332547366064,1.896
0.022866002321097343,1.897
0.022947949424960506,1.898
0.02302919109485767,1.899
0.023109735237730265,1.9
0.023189574349943048,1.901
0.023268686402705952,1.902
0.02334703356110734,1.903
0.023424560002224926,1.904
0.02350119147936745,1.905
0.023576837469603647,1.906
0.023651394178844078,1.907
0.023724746462704924,1.908
0.02379676788090575,1.909
0.023867318639459692,1.91
0.023936242409318298,1.911
0.02400336558501852,1.912
0.0240685020940735,1.913
0.024131462565562825,1.914
0.02419206456033084,1.915
0.024250141658578254,1.916
0.024305549978188457,1.917
0.024358170924229518,1.918
0.024407909422114325,1.919
0.024454687407852616,1.92
0.024498433075689257,1.921
0.02453906960354989,1.922
0.02457651177559164,1.923
0.02461067567617205,1.924
0.024641496405387583,1.925
0.024668945464470488,1.926
0.02469304325777684,1.927
0.024713864561491862,1.928
0.024731535758200068,1.929
0.024746224010108637,1.93
0.02475811997307072,1.931
0.02476741885567937,1.932
0.024774309143197695,1.933
0.024778974820422923,1.934
0.024781605565892494,1.935
0.02478240557688063,1.936
0.02478159715897069,1.937
0.024779419385236482,1.938
0.02477612305590452,1.939
0.024771963366522213,1.94
0.024767191664820002,1.941
0.02476204753761415,1.942
0.02475675248032928,1.943
0.024751506191502563,1.944
0.024746485449025808,1.945
0.024741845088822934,1.946
0.024737721314393498,1.947
0.024734237087476626,1.948
0.0247315080497297,1.949
0.024729647100312547,1.95
0.024728766057388434,1.951
0.02472897335472151,1.952
0.02473036852326378,1.953
0.024733037785097056,1.954
0.024737055974279495,1.955
0.02474249475042623,1.956
0.024749431980578183,1.957
0.024757957749362985,1.958
0.02476817528783895,1.959
0.02478019680672091,1.96
0.0247941351659945,1.961
0.024810094177091752,1.962
0.024828162927855384,1.963
0.024848417540044486,1.964
0.024870927303882087,1.965
0.02489575992706894,1.966
0.024922983572023598,1.967
0.02495266554321481,1.968
0.024984868023864425,1.969
0.02501964202135814,1.97
0.025057022397560046,1.971
0.02509702737424802,1.972
0.02513966276500227,1.973
0.025184927763561533,1.974
0.025232819452385712,1.975
0.025283335181966585,1.976
0.02533647286018088,1.977
0.025392229357921816,1.978
0.02545059730598973,1.979
0.025511560566494586,1.98
0.025575088962243038,1.981
0.025641134006372607,1.982
0.025709628051306388,1.983
0.025780487133756205,1.984
0.02585361486341736,1.985
0.02592890468974869,1.986
0.02600623964862806,1.987
0.026085489803955083,1.988
0.026166508244392043,1.989
0.026249127227521075,1.99
0.026333155968232755,1.991
0.026418380121930065,1.992
0.026504562689247644,1.993
0.026591447569769562,1.994
0.02667876681176037,1.995
0.02676625048554393,1.996
0.026853636924861694,1.997
0.026940681032766985,1.998
0.027027158545931913,1.999
0.027112864697420882,2.0
0.02719760670169586,2.001
0.027281191983876518,2.002
0.02736341876553066,2.003
0.02744407657474924,2.004
0.02752295675769841,2.005
0.027599866053444007,2.006
0.027674637599925753,2.007
0.027747137779672536,2.008
0.027817268805859573,2.009
0.027884967115985804,2.01
0.02795019781852331,2.011
0.028012945702468043,2.012
0.028073203595187207,2.013
0.02813095982446866,2.014
0.028186189048584744,2.015
0.028238851417730346,2.016
0.02828890022480653,2.017
0.02833629315207879,2.018
0.028381002776313606,2.019
0.028423024640769273,2.02
0.028462382003901523,2.021
0.028499126333726,2.022
0.02853333286682142,2.023
0.02856509109779684,2.024
0.028594491781525233,2.025
0.02862161609182918,2.026
0.028646534425278994,2.027
0.02866931580597549,2.028
0.02869004066671449,2.029
0.02870880980306062,2.03
0.028725746711769466,2.031
0.02874099306633546,2.032
0.02875469837251774,2.033
0.02876700701466152,2.034
0.028778048832103383,2.035
0.028787938140690736,2.036
0.028796779301070247,2.037
0.02880467296095926,2.038
0.028811719662989323,2.039
0.028818020786219038,2.04
0.028823677754568837,2.041
0.02882879047118012,2.042
0.028833455767153703,2.043
0.028837766245839704,2.044
0.028841809295581076,2.045
0.028845665424069553,2.046
0.02884940471329659,2.047
0.028853081657326966,2.048
0.02885673255143042,2.049
0.0288603803239543,2.05
0.028864046117446848,2.051
0.02886776239500874,2.052
0.02887158309412326,2.053
0.02887558844455551,2.054
0.028879883415435948,2.055
0.0288845899641089,2.056
0.028889834379698748,2.057
0.028895733709600697,2.058
0.02890238889121924,2.059
0.02890988857302525,2.06
0.028918318103990703,2.061
0.028927766196635056,2.062
0.028938326739641498,2.063
0.028950096113889084,2.064
0.028963167000545794,2.065
0.028977620285099228,2.066
0.028993517757621157,2.067
0.029010898767038707,2.068
0.029029781236800153,2.069
0.029050163899420032,2.07
0.02907202701206421,2.071
0.029095331336642084,2.072
0.029120016136752188,2.073
0.029145996865827074,2.074
0.029173163485045134,2.075
0.02920138071661859,2.076
0.029230490922069433,2.077
0.02926031911985931,2.078
0.02929067930178228,2.079
0.029321381327706966,2.08
0.02935223743091923,2.081
0.029383066977466867,2.082
0.029413697978675376,2.083
0.02944396408968414,2.084
0.02947369678971966,2.085
0.02950271615677614,2.086
0.02953082853119545,2.087
0.02955783619373549,2.088
0.029583554306115534,2.089
0.029607827238288136,2.09
0.029630540126701084,2.091
0.02965162389142798,2.092
0.029671052801822667,2.093
0.029688834792157375,2.094
0.029704995859623908,2.095
0.02971956244346587,2.096
0.029732549813743726,2.097
0.029743962774907824,2.098
0.029753805539117616,2.099
0.029762092640456567,2.1
0.02976885653613141,2.101
0.029774151729040417,2.102
0.029778056328145314,2.103
0.029780671817387746,2.104
0.029782121376183662,2.105
0.02978254662169385,2.106
0.029782102330622527,2.107
0.029780948650372157,2.108
0.029779241017501824,2.109
0.029777120931499156,2.11
0.02977471368217166,2.111
0.02977213543001897,2.112
0.029769504526327834,2.113
0.029766950713389587,2.114
0.0297646196501462,2.115
0.02976267269398145,2.116
0.02976128290423752,2.117
0.029760628884346017,2.118
0.029760888123038422,2.119
0.029762230978150544,2.12
0.029764815626570035,2.121
0.02976878352822963,2.122
0.029774255217513194,2.123
0.029781328141222745,2.124
0.029790079017824246,2.125
0.029800570592085206,2.126
0.0298128600696824,2.127
0.029827006591900972,2.128
0.02984307607523389,2.129
0.029861142353992096,2.13
0.02988128425029982,2.131
0.02990357908514473,2.132
0.02992809398183689,2.133
0.02995487736464973,2.134
0.029983953828729697,2.135
0.03001532356470356,2.136
0.030048964091637372,2.137
0.030084832040294475,2.138
0.030122865165211624,2.139
0.030162985728281824,2.14
0.030205105808625225,2.141
0.030249134112237695,2.142
0.03029498289281856,2.143
0.030342572986440552,2.144
0.03039183491607157,2.145
0.030442704548102377,2.146
0.030495113946534702,2.147
0.030548983114021877,2.148
0.030604220838051772,2.149
0.030660736071036906,2.15
0.030718452558027635,2.151
0.030777319258674486,2.152
0.030837313554264063,2.153
0.03089843672224837,2.154
0.030960702189421402,2.155
0.03102412040182506,2.156
0.031088689979345652,2.157
0.03115440264844115,2.158
0.031221257351015955,2.159
0.031289273119040936,2.16
0.03135849491114322,2.161
0.031428991409969895,2.162
0.03150084586633173,2.163
0.031574142339554245,2.164
0.0316489517770665,2.165
0.03172532455537132,2.166
0.0318032921132595,2.167
0.03188287241864013,2.168
0.031964073226296054,2.169
0.03204689174245286,2.17
0.03213131151583364,2.171
0.03221729744983965,2.172
0.03230479047156284,2.173
0.032393704431638165,2.174
0.03248392630530664,2.175
0.03257531713467264,2.176
0.03266771168142542,2.177
0.0327609200199581,2.178
0.03285473564406615,2.179
0.032948949671088745,2.18
0.03304336698646362,2.181
0.0331378202537159,2.182
0.03323217836673429,2.183
0.03332634661289478,2.184
0.033420257131498564,2.185
0.03351385201861547,2.186
0.033607069401321334,2.187
0.03369984560668738,2.188
0.03379213462970105,2.189
0.033883932924777156,2.19
0.03397529821983639,2.191
0.03406635806732076,2.192
0.03415730767568239,2.193
0.03424839822832152,2.194
0.03433991809158142,2.195
0.03443216997096562,2.196
0.034525449587441616,2.197
0.03462003517903875,2.198
0.03471619210131394,2.199
0.034814185175597645,2.2
0.03491428963504814,2.201
0.035016797878373716,2.202
0.03512202228440917,2.203
0.03523029441159035,2.204
0.0353419609241811,2.205
0.03545737663434137,2.206
0.03557689519448467,2.207
0.03570085826878591,2.208
0.03582958549751697,2.209
0.035963369548280444,2.21
0.03610247801921401,2.211
0.03624715823204818,2.212
0.036397640125657583,2.213
0.03655413569839637,2.214
0.036716835239747364,2.215
0.03688590216130057,2.216
0.037061470618441505,2.217
0.03724364853874688,2.218
0.037432523382737795,2.219
0.03762816622962177,2.22
0.03783063196251896,2.221
0.03803995536804782,2.222
0.038256146078705734,2.223
0.03847918849834658,2.224
0.03870904977783609,2.225
0.03894569161468381,2.226
0.03918907944436099,2.227
0.039439185339638964,2.228
0.039695983409338366,2.229
0.039959438957714234,2.23
0.0402294970906202,2.231
0.04050607901127498,2.232
0.040789088183587625,2.233
0.041078419634963545,2.234
0.04137396538515208,2.235
0.041675614069828074,2.236
0.041983245546061865,2.237
0.04229672199583806,2.238
0.04261587827568676,2.239
0.04294051580156286,2.24
0.04327040236522518,2.241
0.04360527536200494,2.242
0.04394484456783637,2.243
0.04428879327642314,2.244
0.04463677852574954,2.245
0.044988431432141915,2.246
0.04534335843608722,2.247
0.045701143837108216,2.248
0.046061353473714386,2.249
0.046423538909611116,2.25
0.04678724107354308,2.251
0.04715199195781402,2.252
0.047517312729070824,2.253
0.04788270686640146,2.254
0.04824765102696555,2.255
0.0486115936545951,2.256
0.04897396926944893,2.257
0.04933422384159559,2.258
0.04969184100180569,2.259
0.050046362362754136,2.26
0.05039739790186317,2.261
0.05074462344410368,2.262
0.05108776399594909,2.263
0.05142656581505283,2.264
0.0517607700389023,2.265
0.05209010709498999,2.266
0.05241431680004147,2.267
0.05273317766328389,2.268
0.05304652779652222,2.269
0.05335427151374769,2.27
0.05365637223934678,2.271
0.05395283451221407,2.272
0.05424367931081597,2.273
0.0545289179112216,2.274
0.05480853091820428,2.275
0.0550824582979483,2.276
0.05535059908155182,2.277
0.05561281254044716,2.278
0.055868915668763744,2.279
0.05611867971948576,2.28
0.056361830382305675,2.281
0.056598050856528595,2.282
0.056826982894729094,2.283
0.05704822514231047,2.284
0.0572613363177204,2.285
0.0574658502492467,2.286
0.057661300531939824,2.287
0.05784724768647494,2.288
0.05802330308978688,2.289
0.05818914501623419,2.29
0.058344522541754526,2.291
0.05848924448283979,2.292
0.05862315282587315,2.293
0.05874608927425567,2.294
0.05885787881051635,2.295
0.05895834748608569,2.296
0.05904736134723107,2.297
0.05912486188212561,2.298
0.05919088572667475,2.299
0.05924556607645106,2.3
0.05928911711020158,2.301
0.0593218059107447,2.302
0.05934391820927168,2.303
0.05935572587583235,2.304
0.059357465810205685,2.305
0.059349335384174313,2.306
0.05933149887142537,2.307
0.05930409555594486,2.308
0.059267246118438005,2.309
0.05922105895715854,2.31
0.05916563865679548,2.311
0.05910109765618697,2.312
0.05902757059200956,2.313
0.058945229127437715,2.314
0.05885429378597658,2.315
0.05875503891589734,2.316
0.05864778769102089,2.317
0.05853289580539946,2.318
0.05841072604027639,2.319
0.058281624266039896,2.32
0.05814591406469789,2.321
0.058003915905869924,2.322
0.057855977270179056,2.323
0.05770249773757973,2.324
0.057543942951995136,2.325
0.057380847010143565,2.326
0.057213804466279876,2.327
0.057043454173909804,2.328
0.05687045757523488,2.329
0.05669547400525736,2.33
0.05651913777371325,2.331
0.05634204604725998,2.332
0.0561647624874398,2.333
0.05598782975708798,2.334
0.055811781066273804,2.335
0.0556371472132217,2.336
0.05546445936033156,2.337
0.0552942480661916,2.338
0.055127038871419835,2.339
0.05496334456539348,2.34
0.05480365437586442,2.341
0.05464842234648559,2.342
0.05449806077815922,2.343
0.05435294257013748,2.344
0.05421340815003853,2.345
0.054079769640864216,2.346
0.053952308798911316,2.347
0.05383127053872569,2.348
0.05371685904137058,2.349
0.053609242345656075,2.35
0.05350856277064606,2.351
0.05341494618051411,2.352
0.053328506133716376,2.353
0.053249342284377416,2.354
0.05317753397029722,2.355
0.05311313097065352,2.356
0.05305614405361499,2.357
0.0530065378622333,2.358
0.05296422768192375,2.359
0.05292908021214481,2.36
0.0529009171317825,2.361
0.05287951897792528,2.362
0.05286462630553546,2.363
0.05285593809814537,2.364
0.05285311376334732,2.365
0.05285578525398747,2.366
0.05286357734177299,2.367
0.052876128778899405,2.368
0.052893108646768314,2.369
0.05291422459098242,2.37
0.05293922154444267,2.371
0.05296787151247977,2.372
0.052999956464769314,2.373
0.05303524768189121,2.374
0.053073487689871544,2.375
0.05311438257959035,2.376
0.0531576061272805,2.377
0.05320280818643866,2.378
0.05324962053611662,2.379
0.053297659766191774,2.38
0.0533465297469057,2.381
0.053395826232829444,2.382
0.053445145221932396,2.383
0.05349409503818407,2.384
0.053542310280453066,2.385
0.05358946443252956,2.386
0.053635277474181675,2.387
0.05367951528422883,2.388
0.053721978732535654,2.389
0.05376248224085383,2.39
0.05380082914675639,2.391
0.053836802366684186,2.392
0.05387018200540472,2.393
0.05390077842767735,2.394
0.05392846226251664,2.395
0.05395318254993077,2.396
0.053974970424671316,2.397
0.05399392772463352,2.398
0.05401020224899932,2.399
0.054023955369348425,2.4
0.05403533501284358,2.401
0.05404446893242384,2.402
0.05405147906145343,2.403
0.05405650231085068,2.404
0.0540597051745765,2.405
0.05406128933509483,2.406
0.054061489764530145,2.407
0.054060567458862396,2.408
0.05405879901193373,2.409
0.054056464796540804,2.41
