VaMe,time
-0.00967777773687293,0.001
-0.009131645700370172,0.002
-0.008588591458725443,0.003
-0.00804916061476419,0.004
-0.007513875686779296,0.005
-0.006983229918699857,0.006
-0.006457681758815684,0.007
-0.005937650286124806,0.008
-0.005423511963233256,0.009
-0.004915599190924269,0.01
-0.004414201165580573,0.011
-0.003919567433467194,0.012
-0.0034319142522962207,0.013
-0.002951433393111813,0.014
-0.002478301227629308,0.015
-0.0020126834410353414,0.016
-0.0015547329324419826,0.017
-0.0011045845091050875,0.018
-0.0006623512110898482,0.019
-0.0002281238740393166,0.02
0.00019802635821200066,0.021
0.0006160432807875753,0.022
0.0010258799548568294,0.023
0.0014274944345571382,0.024
0.0018208489385085605,0.025
0.002205911989876684,0.026
0.0025826611520192284,0.027
0.0029510846057065124,0.028
0.0033111810114681783,0.029
0.0036629575332450624,0.03
0.004006426402734321,0.031
0.004341601762539368,0.032
0.0046684992561805624,0.033
0.004987138817470402,0.034
0.0052975484196729795,0.035
0.005599766480672678,0.036
0.005893842096859976,0.037
0.0061798331722273695,0.038
0.0064578028593733055,0.039
0.006727815326401122,0.04
0.006989932881560331,0.041
0.007244216161044541,0.042
0.007490726708374524,0.043
0.0077295297071602095,0.044
0.007960695215731353,0.045
0.008184297215690153,0.046
0.00840041070241364,0.047
0.008609108849906304,0.048
0.008810463287846938,0.049
0.009004548152516455,0.05
0.009191445294416234,0.051
0.00937124776711266,0.052
0.009544060328234714,0.053
0.009709996795038221,0.054
0.009869174940668671,0.055
0.010021711247268725,0.056
0.010167719137048972,0.057
0.01030731207324874,0.058
0.010440608904963717,0.059
0.010567738238725243,0.06
0.01068884051432238,0.061
0.010804067439169897,0.062
0.010913578707144126,0.063
0.011017536627026273,0.064
0.01111610096527367,0.065
0.011209427347368824,0.066
0.011297669943909622,0.067
0.011380985335514645,0.068
0.011459534373045128,0.069
0.011533481156527782,0.07
0.011602989584361383,0.071
0.01166821898098788,0.072
0.011729321619823001,0.073
0.0117864437574124,0.074
0.011839728463763858,0.075
0.011889317667217424,0.076
0.011935352451685225,0.077
0.01197797163812696,0.078
0.012017309145155818,0.079
0.012053491676133348,0.08
0.012086638759241099,0.081
0.012116865454401302,0.082
0.01214428590908398,0.083
0.012169015926480774,0.084
0.012191173835413058,0.085
0.012210879617250656,0.086
0.012228252557161142,0.087
0.0122434079076556,0.088
0.012256453535260064,0.089
0.01226748825321008,0.09
0.012276602906585766,0.091
0.012283883388461835,0.092
0.01228941421724244,0.093
0.01229328201445872,0.094
0.012295578417223157,0.095
0.012296401746667723,0.096
0.012295856745925579,0.097
0.012294051975101942,0.098
0.012291095316465378,0.099
0.012287089844045382,0.1
0.012282133123916596,0.101
0.01227632036886302,0.102
0.012269748604407807,0.103
0.012262519196176899,0.104
0.012254738076747748,0.105
0.01224651400778475,0.106
0.012237955406957065,0.107
0.012229166501138224,0.108
0.012220244295209418,0.109
0.01221127814081013,0.11
0.01220235203061641,0.111
0.012193547668078938,0.112
0.012184946330927903,0.113
0.012176628715028667,0.114
0.012168672744706281,0.115
0.012161150326370924,0.116
0.012154125335357093,0.117
0.012147654427772514,0.118
0.012141789543820454,0.119
0.012136579946867503,0.12
0.012132072853040523,0.121
0.012128312679053595,0.122
0.012125339164832149,0.123
0.012123184957719366,0.124
0.012121873979265332,0.125
0.012121421866907933,0.126
0.012121838267847207,0.127
0.012123129538969695,0.128
0.01212530062127045,0.129
0.012128355440932525,0.13
0.012132295486559797,0.131
0.012137117061318588,0.132
0.012142809398371635,0.133
0.01214935583376048,0.134
0.012156737413108076,0.135
0.012164936308199535,0.136
0.012173937172597637,0.137
0.012183725948657914,0.138
0.012194286555709446,0.139
0.012205597206467238,0.14
0.012217629207143003,0.141
0.01223034943455579,0.142
0.01224372448737916,0.143
0.01225772392449121,0.144
0.012272321442742344,0.145
0.012287493658565659,0.146
0.012303216628263012,0.147
0.01231946179845794,0.148
0.012336194831743063,0.149
0.012353379034461548,0.15
0.012370980969269571,0.151
0.012388974830690206,0.152
0.012407344036855061,0.153
0.012426079767688862,0.154
0.012445176704649091,0.155
0.012464627463419925,0.156
0.012484419212130565,0.157
0.012504535252604067,0.158
0.012524960172387243,0.159
0.012545684976472416,0.16
0.012566709938664919,0.161
0.012588044387687729,0.162
0.012609703314503186,0.163
0.012631701832870563,0.164
0.012654050517173792,0.165
0.012676754829392513,0.166
0.012699818315421609,0.167
0.01272324611815944,0.168
0.012747046161089515,0.169
0.012771227537043822,0.17
0.01279579683469502,0.171
0.012820754299332484,0.172
0.012846092604479468,0.173
0.012871799299365699,0.174
0.012897861013182955,0.175
0.01292426704234436,0.176
0.012951011288933627,0.177
0.012978092167502231,0.178
0.013005510235886716,0.179
0.013033264051441574,0.18
0.01306134664317168,0.181
0.01308974585881613,0.182
0.013118449070111641,0.183
0.013147449297082534,0.184
0.013176749769740093,0.185
0.0132063656843418,0.186
0.013236322947615162,0.187
0.013266654215538938,0.188
0.013297393056523476,0.189
0.013328568315129685,0.19
0.013360202043512107,0.191
0.013392312454100068,0.192
0.013424919400716504,0.193
0.013458049093283736,0.194
0.013491736477729475,0.195
0.013526024652865684,0.196
0.013560961077744838,0.197
0.013596591800741745,0.198
0.01363295746452709,0.199
0.013670094350327693,0.2
0.013708039006664797,0.201
0.013746832250772134,0.202
0.013786520045306503,0.203
0.013827151044740138,0.204
0.01386877187608952,0.205
0.013911422591633934,0.206
0.013955135272232,0.207
0.013999936394400846,0.208
0.014045850570685048,0.209
0.014092903344759258,0.21
0.014141122392677107,0.211
0.014190537135023613,0.212
0.014241176751816518,0.213
0.014293066688041926,0.214
0.014346224737185545,0.215
0.014400659375762888,0.216
0.01445637193186913,0.217
0.014513360679584126,0.218
0.01457162397872305,0.219
0.014631161259310382,0.22
0.014691971843980425,0.221
0.014754052045836775,0.222
0.014817391371374248,0.223
0.014881969239063039,0.224
0.014947753778745621,0.225
0.015014702845580024,0.226
0.01508276563158641,0.227
0.015151883327670658,0.228
0.01522198834930152,0.229
0.015293002572525567,0.23
0.015364836120941798,0.231
0.015437388204012097,0.232
0.015510549629685568,0.233
0.015584205305120998,0.234
0.015658235464988048,0.235
0.015732515128897364,0.236
0.015806911864696915,0.237
0.015881283207352454,0.238
0.015955476456798245,0.239
0.0160293323809226,0.24
0.01610269134858153,0.241
0.01617539947821686,0.242
0.01624731330587484,0.243
0.016318301966260666,0.244
0.016388246032760314,0.245
0.016457032576606714,0.246
0.01652454786377184,0.247
0.016590672594265672,0.248
0.01665528430431961,0.249
0.016718265462390088,0.25
0.01677951185185182,0.251
0.016838937595596796,0.252
0.01689647579855024,0.253
0.016952074951079105,0.254
0.017005691799397395,0.255
0.017057282648957145,0.256
0.017106797514483855,0.257
0.017154181192460913,0.258
0.017199380137658912,0.259
0.017242350190479257,0.26
0.017283061296149548,0.261
0.017321497586086667,0.262
0.017357652374104672,0.263
0.017391519888436534,0.264
0.01742308949503868,0.265
0.017452347722275365,0.266
0.017479286353811394,0.267
0.017503910292470757,0.268
0.017526241011391525,0.269
0.01754631464656439,0.27
0.017564175304744672,0.271
0.017579866123607485,0.272
0.01759342359556744,0.273
0.01760487946392414,0.274
0.01761426811336959,0.275
0.017621634097410185,0.276
0.017627036643565203,0.277
0.017630550287268093,0.278
0.017632261541507592,0.279
0.017632261977815897,0.28
0.017630639864182493,0.281
0.01762747540030305,0.282
0.01762284306165747,0.283
0.017616818251701197,0.284
0.017609483019838116,0.285
0.017600928364283324,0.286
0.017591252955037318,0.287
0.017580558849260953,0.288
0.01756894528992839,0.289
0.01755650294671327,0.29
0.017543312113276484,0.291
0.01752944618734461,0.292
0.01751497774062213,0.293
0.01749998378206009,0.294
0.017484548582099694,0.295
0.017468763364097323,0.296
0.017452722567973315,0.297
0.017436517719903726,0.298
0.017420232447366762,0.299
0.017403942523105242,0.3
0.01738772059879112,0.301
0.01737164153029973,0.302
0.01735578512368321,0.303
0.01734023566157122,0.304
0.017325078763388898,0.305
0.017310396454774862,0.306
0.01729626189661036,0.307
0.017282736168997635,0.308
0.01726986865312703,0.309
0.017257699661573107,0.31
0.017246262699535598,0.311
0.0172355848975365,0.312
0.017225685313223233,0.313
0.017216571992729888,0.314
0.01720824036348437,0.315
0.017200674827495575,0.316
0.01719385214121819,0.317
0.017187743873003775,0.318
0.017182316611319335,0.319
0.017177529804017853,0.32
0.017173332368510163,0.321
0.017169660999152663,0.322
0.017166442274030035,0.323
0.017163597161096653,0.324
0.017161045241172877,0.325
0.017158707362312696,0.326
0.01715650638723449,0.327
0.017154365869954384,0.328
0.017152206628640396,0.329
0.017149942130254132,0.33
0.017147475653700152,0.331
0.017144702070779252,0.332
0.017141513340056813,0.333
0.01713780420941187,0.334
0.017133475478657425,0.335
0.017128433707050278,0.336
0.01712258711360655,0.337
0.017115839369304036,0.338
0.017108086243553512,0.339
0.017099219136225745,0.34
0.017089133416910835,0.341
0.017077736431393813,0.342
0.017064951997531677,0.343
0.017050720220075952,0.344
0.017034992383415413,0.345
0.01701772253167422,0.346
0.016998860811089807,0.347
0.016978354185405584,0.348
0.016956154334108346,0.349
0.016932227252173797,0.35
0.01690656003604188,0.351
0.01687916343031292,0.352
0.016850070142451018,0.353
0.016819329458122485,0.354
0.016786999040691433,0.355
0.016753135830460033,0.356
0.016717790057258774,0.357
0.016681005867564956,0.358
0.01664282730464659,0.359
0.016603305217787728,0.36
0.016562502035944702,0.361
0.016520493401390265,0.362
0.016477366446254714,0.363
0.016433214938838907,0.364
0.01638813231242313,0.365
0.01634220521185534,0.366
0.016295511072968418,0.367
0.01624812035741683,0.368
0.01620010007597017,0.369
0.016151515385824416,0.37
0.016102428596694796,0.371
0.016052896117074434,0.372
0.01600296468870705,0.373
0.015952669591705583,0.374
0.015902036533881943,0.375
0.015851085669468495,0.376
0.015799835068535845,0.377
0.015748302252140363,0.378
0.015696503304965425,0.379
0.015644449710011492,0.38
0.015592144777426624,0.381
0.015539583064229888,0.382
0.015486754147583565,0.383
0.01543364817730693,0.384
0.015380259922689076,0.385
0.015326589901216504,0.386
0.015272642430331789,0.387
0.015218421005981298,0.388
0.015163922840239255,0.389
0.015109136421478379,0.39
0.015054044432884913,0.391
0.014998629648644587,0.392
0.014942880035500514,0.393
0.014886791281862367,0.394
0.01483036619823087,0.395
0.014773610836923905,0.396
0.01471652867872408,0.397
0.014659116873010724,0.398
0.014601368016426978,0.399
0.014543276036872166,0.4
0.014484841856259256,0.401
0.014426076093836459,0.402
0.014366998168787105,0.403
0.014307632114432093,0.404
0.01424800052477714,0.405
0.014188119881979806,0.406
0.014128000475644857,0.407
0.014067650516657274,0.408
0.014007081056609073,0.409
0.01394630907991739,0.41
0.013885357957159832,0.411
0.013824255184450686,0.412
0.013763027832435153,0.413
0.0137016977283174,0.414
0.01364027998762219,0.415
0.013578786390418174,0.416
0.013517230789364227,0.417
0.01345563300056723,0.418
0.013394019798051854,0.419
0.013332422992238411,0.42
0.013270875045494289,0.421
0.013209403838437857,0.422
0.013148030001284353,0.423
0.013086769112511526,0.424
0.013025636969624476,0.425
0.01296465463771181,0.426
0.012903851574377121,0.427
0.012843266221922245,0.428
0.012782943767257006,0.429
0.012722931324268928,0.43
0.012663272515365046,0.431
0.012604005395010784,0.432
0.01254516563870848,0.433
0.012486792120246103,0.434
0.012428931024915964,0.435
0.012371637070335558,0.436
0.012314971922003207,0.437
0.012259000338601783,0.438
0.012203785160355567,0.439
0.012149383314832094,0.44
0.01209584515350327,0.441
0.01204321710023801,0.442
0.011991545205860828,0.443
0.011940877479462346,0.444
0.011891264261944966,0.445
0.011842756584579327,0.446
0.011795402896143998,0.447
0.011749245608832714,0.448
0.011704319807178985,0.449
0.01166065492712813,0.45
0.011618277442689999,0.451
0.011577212294580317,0.452
0.011537482356224678,0.453
0.011499106254992359,0.454
0.011462095760199959,0.455
0.011426454806282007,0.456
0.011392181144189426,0.457
0.011359269312989426,0.458
0.011327713152200668,0.459
0.011297507088242148,0.46
0.011268645930203604,0.461
0.011241122992075525,0.462
0.011214927133930413,0.463
0.011190040935599225,0.464
0.011166442114089946,0.465
0.011144107456927097,0.466
0.011123016677010262,0.467
0.011103154386325418,0.468
0.011084509673191618,0.469
0.011067073511201913,0.47
0.011050834810538795,0.471
0.011035776718179258,0.472
0.01102187519081727,0.473
0.011009100440994403,0.474
0.010997419782720204,0.475
0.010986800290770671,0.476
0.010977210677991728,0.477
0.010968622065502122,0.478
0.010961007229943545,0.479
0.010954338058613768,0.48
0.010948582052465386,0.481
0.010943700590362909,0.482
0.010939650922007306,0.483
0.010936390303044361,0.484
0.010933879352868773,0.485
0.010932083238505022,0.486
0.010930970517976158,0.487
0.010930509942047053,0.488
0.010930666427301353,0.489
0.010931398818909222,0.49
0.01093266134153398,0.491
0.010934407534517031,0.492
0.010936594109460768,0.493
0.010939183255883996,0.494
0.010942142830856573,0.495
0.010945444190074972,0.496
0.010949058201131822,0.497
0.010952951702846369,0.498
0.010957087353071349,0.499
0.010961427166735073,0.5
0.010965936949895184,0.501
0.01097058898201265,0.502
0.010975362087450037,0.503
0.010980239249996656,0.504
0.010985203435550648,0.505
0.01099023335102016,0.506
0.010995301913142243,0.507
0.011000378641278605,0.508
0.01100543400703166,0.509
0.011010443133884013,0.51
0.01101538764016769,0.511
0.011020255182981319,0.512
0.011025036542449915,0.513
0.011029721168632007,0.514
0.01103429407599617,0.515
0.0110387368099801,0.516
0.011043031675626253,0.517
0.011047166009138689,0.518
0.011051134279165426,0.519
0.011054937480822364,0.52
0.011058580081816725,0.521
0.011062065514579066,0.522
0.011065392499853362,0.523
0.011068554752490642,0.524
0.011071544195802046,0.525
0.011074355251388463,0.526
0.011076987913036391,0.527
0.011079448620287645,0.528
0.011081748616883744,0.529
0.01108390005470425,0.53
0.011085911660940218,0.531
0.011087787276664481,0.532
0.011089528659646058,0.533
0.011091140027164886,0.534
0.011092631162814667,0.535
0.011094017936605197,0.536
0.011095320361060113,0.537
0.011096558719597763,0.538
0.011097749147386813,0.539
0.011098901269437158,0.54
0.01110001950489984,0.541
0.011101106531008197,0.542
0.011102166387971481,0.543
0.01110320602840378,0.544
0.011104234993662023,0.545
0.011105263148510736,0.546
0.011106297168871791,0.547
0.011107337932214177,0.548
0.011108380944257491,0.549
0.011109419301927376,0.55
0.011110446687240066,0.551
0.011111458557663054,0.552
0.011112451083144098,0.553
0.0111134182372178,0.554
0.011114348603265546,0.555
0.011115224441757594,0.556
0.011116024113263871,0.557
0.011116726163875074,0.558
0.011117312881654476,0.559
0.011117772380635417,0.56
0.011118098914449615,0.561
0.011118291255982729,0.562
0.01111834917193259,0.563
0.011118269072178888,0.564
0.011118041795176236,0.565
0.01111765475187523,0.566
0.011117096924907371,0.567
0.011116363691176624,0.568
0.01111545991206665,0.569
0.011114400927158144,0.57
0.011113211455225555,0.571
0.011111922644274035,0.572
0.011110567678629868,0.573
0.0111091769555762,0.574
0.011107775011252508,0.575
0.01110638093242248,0.576
0.011105011259868569,0.577
0.011103682815676252,0.578
0.011102413820036261,0.579
0.011101222903918118,0.58
0.011100126308307987,0.581
0.01109913456538162,0.582
0.011098250862645544,0.583
0.0110974719240273,0.584
0.011096789603792572,0.585
0.011096191126163205,0.586
0.01109565776592221,0.587
0.01109516350250195,0.588
0.011094675591209281,0.589
0.011094157444350498,0.59
0.011093572451897658,0.591
0.011092887306579743,0.592
0.011092074078947895,0.593
0.011091110575045493,0.594
0.0110899786377766,0.595
0.011088660485997296,0.596
0.011087134677517653,0.597
0.011085374933675824,0.598
0.011083353392382115,0.599
0.011081045935145166,0.6
0.011078436341498795,0.601
0.0110755178464045,0.602
0.011072291904872125,0.603
0.011068764470742981,0.604
0.01106494092624361,0.605
0.011060822202523456,0.606
0.011056404636312031,0.607
0.011051683274620262,0.608
0.01104665588620922,0.609
0.011041325457789833,0.61
0.011035700411599859,0.611
0.011029792440224832,0.612
0.011023612554221468,0.613
0.01101716751993691,0.614
0.011010459552242342,0.615
0.0110034896439882,0.616
0.01099626185860142,0.617
0.010988785968264147,0.618
0.010981077545629346,0.619
0.010973155619660268,0.62
0.010965038602891199,0.621
0.010956740313097115,0.622
0.010948268689348239,0.623
0.010939628042290362,0.624
0.010930822820668786,0.625
0.010921860570541229,0.626
0.010912753162482773,0.627
0.010903516047668581,0.628
0.010894165493652692,0.629
0.010884714700199728,0.63
0.010875171421727427,0.631
0.010865539292456714,0.632
0.010855821745430998,0.633
0.010846025641285922,0.634
0.010836162892043774,0.635
0.010826249743682155,0.636
0.010816303986921969,0.637
0.010806341016240709,0.638
0.010796370752208354,0.639
0.010786397525004238,0.64
0.010776422865297496,0.641
0.010766449142530521,0.642
0.010756482262557108,0.643
0.010746532682044755,0.644
0.010736614430565278,0.645
0.010726742069063355,0.646
0.010716926655449195,0.647
0.010707173633450818,0.648
0.010697484649558114,0.649
0.010687861558163354,0.65
0.01067830955616815,0.651
0.010668838059054574,0.652
0.010659459244638788,0.653
0.010650184688844832,0.654
0.01064102147286977,0.655
0.010631970404986495,0.656
0.01062302790059906,0.657
0.010614189950392244,0.658
0.010605455741831096,0.659
0.010596829800958746,0.66
0.01058832222863424,0.661
0.010579946767349146,0.662
0.01057171705735244,0.663
0.010563643009034495,0.664
0.010555730205077007,0.665
0.010547983037245431,0.666
0.010540409016351223,0.667
0.010533021515699126,0.668
0.01052584001140457,0.669
0.010518887973893665,0.67
0.010512188972210151,0.671
0.010505762381854425,0.672
0.010499621222619196,0.673
0.010493773498944491,0.674
0.010488225331108027,0.675
0.010482983412082187,0.676
0.010478055783558817,0.677
0.010473450764794468,0.678
0.01046917431363586,0.679
0.010465227291303168,0.68
0.01046160497240227,0.681
0.010458299509107922,0.682
0.010455303391481685,0.683
0.010452611650098358,0.684
0.010450221938119066,0.685
0.010448132548737315,0.686
0.01044633910478879,0.687
0.010444831729240963,0.688
0.01044359474546627,0.689
0.010442609118819491,0.69
0.010441855911052787,0.691
0.010441319158036474,0.692
0.010440987544007277,0.693
0.010440854571787712,0.694
0.01044091697495425,0.695
0.010441171413398112,0.696
0.010441610732468246,0.697
0.010442222619216077,0.698
0.010442992161093395,0.699
0.010443906290973838,0.7
0.010444957227512111,0.701
0.010446143663211956,0.702
0.010447469556121552,0.703
0.010448940796854456,0.704
0.01045056090182118,0.705
0.010452328294998672,0.706
0.010454237262220431,0.707
0.010456281662373425,0.708
0.010458458788092324,0.709
0.010460771677142568,0.71
0.010463229260560498,0.711
0.010465844172498205,0.712
0.010468628792324814,0.713
0.010471591690189927,0.714
0.010474737263425767,0.715
0.010478068843692151,0.716
0.010481592631610491,0.717
0.010485320003831535,0.718
0.010489267477675914,0.719
0.010493454558616664,0.72
0.010497900036371416,0.721
0.010502618056963096,0.722
0.01050761630458902,0.723
0.010512897517330913,0.724
0.010518462769069687,0.725
0.01052431429162411,0.726
0.010530456875500818,0.727
0.010536897558585168,0.728
0.010543643473535497,0.729
0.010550698532337168,0.73
0.010558061154926896,0.731
0.01056572511133538,0.732
0.010573682787864887,0.733
0.010581928355416886,0.734
0.010590459143012702,0.735
0.010599274840486955,0.736
0.010608374789107816,0.737
0.010617754403294703,0.738
0.010627402955533655,0.739
0.010637304468750292,0.74
0.010647440888652887,0.741
0.010657795379276757,0.742
0.010668354406550689,0.743
0.010679108105177752,0.744
0.010690048687495606,0.745
0.010701167170025174,0.746
0.010712450095497685,0.747
0.010723878911175481,0.748
0.010735432763564213,0.749
0.010747092469541504,0.75
0.010758843178724314,0.751
0.010770674843766127,0.752
0.010782580567840677,0.753
0.010794553223644745,0.754
0.010806581503248773,0.755
0.010818647798860262,0.756
0.010830729600484574,0.757
0.010842803231751241,0.758
0.01085484756094682,0.759
0.010866846364665839,0.76
0.010878788826287563,0.761
0.010890667896215197,0.762
0.01090247669609901,0.763
0.010914204555265272,0.764
0.010925835733684741,0.765
0.010937352206878003,0.766
0.010948738213965574,0.767
0.010959983559714757,0.768
0.01097108448314583,0.769
0.010982042070609477,0.77
0.010992858587420374,0.771
0.011003533017474683,0.772
0.01101405856290916,0.773
0.011024424080125881,0.774
0.011034618114994822,0.775
0.011044632746854077,0.776
0.01105446565278776,0.777
0.01106411986477186,0.778
0.011073601114029658,0.779
0.011082913610749407,0.78
0.011092056847703603,0.781
0.01110102603456322,0.782
0.011109815666952067,0.783
0.011118423312345293,0.784
0.011126851465966986,0.785
0.011135106974203647,0.786
0.0111431983156488,0.787
0.011151131633162892,0.788
0.011158907470003766,0.789
0.011166520395623391,0.79
0.011173961655494604,0.791
0.01118122276338727,0.792
0.011188298064429045,0.793
0.011195185434070899,0.794
0.011201884831009945,0.795
0.011208394985986485,0.796
0.011214710002331997,0.797
0.011220818728937229,0.798
0.011226707771206176,0.799
0.011232365751224977,0.8
0.011237786094211506,0.801
0.011242967328971613,0.802
0.011247910963527853,0.803
0.011252617586522785,0.804
0.011257082998187748,0.805
0.011261297091444127,0.806
0.011265246507069934,0.807
0.011268919076429547,0.808
0.011272307588704152,0.809
0.01127541177733883,0.81
0.011278238126957172,0.811
0.011280797331417047,0.812
0.01128309995556752,0.813
0.011285152506997029,0.814
0.011286956920856458,0.815
0.011288513938346576,0.816
0.0112898276202593,0.817
0.011290908261776622,0.818
0.0112917728054268,0.819
0.011292442872328614,0.82
0.01129294089739896,0.821
0.011293285631431125,0.822
0.011293489508410335,0.823
0.011293559669021146,0.824
0.011293501472748435,0.825
0.011293321973927467,0.826
0.011293031875245609,0.827
0.011292645419527124,0.828
0.011292178032617872,0.829
0.01129164249974815,0.83
0.01129104626705703,0.831
0.011290392337676439,0.832
0.01128968300822803,0.833
0.011288923497022364,0.834
0.011288123474874026,0.835
0.011287296101848067,0.836
0.01128645492797401,0.837
0.011285609836873677,0.838
0.0112847644598364,0.839
0.011283917022389473,0.84
0.011283063839839166,0.841
0.011282203111172284,0.842
0.011281337448769765,0.843
0.011280474515241468,0.844
0.011279625476378454,0.845
0.011278801427298021,0.846
0.011278009358459571,0.847
0.01127725075150385,0.848
0.011276524257841867,0.849
0.01127583018294363,0.85
0.011275173746180216,0.851
0.011274565932080474,0.852
0.0112740219320594,0.853
0.01127355757452031,0.854
0.011273184988175903,0.855
0.011272910076660364,0.856
0.011272733703647288,0.857
0.011272655448666086,0.858
0.011272677371952812,0.859
0.011272806276311538,0.86
0.01127305392530764,0.861
0.011273435025847487,0.862
0.011273963417346534,0.863
0.011274648409999062,0.864
0.011275494107581361,0.865
0.01127650236229411,0.866
0.011277676858899213,0.867
0.01127902568802712,0.868
0.01128056151103237,0.869
0.011282299437446505,0.87
0.011284253239311436,0.871
0.011286431546797794,0.872
0.011288836543023503,0.873
0.011291466127398305,0.874
0.01129431766270413,0.875
0.011297390956464308,0.876
0.011300689445598602,0.877
0.01130421925705102,0.878
0.011307986141533626,0.879
0.011311991600815727,0.88
0.01131623133884482,0.881
0.01132069786021835,0.882
0.011325385110349032,0.883
0.01133029196408157,0.884
0.011335423184376529,0.885
0.011340787740803148,0.886
0.011346394916981731,0.887
0.011352249821489673,0.888
0.011358351358370438,0.889
0.011364694312526232,0.89
0.011371273599281626,0.891
0.011378087874495079,0.892
0.011385141349091849,0.893
0.01139244354409405,0.894
0.011400006905009972,0.895
0.011407842789807185,0.896
0.011415957787713912,0.897
0.01142435308471944,0.898
0.011433027364708944,0.899
0.011441980755181238,0.9
0.011451217305564825,0.901
0.011460745181983091,0.902
0.011470574727697197,0.903
0.011480714872962533,0.904
0.011491169153887761,0.905
0.011501933768542768,0.906
0.01151299912955059,0.907
0.0115243534238618,0.908
0.01153598580925726,0.909
0.011547888120213767,0.91
0.011560054691618235,0.911
0.011572480113241017,0.912
0.011585155629819334,0.913
0.011598066644530237,0.914
0.011611193739531355,0.915
0.011624516586991271,0.916
0.011638017953174852,0.917
0.01165168578732773,0.918
0.011665512825604128,0.919
0.01167949386170992,0.92
0.011693621572285467,0.921
0.011707883110325801,0.922
0.011722259998472328,0.923
0.011736731501979897,0.924
0.011751279149338975,0.925
0.011765890175262556,0.926
0.011780558889430099,0.927
0.011795285575595693,0.928
0.011810072869409452,0.929
0.011824920842180075,0.93
0.011839824105870022,0.931
0.011854773445381243,0.932
0.011869760322547449,0.933
0.01188478076328283,0.934
0.011899836833561302,0.935
0.011914935504662105,0.936
0.011930085290799693,0.937
0.011945291769215893,0.938
0.011960554332816778,0.939
0.011975866381167367,0.94
0.011991218540233396,0.941
0.012006602479592987,0.942
0.01202201342557214,0.943
0.012037450610710683,0.944
0.012052915393138765,0.945
0.012068407496659064,0.946
0.012083921520706656,0.947
0.01209944670278622,0.948
0.012114970424875356,0.949
0.012130482742791226,0.95
0.012145979208277693,0.951
0.01216146105386789,0.952
0.01217693288139569,0.953
0.012192398468184044,0.954
0.012207856298492007,0.955
0.01222329766148721,0.956
0.012238708824658984,0.957
0.012254075448741845,0.958
0.012269386554017951,0.959
0.012284636754711557,0.96
0.01229982625232822,0.961
0.012314958328412184,0.962
0.012330034968844553,0.963
0.012345053088276957,0.964
0.01236000437853697,0.965
0.012374878902261171,0.966
0.012389669455685079,0.967
0.012404374059022593,0.968
0.012418995799842208,0.969
0.012433540242008547,0.97
0.012448011164378946,0.971
0.012462406507165463,0.972
0.01247671719391201,0.973
0.012490929668866396,0.974
0.012505030021076368,0.975
0.012519007205004451,0.976
0.012532854283734537,0.977
0.012546567388698476,0.978
0.01256014240337807,0.979
0.012573570565159018,0.98
0.012586836055579458,0.981
0.012599917701245763,0.982
0.012612793016939891,0.983
0.012625441404303243,0.984
0.012637845052191444,0.985
0.012649987483775658,0.986
0.012661850166176908,0.987
0.012673408485118373,0.988
0.012684629733123,0.989
0.012695474832102226,0.99
0.012705902335889455,0.991
0.012715872155592528,0.992
0.01272534767120468,0.993
0.012734295668302965,0.994
0.012742683768431542,0.995
0.012750476245578202,0.996
0.012757631472394813,0.997
0.012764103990819916,0.998
0.01276985011182707,0.999
0.012774833422218355,1.0
0.012779027745331463,1.001
0.012782416762840202,1.002
0.012784990352865339,1.003
0.0127867388288134,1.004
0.01278764825592485,1.005
0.012787700380692045,1.006
0.01278687721153226,1.007
0.012785166850027641,1.008
0.012782567597878101,1.009
0.012779089262384767,1.01
0.01277475144897693,1.011
0.012769578994140083,1.012
0.012763595891834957,1.013
0.01275682119125625,1.014
0.012749269874941889,1.015
0.012740957481499044,1.016
0.012731904662706389,1.017
0.012722139288069367,1.018
0.012711695664406138,1.019
0.012700611251334256,1.02
0.012688921842683864,1.021
0.012676657328580374,1.022
0.012663840681060141,1.023
0.012650490658918545,1.024
0.012636625881892937,1.025
0.012622267824757791,1.026
0.012607441727795729,1.027
0.012592175151681912,1.028
0.012576494403672327,1.029
0.01256042055628317,1.03
0.012543968256064417,1.031
0.01252714870024037,1.032
0.012509974357271367,1.033
0.012492462312624353,1.034
0.012474635026315566,1.035
0.012456518527422909,1.036
0.012438138514123205,1.037
0.01241951577078838,1.038
0.012400663729721447,1.039
0.012381590048133261,1.04
0.012362300698569554,1.041
0.012342803839245535,1.042
0.012323112069038357,1.043
0.012303242615881699,1.044
0.012283215268962432,1.045
0.012263048460925609,1.046
0.012242755435983412,1.047
0.012222343475044311,1.048
0.012201816959711663,1.049
0.012181181666065395,1.05
0.012160447423819708,1.051
0.012139628129308602,1.052
0.012118739245195586,1.053
0.012097793705364991,1.054
0.012076798435590914,1.055
0.012055753980355723,1.056
0.012034657404613897,1.057
0.01201350618542673,1.058
0.01199230099196176,1.059
0.01197104654135761,1.06
0.011949750279365755,1.061
0.011928418989445095,1.062
0.011907054825769472,1.063
0.011885653963137007,1.064
0.01186420950749822,1.065
0.011842716367369626,1.066
0.011821174849042385,1.067
0.011799591623525858,1.068
0.011777977996223587,1.069
0.011756345904324525,1.07
0.01173470315374249,1.071
0.011713050949820851,1.072
0.01169138562727301,1.073
0.011669702830114728,1.074
0.011648001265422476,1.075
0.011626284721507167,1.076
0.01160456199880082,1.077
0.011582844613988506,1.078
0.011561142814395532,1.079
0.011539462028761717,1.08
0.011517802568134124,1.081
0.011496162918823173,1.082
0.01147454395767678,1.083
0.011452951509501812,1.084
0.011431396388007142,1.085
0.01140989203667243,1.086
0.01138845051925634,1.087
0.011367078815074191,1.088
0.011345778028668525,1.089
0.011324546160898345,1.09
0.011303382313711599,1.091
0.011282290010604027,1.092
0.01126127864477498,1.093
0.011240362709968258,1.094
0.011219558704007591,1.095
0.01119888073099447,1.096
0.011178337855941209,1.097
0.011157935741173854,1.098
0.01113768125862657,1.099
0.011117586783825868,1.1
0.0110976722552109,1.101
0.011077964619992931,1.102
0.011058494944073342,1.103
0.011039293965038464,1.104
0.01102038785665805,1.105
0.011001796741410611,1.106
0.010983536795809162,1.107
0.010965623924578088,1.108
0.01094807665283322,1.109
0.010930917334278182,1.11
0.010914171511414545,1.111
0.010897865463731615,1.112
0.010882022613707795,1.113
0.010866660709401893,1.114
0.010851791802651457,1.115
0.010837424739277152,1.116
0.010823567886607986,1.117
0.010810230354312134,1.118
0.010797421338487738,1.119
0.010785147881002594,1.12
0.010773411920273389,1.121
0.01076220843981505,1.122
0.01075152621663544,1.123
0.010741350641307896,1.124
0.010731666845380202,1.125
0.010722461864227841,1.126
0.010713725212286042,1.127
0.010705447517823964,1.128
0.010697617507765015,1.129
0.01069021917285058,1.13
0.010683231742041732,1.131
0.010676632956311964,1.132
0.010670403299727247,1.133
0.010664528770693973,1.134
0.010659001295808603,1.135
0.010653816818256494,1.136
0.010648971503049396,1.137
0.010644457444695108,1.138
0.010640260615561876,1.139
0.010636362667578904,1.14
0.010632744868018473,1.141
0.010629391520365773,1.142
0.01062629167315746,1.143
0.01062343876021955,1.144
0.010620828056760569,1.145
0.010618452767821416,1.146
0.010616301265900338,1.147
0.010614357845939466,1.148
0.010612606282903229,1.149
0.010611033389194526,1.15
0.010609630672013813,1.151
0.010608393668312932,1.152
0.0106073192168312,1.153
0.010606401615519238,1.154
0.010605629779307216,1.155
0.010604987483400646,1.156
0.010604456465035614,1.157
0.010604020241421076,1.158
0.010603666893688758,1.159
0.010603390089833705,1.16
0.010603188045578641,1.161
0.010603060371902841,1.162
0.010603003873114084,1.163
0.010603010240516979,1.164
0.01060306781852676,1.165
0.010603165856791077,1.166
0.010603298096827153,1.167
0.010603464109491674,1.168
0.010603668214504371,1.169
0.010603916358385746,1.17
0.010604212007366089,1.171
0.0106045532139238,1.172
0.010604932848188166,1.173
0.010605341606783222,1.174
0.010605771595125796,1.175
0.010606218747560577,1.176
0.01060668335203803,1.177
0.010607168386482981,1.178
0.010607676046343847,1.179
0.01060820444410328,1.18
0.010608747302617466,1.181
0.01060929716473886,1.182
0.010609849564956628,1.183
0.010610405549567426,1.184
0.010610971642083154,1.185
0.010611557383076297,1.186
0.01061217128735574,1.187
0.010612817263579426,1.188
0.010613493931534834,1.189
0.010614197155850666,1.19
0.010614923638345859,1.191
0.010615673499558989,1.192
0.01061645109958221,1.193
0.010617263942767182,1.194
0.010618119709907435,1.195
0.010619022417826508,1.196
0.01061997032437081,1.197
0.010620957465579856,1.198
0.010621977385555044,1.199
0.010623026278081593,1.2
0.010624104142009028,1.201
0.010625213764702952,1.202
0.010626357826420426,1.203
0.010627535191706625,1.204
0.010628738633174081,1.205
0.010629955741306754,1.206
0.010631172193295698,1.207
0.010632375203878063,1.208
0.010633555787785142,1.209
0.010634709293799711,1.21
0.010635833935249544,1.211
0.010636927491816623,1.212
0.01063798375363209,1.213
0.010638991587980024,1.214
0.010639937789309797,1.215
0.010640811460371108,1.216
0.010641607099890994,1.217
0.010642325292630274,1.218
0.010642971016144502,1.219
0.010643549998227062,1.22
0.010644064422841932,1.221
0.010644510577178955,1.222
0.010644880199210173,1.223
0.010645164217623095,1.224
0.010645356372737926,1.225
0.010645455363181433,1.226
0.01064546502682078,1.227
0.010645392330229568,1.228
0.010645243625158157,1.229
0.010645021212350326,1.23
0.01064472300962257,1.231
0.010644345763869044,1.232
0.010643889238607727,1.233
0.010643358830484525,1.234
0.010642765762670689,1.235
0.010642124967369231,1.236
0.010641451221382735,1.237
0.010640755109325434,1.238
0.01064004149724145,1.239
0.01063931180039685,1.24
0.01063856820730382,1.241
0.01063781732490229,1.242
0.01063707206421079,1.243
0.010636351321238394,1.244
0.010635677252253922,1.245
0.010635070978246848,1.246
0.010634549481993275,1.247
0.010634126372285276,1.248
0.010633815766481642,1.249
0.01063363613379781,1.25
0.01063361193780802,1.251
0.010633772655953524,1.252
0.010634149586615373,1.253
0.010634771602029068,1.254
0.010635662093039752,1.255
0.010636839028909842,1.256
0.01063831757295854,1.257
0.01064011300314448,1.258
0.01064224234511611,1.259
0.010644724217520317,1.26
0.01064757683680408,1.261
0.010650814859155365,1.262
0.010654447120793923,1.263
0.010658477242413193,1.264
0.01066290653720798,1.265
0.010667736901065743,1.266
0.010672972079172527,1.267
0.010678616937915558,1.268
0.010684674959159793,1.269
0.010691144951556444,1.27
0.01069801916268945,1.271
0.010705284423676503,1.272
0.01071292541419355,1.273
0.010720927990015955,1.274
0.010729281400585657,1.275
0.010737978949669146,1.276
0.010747016820300312,1.277
0.010756391010343806,1.278
0.010766093499308706,1.279
0.010776110573083407,1.28
0.010786425153267791,1.281
0.01079702122168158,1.282
0.010807887301440918,1.283
0.010819017672296273,1.284
0.010830411209359962,1.285
0.01084206817893015,1.286
0.010853986067016689,1.287
0.010866156679036728,1.288
0.010878566476990079,1.289
0.01089119962237076,1.29
0.010904041500422252,1.291
0.01091708113994378,1.292
0.010930311944333687,1.293
0.010943730491034965,1.294
0.010957333360756159,1.295
0.010971113104819859,1.296
0.010985056342130976,1.297
0.010999145944281153,1.298
0.011013365385150024,1.299
0.011027702132924186,1.3
0.011042148756610607,1.301
0.01105670168043988,1.302
0.011071357950267192,1.303
0.011086111136169086,1.304
0.011100948672884529,1.305
0.011115852507072959,1.306
0.011130802297211802,1.307
0.01114577887660046,1.308
0.011160766437202657,1.309
0.011175752818997997,1.31
0.011190727636749715,1.311
0.011205678728094533,1.312
0.011220589097384357,1.313
0.011235437087558194,1.314
0.011250199910997181,1.315
0.011264857855664197,1.316
0.011279396717206402,1.317
0.0112938076351473,1.318
0.011308084429592871,1.319
0.011322219363175064,1.32
0.011336199706021422,1.321
0.011350007711646968,1.322
0.01136362401660632,1.323
0.011377031968263633,1.324
0.01139022070533671,1.325
0.011403186168072585,1.326
0.011415929802162437,1.327
0.011428454972558929,1.328
0.011440762267722051,1.329
0.011452846879933623,1.33
0.011464700443624964,1.331
0.0114763156751634,1.332
0.011487690424335692,1.333
0.011498829383177665,1.334
0.011509743201247848,1.335
0.011520445345047613,1.336
0.011530947635608855,1.337
0.011541256468691684,1.338
0.011551372087141338,1.339
0.011561291236751911,1.34
0.01157101108934081,1.341
0.011580532329933817,1.342
0.011589860526329496,1.343
0.01159900544322863,1.344
0.01160797818098481,1.345
0.011616787011373385,1.346
0.01162543459905148,1.347
0.011633919032612027,1.348
0.01164223773299544,1.349
0.011650391216436101,1.35
0.011658384757331549,1.351
0.011666227535813532,1.352
0.011673929556317877,1.353
0.011681497459260743,1.354
0.0116889317059177,1.355
0.011696227317537358,1.356
0.011703377531229077,1.357
0.011710377857707586,1.358
0.011717228703224242,1.359
0.011723935791189318,1.36
0.011730508089342796,1.361
0.01173695376353006,1.362
0.011743276493039658,1.363
0.011749475255770348,1.364
0.011755547979847684,1.365
0.011761496183115354,1.366
0.011767327834256576,1.367
0.011773057538824289,1.368
0.011778704198868445,1.369
0.01178428672142325,1.37
0.011789819353823323,1.371
0.011795309553606043,1.372
0.011800759959429545,1.373
0.011806172524463115,1.374
0.011811552003830994,1.375
0.011816907566078207,1.376
0.011822252194616432,1.377
0.011827599807545846,1.378
0.011832961071348598,1.379
0.011838340711369234,1.38
0.011843738683541102,1.381
0.011849154071354303,1.382
0.011854588623656105,1.383
0.011860048070849824,1.384
0.011865540879499606,1.385
0.011871074785224079,1.386
0.011876652535833141,1.387
0.011882269843013767,1.388
0.011887917405545262,1.389
0.011893585253998808,1.39
0.011899266596555345,1.391
0.011904959877299467,1.392
0.011910668650763852,1.393
0.011916399102561778,1.394
0.011922155873063228,1.395
0.01192793861909378,1.396
0.011933742247518316,1.397
0.011939560898122637,1.398
0.011945392773583125,1.399
0.011951243183301112,1.4
0.011957124851628928,1.401
0.011963055494634944,1.402
0.01196905326845021,1.403
0.011975131973612123,1.404
0.011981299164909295,1.405
0.011987558558830673,1.406
0.01199391449146575,1.407
0.012000375524263281,1.408
0.012006956028528274,1.409
0.012013675493936843,1.41
0.012020555528216355,1.411
0.012027615426386595,1.412
0.012034868976836312,1.413
0.012042325134900562,1.414
0.01204999194159405,1.415
0.012057880651321372,1.416
0.012066007887652105,1.417
0.012074395279340717,1.418
0.012083066791787285,1.419
0.01209204452407955,1.42
0.012101344875693469,1.421
0.01211097764855312,1.422
0.012120948726952815,1.423
0.01213126418883208,1.424
0.012141933495972793,1.425
0.012152970777013146,1.426
0.012164393911317633,1.427
0.012176221391431213,1.428
0.012188467998001062,1.429
0.012201142125075799,1.43
0.012214247040981688,1.431
0.012227784834352813,1.432
0.012241760004322524,1.433
0.012256180969900478,1.434
0.012271059213449871,1.435
0.012286406353714275,1.436
0.012302230119443508,1.437
0.012318531362686163,1.438
0.012335304226481273,1.439
0.01235253923023541,1.44
0.012370227057821368,1.441
0.012388361211125356,1.442
0.012406938737931136,1.443
0.012425958698775382,1.444
0.0124454186152698,1.445
0.012465310754991113,1.446
0.012485621382554702,1.447
0.012506334037252853,1.448
0.012527434310825893,1.449
0.012548913152921445,1.45
0.01257076757143545,1.451
0.012592998736744817,1.452
0.012615607912011297,1.453
0.012638591656546452,1.454
0.012661939378203035,1.455
0.012685635318488465,1.456
0.012709663339235537,1.457
0.012734011493492821,1.458
0.012758674776069949,1.459
0.012783655438322388,1.46
0.012808960578543195,1.461
0.012834597467731503,1.462
0.012860568859277981,1.463
0.012886871758580068,1.464
0.012913500625870863,1.465
0.012940452051175454,1.466
0.012967727677586083,1.467
0.012995334336353515,1.468
0.013023281611211112,1.469
0.013051577520793469,1.47
0.013080224037279,1.471
0.013109215262709016,1.472
0.013138539519823989,1.473
0.013168183270016906,1.474
0.013198134084716803,1.475
0.013228381450482343,1.476
0.013258915109991595,1.477
0.01328972147029045,1.478
0.01332078040098506,1.479
0.013352065341891428,1.48
0.013383546896602231,1.481
0.013415197095862457,1.482
0.013446991757769337,1.483
0.013478910121218617,1.484
0.013510931928381082,1.485
0.01354303302041327,1.486
0.013575181956380116,1.487
0.01360734019914954,1.488
0.013639465720111084,1.489
0.013671517604687844,1.49
0.013703459729010508,1.491
0.013735262816056998,1.492
0.013766904593518278,1.493
0.013798367868972747,1.494
0.013829636544644365,1.495
0.013860690555593443,1.496
0.013891502491930151,1.497
0.01392203833096378,1.498
0.013952261272679851,1.499
0.013982135622246,1.5
0.014011628896152945,1.501
0.014040711969931898,1.502
0.014069357729379254,1.503
0.014097538846389736,1.504
0.014125225243832354,1.505
0.014152381636095291,1.506
0.014178965362657675,1.507
0.014204924656724283,1.508
0.014230197498742953,1.509
0.01425471119887174,1.51
0.014278382731332865,1.511
0.014301119591375956,1.512
0.014322820649562603,1.513
0.014343376265148724,1.514
0.014362667396450165,1.515
0.014380565145437604,1.516
0.014396933172973352,1.517
0.01441163360432174,1.518
0.014424534555302434,1.519
0.01443551690615421,1.52
0.014444478635862342,1.521
0.014451335714805896,1.522
0.014456019270786356,1.523
0.014458469470867038,1.524
0.014458627715241269,1.525
0.014456430750826182,1.526
0.0144518104941177,1.527
0.014444699483865389,1.528
0.014435038336698498,1.529
0.014422782178619566,1.53
0.014407904933260803,1.531
0.014390400985374334,1.532
0.014370283837647588,1.533
0.014347581621561169,1.534
0.014322329690231133,1.535
0.014294562325411719,1.536
0.01426430863460343,1.537
0.014231596026712303,1.538
0.014196458144848444,1.539
0.014158941965288425,1.54
0.014119111674649125,1.541
0.014077048986954778,1.542
0.014032850149508199,1.543
0.013986620264164194,1.544
0.013938466071899068,1.545
0.01388848976052685,1.546
0.013836787224563373,1.547
0.013783451454016793,1.548
0.013728577783051277,1.549
0.013672267640333434,1.55
0.013614629723392611,1.551
0.013555778729952906,1.552
0.013495832108567899,1.553
0.013434905461388574,1.554
0.01337310787143625,1.555
0.013310539542492793,1.556
0.013247293139911626,1.557
0.013183457173046427,1.558
0.013119118807106913,1.559
0.01305436484258373,1.56
0.012989280552912447,1.561
0.0129239467911442,1.562
0.012858437259041865,1.563
0.012792818469861198,1.564
0.012727152735200788,1.565
0.012661501821048471,1.566
0.01259592899153066,1.567
0.012530498714525998,1.568
0.012465274217911292,1.569
0.012400313885272,1.57
0.012335668731663599,1.571
0.012271383023744004,1.572
0.012207497633927786,1.573
0.012144053944462552,1.574
0.012081096653599322,1.575
0.012018674798177927,1.576
0.011956840678208914,1.577
0.011895646641559364,1.578
0.01183514083883168,1.579
0.011775364900597092,1.58
0.011716355588735657,1.581
0.01165814869710684,1.582
0.011600782101439278,1.583
0.011544296578959607,1.584
0.011488734428143481,1.585
0.011434136394606642,1.586
0.0113805380290533,1.587
0.011327967490892583,1.588
0.011276446207705047,1.589
0.011225991497344061,1.59
0.011176619201858702,1.591
0.011128345208028871,1.592
0.011081185486002697,1.593
0.011035154509518485,1.594
0.010990262531583533,1.595
0.010946513504157124,1.596
0.01090390562277776,1.597
0.010862434280842883,1.598
0.010822095277815476,1.599
0.010782886524260588,1.6
0.010744807696152435,1.601
0.010707857962047923,1.602
0.010672032670956963,1.603
0.010637321099369672,1.604
0.010603707140259908,1.605
0.010571172437000622,1.606
0.010539699867156627,1.607
0.010509275856184892,1.608
0.010479890915996026,1.609
0.010451538188862047,1.61
0.01042421021101961,1.611
0.010397895333764383,1.612
0.010372576456203163,1.613
0.010348233217163804,1.614
0.010324845638381227,1.615
0.010302396675095249,1.616
0.010280872748033722,1.617
0.010260262320356326,1.618
0.010240552888102087,1.619
0.01022172746925037,1.62
0.01020376278780452,1.621
0.010186630632082574,1.622
0.010170301275763516,1.623
0.010154746898273653,1.624
0.010139943923808657,1.625
0.010125873834494498,1.626
0.010112522145602452,1.627
0.010099875461249635,1.628
0.010087917575061497,1.629
0.010076627356263362,1.63
0.010065980542128884,1.631
0.010055954163394479,1.632
0.01004653086620552,1.633
0.01003770173378974,1.634
0.010029467353038567,1.635
0.010021837190048398,1.636
0.010014827462477902,1.637
0.010008457749864504,1.638
0.010002746821900397,1.639
0.009997709062002837,1.64
0.009993353513531946,1.641
0.009989686005622228,1.642
0.009986712406084907,1.643
0.009984440923613147,1.644
0.009982882757223074,1.645
0.009982051205633018,1.646
0.009981959673825183,1.647
0.009982619225734195,1.648
0.009984036359261084,1.649
0.00998621151166457,1.65
0.009989138501285586,1.651
0.009992804794309085,1.652
0.009997192276142382,1.653
0.01000227816652693,1.654
0.01000803580970004,1.655
0.010014435192530582,1.656
0.010021443097978653,1.657
0.010029022762803081,1.658
0.010037132833376797,1.659
0.010045725820575958,1.66
0.01005474738264917,1.661
0.010064137901379878,1.662
0.010073836087999952,1.663
0.010083783045026879,1.664
0.010093925470842403,1.665
0.010104217292168026,1.666
0.010114619395729395,1.667
0.010125097482404921,1.668
0.010135618351317757,1.669
0.010146145699554637,1.67
0.010156637864919944,1.671
0.01016704929119933,1.672
0.010177334531229501,1.673
0.010187452289951339,1.674
0.010197368045183723,1.675
0.01020705464011023,1.676
0.010216490528213103,1.677
0.010225655876564151,1.678
0.010234528280670528,1.679
0.010243081417445796,1.68
0.010251288128413538,1.681
0.010259125458894644,1.682
0.010266578401250127,1.683
0.01027364102378106,1.684
0.010280314915479887,1.685
0.010286605336306912,1.686
0.0102925163413447,1.687
0.01029804755947414,1.688
0.010303194852348405,1.689
0.010307953991321856,1.69
0.010312324641738091,1.691
0.010316312886118633,1.692
0.01031993174978761,1.693
0.010323199650047693,1.694
0.010326136947208242,1.695
0.010328761632849346,1.696
0.010331086666802809,1.697
0.01033312094662516,1.698
0.01033487278178944,1.699
0.010336353128130171,1.7
0.01033757696368525,1.701
0.010338562462330702,1.702
0.010339328157095741,1.703
0.010339889178530423,1.704
0.010340255061017482,1.705
0.010340430985268803,1.706
0.010340421322616072,1.707
0.010340232937027533,1.708
0.010339876755030411,1.709
0.010339367146637935,1.71
0.010338719118324386,1.711
0.010337944432808069,1.712
0.010337049487914635,1.713
0.010336036942711888,1.714
0.010334909552500614,1.715
0.010333673344238032,1.716
0.010332338759382546,1.717
0.010330919588955557,1.718
0.010329429921511778,1.719
0.010327880275584966,1.72
0.010326275649552094,1.721
0.010324617410447691,1.722
0.010322907582905638,1.723
0.010321152788481601,1.724
0.010319366373133274,1.725
0.01031756824771054,1.726
0.010315782329624197,1.727
0.010314032331383975,1.728
0.010312338347302812,1.729
0.0103107170552314,1.73
0.010309185513766167,1.731
0.010307765774238326,1.732
0.010306487953441516,1.733
0.010305391082295542,1.734
0.010304521884429598,1.735
0.010303931920789593,1.736
0.010303673645610864,1.737
0.010303796253425358,1.738
0.01030434296066013,1.739
0.010305351056791633,1.74
0.010306854030312495,1.741
0.010308883787271858,1.742
0.010311471659636886,1.743
0.010314647945637412,1.744
0.01031844025259955,1.745
0.010322871201759067,1.746
0.010327956187976965,1.747
0.010333701802452997,1.748
0.01034010524893765,1.749
0.010347154721519832,1.75
0.010354830424066873,1.751
0.010363105835931672,1.752
0.010371948982935525,1.753
0.010381323715966125,1.754
0.010391191130611035,1.755
0.010401511177435053,1.756
0.010412244271080721,1.757
0.010423352450956195,1.758
0.010434799507861796,1.759
0.010446549545021252,1.76
0.010458564169134555,1.761
0.010470800252358681,1.762
0.010483210881726737,1.763
0.010495749753169005,1.764
0.010508376673131835,1.765
0.010521061950573228,1.766
0.010533788793578903,1.767
0.010546553579585657,1.768
0.010559364210755658,1.769
0.01057223696198581,1.77
0.010585192269953952,1.771
0.010598249977763088,1.772
0.010611425231770425,1.773
0.010624727003895789,1.774
0.010638159903031711,1.775
0.010651727439328634,1.776
0.010665434646130062,1.777
0.010679289414182506,1.778
0.010693302713571258,1.779
0.010707488064679662,1.78
0.010721860655829274,1.781
0.010736436405092661,1.782
0.010751231088433453,1.783
0.010766259492531205,1.784
0.010781534492485468,1.785
0.010797066040504772,1.786
0.01081286020112893,1.787
0.010828918430109262,1.788
0.010845237182425875,1.789
0.010861807698602658,1.79
0.010878615580437154,1.791
0.010895639833485817,1.792
0.010912851953936818,1.793
0.010930216706062193,1.794
0.01094769553932185,1.795
0.010965251630360865,1.796
0.010982854801028974,1.797
0.011000485108068768,1.798
0.011018134437555345,1.799
0.011035805867445384,1.8
0.01105351101506343,1.801
0.011071265910413687,1.802
0.011089086070613274,1.803
0.011106981978889293,1.804
0.011124957020618413,1.805
0.011143008863340931,1.806
0.011161132668761209,1.807
0.011179323995609136,1.808
0.011197580538221941,1.809
0.011215902524488168,1.81
0.011234291752814254,1.811
0.011252749465349864,1.812
0.011271273467638695,1.813
0.011289855122068414,1.814
0.011308476999778517,1.815
0.011327111660561707,1.816
0.011345721423201978,1.817
0.011364259019952498,1.818
0.011382669286785385,1.819
0.011400891621378823,1.82
0.011418862530186244,1.821
0.011436517701127512,1.822
0.011453793209272015,1.823
0.01147062552032469,1.824
0.011486949997182375,1.825
0.011502698191979152,1.826
0.011517795854699149,1.827
0.011532164311371332,1.828
0.011545725569761333,1.829
0.011558408831605648,1.83
0.011570155968152954,1.831
0.011580924609519191,1.832
0.011590688189112085,1.833
0.01159943279663345,1.834
0.01160715124131188,1.835
0.011613836143930653,1.836
0.01161947607144082,1.837
0.011624057527741394,1.838
0.011627570754865693,1.839
0.011630015367897534,1.84
0.011631403796258686,1.841
0.011631762040048328,1.842
0.011631127682941222,1.843
0.011629545447970867,1.844
0.01162706125990376,1.845
0.011623717165577424,1.846
0.01161954993545263,1.847
0.01161459352843964,1.848
0.0116088825436502,1.849
0.011602454141404364,1.85
0.011595347955792526,1.851
0.011587604493730183,1.852
0.011579262660873656,1.853
0.011570356994305841,1.854
0.011560915027493398,1.855
0.011550955212484833,1.856
0.01154048588271532,1.857
0.01152950520828067,1.858
0.011518001345651884,1.859
0.011505952334067317,1.86
0.011493326295553824,1.861
0.011480082427922207,1.862
0.011466172270609207,1.863
0.01145154028498167,1.864
0.01143612336500732,1.865
0.011419850118004624,1.866
0.011402641549386297,1.867
0.011384413766482747,1.868
0.011365081631099722,1.869
0.011344562075077055,1.87
0.011322776548925847,1.871
0.011299652502039669,1.872
0.011275123850551402,1.873
0.01124913031111616,1.874
0.011221615339706956,1.875
0.011192522562219415,1.876
0.011161792100867334,1.877
0.011129360253586098,1.878
0.011095164501896444,1.879
0.01105915153338158,1.88
0.011021284612100272,1.881
0.010981548250825474,1.882
0.010939949342066614,1.883
0.010896514508973998,1.884
0.010851284038712978,1.885
0.010804303920086342,1.886
0.01075561976021817,1.887
0.010705276688376102,1.888
0.0106533251010639,1.889
0.010599828016006313,1.89
0.010544866392023037,1.891
0.01048854111500214,1.892
0.010430971491073719,1.893
0.010372290620787263,1.894
0.010312638509527574,1.895
0.010252154921985097,1.896
0.010190975561234914,1.897
0.01012923345009975,1.898
0.010067062985695959,1.899
0.010004603182814606,1.9
0.009941998973867449,1.901
0.009879400817999559,1.902
0.009816963042437349,1.903
0.009754841305861227,1.904
0.009693189467724602,1.905
0.009632156484276481,1.906
0.009571884736933687,1.907
0.009512510615564976,1.908
0.009454166133797359,1.909
0.009396979679484392,1.91
0.00934107522994628,1.911
0.009286570930264214,1.912
0.00923357871070319,1.913
0.009182205405258692,1.914
0.009132553849054486,1.915
0.00908472255084016,1.916
0.009038804606295903,1.917
0.008994887822898751,1.918
0.008953056780090342,1.919
0.008913395445656313,1.92
0.008875988786361172,1.921
0.008840922940876073,1.922
0.008808284191055818,1.923
0.008778157118017209,1.924
0.008750622370518754,1.925
0.008725754732352573,1.926
0.008703622452544173,1.927
0.008684288112903874,1.928
0.008667810118982077,1.929
0.00865424381128261,1.93
0.008643641900820133,1.931
0.008636054322943804,1.932
0.008631527691971605,1.933
0.008630104568679431,1.934
0.008631822715234064,1.935
0.008636714411481367,1.936
0.008644805784318279,1.937
0.008656116104488291,1.938
0.008670657270013558,1.939
0.008688433884697035,1.94
0.008709443962301106,1.941
0.008733679716493347,1.942
0.008761127785367598,1.943
0.008791768758719657,1.944
0.008825576917696082,1.945
0.008862521446068073,1.946
0.008902569092938578,1.947
0.008945686921686815,1.948
0.008991843761309877,1.949
0.009041009613507919,1.95
0.009093153232610892,1.951
0.0091482397341366,1.952
0.009206230765001521,1.953
0.009267087606378985,1.954
0.00933077499857663,1.955
0.009397263531703497,1.956
0.009466529857331894,1.957
0.009538554815636358,1.958
0.009613319967446268,1.959
0.009690803619612033,1.96
0.009770978126078928,1.961
0.009853809479018592,1.962
0.009939258040552824,1.963
0.010027278506267228,1.964
0.01011781879027779,1.965
0.010210819467753972,1.966
0.010306215107639285,1.967
0.01040393661505454,1.968
0.01050391282239455,1.969
0.010606070451795784,1.97
0.01071033243781237,1.971
0.01081661566724224,1.972
0.01092483035982204,1.973
0.011034882434326624,1.974
0.011146677839245432,1.975
0.011260127199266699,1.976
0.011375150006032002,1.977
0.011491677897991617,1.978
0.011609656400634086,1.979
0.011729044435231432,1.98
0.011849811051182256,1.981
0.011971929628759868,1.982
0.012095372120748191,1.983
0.012220107762955327,1.984
0.012346107699908909,1.985
0.012473351814434689,1.986
0.012601833476076567,1.987
0.01273156062219652,1.988
0.012862553238419675,1.989
0.012994837971544217,1.99
0.013128441372564945,1.991
0.013263384313679603,1.992
0.013399680071907076,1.993
0.013537336039360854,1.994
0.0136763566409921,1.995
0.01381674557630125,1.996
0.013958506980561426,1.997
0.014101645410428658,1.998
0.014246164346340427,1.999
0.014392063105065902,2.0
0.014539333456185608,2.001
0.0146879589286588,2.002
0.014837918447642475,2.003
0.014989192420869333,2.004
0.015141768434156051,2.005
0.015295645074064187,2.006
0.015450833189342204,2.007
0.015607354136292283,2.008
0.01576523490456885,2.009
0.015924501297846283,2.01
0.01608517286343175,2.011
0.016247263332517775,2.012
0.016410785823774702,2.013
0.016575758581485047,2.014
0.016742208263677606,2.015
0.01691017026311117,2.016
0.017079686645276607,2.017
0.017250802577205227,2.018
0.017423562072765592,2.019
0.01759800360241449,2.02
0.01777415589729645,2.021
0.017952034640946392,2.022
0.018131641308525157,2.023
0.01831296457056513,2.024
0.018495982957363558,2.025
0.018680667204106025,2.026
0.01886698149342942,2.027
0.019054883141209202,2.028
0.01924432040635324,2.029
0.01943522952620699,2.03
0.0196275343926177,2.031
0.019821151296476373,2.032
0.020015996819238595,2.033
0.020211995067403496,2.034
0.02040908173235563,2.035
0.020607203620296655,2.036
0.02080631301090273,2.037
0.021006359025330247,2.038
0.021207283171145733,2.039
0.021409025012293685,2.04
0.02161153491547331,2.041
0.021814786378009397,2.042
0.022018783443602127,2.043
0.02222356175635404,2.044
0.02242918326844159,2.045
0.02263572585336446,2.046
0.022843270337248638,2.047
0.023051889315506075,2.048
0.023261642568555126,2.049
0.02347257948941526,2.05
0.02368474380683295,2.051
0.02389817655765828,2.052
0.024112916690881375,2.053
0.024328999960991686,2.054
0.02454645665574392,2.055
0.02476530858985272,2.056
0.024985565786154355,2.057
0.025207223353554943,2.058
0.02543025915565467,2.059
0.025654632823659183,2.06
0.025880286436500533,2.061
0.02610714679679865,2.062
0.026335128781011664,2.063
0.026564138879563246,2.064
0.02679407789348655,2.065
0.027024841874060318,2.066
0.027256320729109974,2.067
0.027488394328418524,2.068
0.027720927109382718,2.069
0.02795376456983501,2.07
0.028186735372042634,2.071
0.028419659013521514,2.072
0.028652355815873352,2.073
0.028884656318727303,2.074
0.029116408271982884,2.075
0.029347479708807116,2.076
0.029577756896612597,2.077
0.029807136734366312,2.078
0.03003551498741858,2.079
0.030262775602566343,2.08
0.030488788394447144,2.081
0.03071341668978145,2.082
0.03093652880255651,2.083
0.031158007166245588,2.084
0.031377753102983845,2.085
0.03159568708587568,2.086
0.031811744636934446,2.087
0.03202586828409821,2.088
0.03223799640849133,2.089
0.03244805197380043,2.09
0.0326559373129236,2.091
0.032861538168772714,2.092
0.033064732179581335,2.093
0.03326539525031792,2.094
0.03346340343038308,2.095
0.03365863055505081,2.096
0.033850942731799456,2.097
0.03404019132150592,2.098
0.034226206281557266,2.099
0.03440879156080468,2.1
0.03458772367580637,2.101
0.03476275376829987,2.102
0.03493361254867248,2.103
0.03510001676304323,2.104
0.035261675296425266,2.105
0.03541829279619754,2.106
0.03556956882046619,2.107
0.03571519195262309,2.108
0.03585483320710147,2.109
0.035988147762046695,2.11
0.036114789502289725,2.111
0.03623443284209631,2.112
0.03634679350368197,2.113
0.036451643233829024,2.114
0.0365488156222655,2.115
0.0366382012760217,2.116
0.03671973204383864,2.117
0.03679335768946605,2.118
0.036859026595688425,2.119
0.036916685253453936,2.12
0.03696629822593494,2.121
0.03700787505074154,2.122
0.03704149112647425,2.123
0.03706729785021232,2.124
0.037085521508896706,2.125
0.03709645199348405,2.126
0.037100423574850466,2.127
0.037097790607776675,2.128
0.037088903799494775,2.129
0.03707409745996115,2.13
0.03705369378219465,2.131
0.03702801713933014,2.132
0.03699740772160423,2.133
0.036962230313956644,2.134
0.0369228781393125,2.135
0.03687977225896404,2.136
0.03683335709837747,2.137
0.03678409266108016,2.138
0.03673244401802999,2.139
0.0366788688008402,2.14
0.03662380514257174,2.141
0.03656766537708423,2.142
0.036510838318055364,2.143
0.03645369567493513,2.144
0.03639659645408888,2.145
0.03633988714718581,2.146
0.03628389815155267,2.147
0.036228937812188215,2.148
0.036175286579467156,2.149
0.036123194048818676,2.15
0.03607287911359486,2.151
0.036024530434526934,2.152
0.03597830566616329,2.153
0.03593433167068264,2.154
0.03589270814522393,2.155
0.03585351376453825,2.156
0.03581681235192575,2.157
0.03578265742563646,2.158
0.03575109414791919,2.159
0.035722157983120915,2.16
0.03569586980298889,2.161
0.03567222904371988,2.162
0.03565120993550409,2.163
0.03563276507961194,2.164
0.03561683436065945,2.165
0.03560335381683486,2.166
0.035592261124764955,2.167
0.035583496613677226,2.168
0.035576999664775524,2.169
0.03557270095478265,2.17
0.03557051298179141,2.171
0.03557032486489238,2.172
0.035572006102606066,2.173
0.03557541661936172,2.174
0.03558041685854801,2.175
0.035586874229842226,2.176
0.03559466476704895,2.177
0.03560366996643835,2.178
0.03561376965396717,2.179
0.035624832318366016,2.18
0.035636705435779466,2.181
0.03564921002288499,2.182
0.03566214215522388,2.183
0.03567527937594811,2.184
0.035688388264144354,2.185
0.03570123158424864,2.186
0.035713574831082166,2.187
0.03572519194244128,2.188
0.035735869723068706,2.189
0.03574541039374211,2.19
0.035753631648832725,2.191
0.03576036363863577,2.192
0.035765442377778844,2.193
0.03576869932438854,2.194
0.035769949829922085,2.195
0.03576898863882996,2.196
0.03576559833261725,2.197
0.03575956610983143,2.198
0.03575070063099464,2.199
0.035738844918865455,2.2
0.035723884017748384,2.201
0.03570574674704006,2.202
0.03568440157300633,2.203
0.03565984732801434,2.204
0.035632100106997494,2.205
0.0356011779777078,2.206
0.035567086273390815,2.207
0.035529808690079406,2.208
0.03548930834462024,2.209
0.03544553676176012,2.21
0.03539844533524652,2.211
0.03534799600087939,2.212
0.035294170214543154,2.213
0.035236975785567705,2.214
0.03517645114177574,2.215
0.035112666728865975,2.216
0.03504572335109603,2.217
0.0349757472662631,2.218
0.03490288181741942,2.219
0.034827275487164314,2.22
0.034749068277597626,2.221
0.0346683829453595,2.222
0.03458532771734927,2.223
0.034500008943314335,2.224
0.03441254612180664,2.225
0.03432308370570732,2.226
0.03423179752896761,2.227
0.03413889493459369,2.228
0.03404460831601071,2.229
0.03394918268831087,2.23
0.0338528600797346,2.231
0.0337558673517423,2.232
0.03365841389005812,2.233
0.033560697681633216,2.234
0.03346291181016531,2.235
0.03336524565292483,2.236
0.03326787999611857,2.237
0.03317097889244463,2.238
0.033074684453027366,2.239
0.032979119010237576,2.24
0.03288439168472695,2.241
0.03279060320378576,2.242
0.032697845922517295,2.243
0.032606199099179056,2.244
0.032515722328164055,2.245
0.032426453359356226,2.246
0.03233841436067633,2.247
0.032251623677494096,2.248
0.032166107852335125,2.249
0.032081911175108405,2.25
0.03199910134057946,2.251
0.031917769860590195,2.252
0.03183802624155331,2.253
0.031759986026825344,2.254
0.03168375736334051,2.255
0.03160943679185583,2.256
0.03153712026535176,2.257
0.031466921959476465,2.258
0.03139898959039159,2.259
0.03133351088941058,2.26
0.03127071034205378,2.261
0.031210837499182634,2.262
0.031154149900738975,2.263
0.03110089600943304,2.264
0.03105130586134058,2.265
0.03100559258090726,2.266
0.030963959001613695,2.267
0.03092660274636089,2.268
0.03089371835884561,2.269
0.030865497399008034,2.27
0.03084212719645787,2.271
0.0308237886836158,2.272
0.030810653558697512,2.273
0.030802880936355793,2.274
0.030800613583499867,2.275
0.030803973796968465,2.276
0.030813059507420283,2.277
0.0308279423347393,2.278
0.03084866885767523,2.279
0.030875264019133,2.28
0.030907734685910765,2.281
0.030946072393113047,2.282
0.030990255069257226,2.283
0.031040247750741518,2.284
0.03109600244646488,2.285
0.031157457399313637,2.286
0.031224535928783048,2.287
0.03129714481072884,2.288
0.03137517184450483,2.289
0.03145848264595372,2.29
0.03154691865486072,2.291
0.03164029966680791,2.292
0.0317384319668376,2.293
0.0318411198219157,2.294
0.03194817727640557,2.295
0.032059437813229626,2.296
0.03217475980316332,2.297
0.03229402609130679,2.298
0.03241713686142119,2.299
0.03254399665290598,2.3
0.0326745012305995,2.301
0.0328085344532451,2.302
0.03294597920692648,2.303
0.03308673455150397,2.304
0.03323072914257651,2.305
0.033377926816759364,2.306
0.03352832409300338,2.307
0.03368194102240412,2.308
0.03383880799117462,2.309
0.03399895143890784,2.31
0.034162381175833624,2.311
0.034329081494420405,2.312
0.0344990070854413,2.313
0.034672082503042274,2.314
0.03484820274610198,2.315
0.03502723387190148,2.316
0.03520901410862745,2.317
0.0353933559614833,2.318
0.03558004916909604,2.319
0.035768863894889785,2.32
0.035959553425887414,2.321
0.036151855914242914,2.322
0.036345495181329034,2.323
0.03654018109551577,2.324
0.03673561033883764,2.325
0.03693146835213148,2.326
0.03712743284362255,2.327
0.03732317855128478,2.328
0.037518382163404515,2.329
0.037712725650818076,2.33
0.03790589596430479,2.331
0.038097579296454284,2.332
0.0382874508644619,2.333
0.03847516752235928,2.334
0.03866037225755525,2.335
0.03884271064675899,2.336
0.039021850697311136,2.337
0.03919749813556706,2.338
0.03936940298596964,2.339
0.03953735521591886,2.34
0.03970116873871086,2.341
0.03986065927895936,2.342
0.040015631950553146,2.343
0.040165890291279566,2.344
0.04031125795268664,2.345
0.040451595459892215,2.346
0.04058680280751066,2.347
0.04071680655670069,2.348
0.040841537857874394,2.349
0.04096091879175799,2.35
0.04107487067734092,2.351
0.04118333675452448,2.352
0.04128630149179661,2.353
0.04138379688860303,2.354
0.04147589458131243,2.355
0.041562686000262576,2.356
0.0416442584747757,2.357
0.04172068317056664,2.358
0.04179202451772945,2.359
0.04185836172314624,2.36
0.04191980761979648,2.361
0.041976518802174054,2.362
0.04202869625118016,2.363
0.04207657680799131,2.364
0.04212041696584024,2.365
0.042160472566615315,2.366
0.042196982314513055,2.367
0.04223016408571094,2.368
0.04226022441121941,2.369
0.042287372300354446,2.37
0.0423118297978272,2.371
0.04233383725661231,2.372
0.04235365346062284,2.373
0.0423715508486132,2.374
0.04238780618241495,2.375
0.04240268748825982,2.376
0.04241644113592765,2.377
0.04242928696497607,2.378
0.04244142534668005,2.379
0.04245305003462613,2.38
0.042464358450094976,2.381
0.04247555591968021,2.382
0.04248685338595737,2.383
0.04249845911034258,2.384
0.04251056659441329,2.385
0.04252334429379735,2.386
0.042536933918555384,2.387
0.04255145824042188,2.388
0.04256703231223939,2.389
0.04258377212343884,2.39
0.0426017983748068,2.391
0.0426212348559424,2.392
0.042642201639383225,2.393
0.0426648042950962,2.394
0.0426891228832129,2.395
0.04271520728480726,2.396
0.04274308178982791,2.397
0.042772753938791576,2.398
0.04280422122450195,2.399
0.042837473335517816,2.4
0.042872489948795146,2.401
0.042909234660091874,2.402
0.04294764665595055,2.403
0.042987633708006,2.404
0.04302907027401263,2.405
0.043071800032780175,2.406
0.04311563763137258,2.407
0.04316036694122107,2.408
0.04320574081416663,2.409
0.04325148919250222,2.41
0.04329733504868794,2.411
0.043343011500650216,2.412
0.04338827382760232,2.413
0.043432902292118845,2.414
0.04347669355018507,2.415
0.04351944369200362,2.416
0.04356093580163068,2.417
0.043600945989361116,2.418
0.0436392664832688,2.419
0.04367573186082272,2.42
0.043710237445646824,2.421
0.04374274604061912,2.422
0.043773282677535774,2.423
0.04380191880848569,2.424
0.043828748522951065,2.425
0.04385386299636205,2.426
0.04387733583693071,2.427
0.0438992282155637,2.428
0.04391960693609953,2.429
0.04393856176128742,2.43
0.04395621453519171,2.431
0.043972718318559624,2.432
0.043988246868368996,2.433
0.0440029766737668,2.434
0.044017068011818594,2.435
0.04403065568911125,2.436
0.04404385368271063,2.437
0.04405676513107947,2.438
0.044069487861504504,2.439
0.044082113258565134,2.44
0.04409472028344245,2.441
0.04410736690805312,2.442
0.044120081340332636,2.443
0.04413285559895559,2.444
0.04414564324132672,2.445
0.04415836073131006,2.446
0.044170890621601934,2.447
0.04418308600439385,2.448
0.04419477712003888,2.449
0.04420578086135755,2.45
0.044215912921749506,2.451
0.04422500125064577,2.452
0.04423289855074177,2.453
0.04423949102755828,2.454
0.04424470068130802,2.455
0.044248479150947526,2.456
0.04425079234078533,2.457
0.04425160030308504,2.458
0.044250846225133984,2.459
0.04424846576389968,2.46
0.04424441037918196,2.461
0.04423866997661298,2.462
0.044231286981739774,2.463
0.044222360641543265,2.464
0.044212042741707855,2.465
0.04420052694428625,2.466
0.044188034245874766,2.467
0.04417479691297446,2.468
0.04416104287417308,2.469
0.04414698196014909,2.47
0.04413279503385327,2.471
0.044118627606132374,2.472
0.0441045895825275,2.473
0.044090760715228335,2.474
0.04407719941738815,2.475
0.04406395294760012,2.476
0.044051067824159705,2.477
0.04403859933290346,2.478
0.04402661884059428,2.479
0.04401521775182067,2.48
0.04400450725403127,2.481
0.043994613409525,2.482
0.04398566768532268,2.483
