VaMe,time
0.000723883310058155,0.001
-0.000314604853830078,0.002
-0.0012214910406290861,0.003
-0.0018520724444893142,0.004
-0.0021094565664461213,0.005
-0.0019715235316106966,0.006
-0.001468130902402979,0.007
-0.00065474916418941,0.008
0.0003715944381427829,0.009
0.0014504558928680029,0.01
0.0023746581070105796,0.011
0.0029258273628337203,0.012
0.0029085241531925377,0.013
0.0021979894246729613,0.014
0.0007977754188583049,0.015
-0.0011303779445958882,0.016
-0.0032844977051638565,0.017
-0.005274920620377568,0.018
-0.006706449855555192,0.019
-0.007286644071194129,0.02
-0.006912938672346293,0.021
-0.005679252541385484,0.022
-0.003812084607454233,0.023
-0.0015941298152484318,0.024
0.0006954225036303164,0.025
0.0028187331894634236,0.026
0.00459690603810265,0.027
0.00590592764130659,0.028
0.006647516898976089,0.029
0.006725074485830292,0.03
0.006062322011429425,0.031
0.004665050235481887,0.032
0.0026916373686953995,0.033
0.000472495328548948,0.034
-0.0015629121885673198,0.035
-0.0030166830616850555,0.036
-0.003630611896706909,0.037
-0.0033395082547523643,0.038
-0.0022846905683507465,0.039
-0.0007816963986113091,0.04
0.0007683110530897933,0.041
0.001993870642596695,0.042
0.002648782658682663,0.043
0.002657259436418198,0.044
0.002097776123382487,0.045
0.0011424266554793225,0.046
1.8359204788829976e-06,0.047
-0.0010895927579639441,0.048
-0.0018836496932532404,0.049
-0.0021729242362002544,0.05
-0.0018705509669980013,0.051
-0.001057037875552025,0.052
3.896236047946701e-05,0.053
0.001117232134344012,0.054
0.0019044841715022147,0.055
0.002236296395337269,0.056
0.002089447714315725,0.057
0.0015539610066466697,0.058
0.0007766425669779025,0.059
-8.125415457669405e-05,0.06
-0.000868812330711632,0.061
-0.001466543889715951,0.062
-0.0017940464047415555,0.063
-0.001805690800254877,0.064
-0.0015028649447391565,0.065
-0.0009639560049933153,0.066
-0.0003517938967622876,0.067
0.000125151199718927,0.068
0.0002709314173614002,0.069
-4.405305612277957e-05,0.07
-0.0008314579299526203,0.071
-0.0019509875690276108,0.072
-0.0031220696701188926,0.073
-0.004008339036677031,0.074
-0.004364748459061494,0.075
-0.004145053179964088,0.076
-0.0034689563577430587,0.077
-0.0024908799042840405,0.078
-0.0013104096547013637,0.079
1.0708256243614224e-05,0.08
0.0013996237010487403,0.081
0.0027749690371327795,0.082
0.004081870607575314,0.083
0.005294988231137758,0.084
0.0063689513972713906,0.085
0.007189632860201987,0.086
0.00759682792151726,0.087
0.007456751026028923,0.088
0.006708875821718723,0.089
0.005369357103749452,0.09
0.0035133814066732917,0.091
0.001268995458008517,0.092
-0.0011505380726357737,0.093
-0.0034324587962503367,0.094
-0.005246572270866459,0.095
-0.006368902458493392,0.096
-0.006749461388824294,0.097
-0.0065021205457795935,0.098
-0.0058242011395931315,0.099
-0.004904120005854669,0.1
-0.003890122161977761,0.101
-0.0029020452707592234,0.102
-0.0020317715837832474,0.103
-0.0013270841272828421,0.104
-0.0007834732533608147,0.105
-0.0003549248020442358,0.106
1.3424451726808698e-05,0.107
0.0003441200333516443,0.108
0.0006159020092448375,0.109
0.0007914625439250752,0.11
0.0008644740480343397,0.111
0.0008972371446597725,0.112
0.0010061667734978757,0.113
0.0012977124761276641,0.114
0.001811539009726894,0.115
0.0024992434883399934,0.116
0.0032347731941439373,0.117
0.0038511000159831064,0.118
0.0041846377775518785,0.119
0.00411525321083718,0.12
0.0035973934811998065,0.121
0.0026788152813440203,0.122
0.0015151114821906702,0.123
0.0003525975698134745,0.124
-0.0005642373126242512,0.125
-0.0011170455775246254,0.126
-0.0013579417298920833,0.127
-0.0014375478369070109,0.128
-0.001499956671558128,0.129
-0.0016187082742503828,0.13
-0.0017744642252219085,0.131
-0.001865020834213279,0.132
-0.0017567500088911468,0.133
-0.0013724014519782726,0.134
-0.0007667150102966094,0.135
-0.00013904378658885112,0.136
0.00023780910147209886,0.137
0.00015668048773481147,0.138
-0.0004124260600736882,0.139
-0.0013276947089427775,0.14
-0.0023582550571667844,0.141
-0.003256967825547069,0.142
-0.003799227372437048,0.143
-0.003812977798534741,0.144
-0.0032206428011443376,0.145
-0.0020761139510749615,0.146
-0.00055030503016684,0.147
0.0011455728323030365,0.148
0.002833327036207371,0.149
0.00437887443272861,0.15
0.0056650264657554334,0.151
0.006573678889886854,0.152
0.006995277769552683,0.153
0.006862708017370047,0.154
0.006183382575145384,0.155
0.005042403011718149,0.156
0.0035748085193292247,0.157
0.0019197454004155144,0.158
0.0001871070115968193,0.159
-0.0015445366925765083,0.16
-0.003217368914321634,0.161
-0.004772433013033031,0.162
-0.006112521234565201,0.163
-0.007096060190399399,0.164
-0.007580585139054213,0.165
-0.00746575118682274,0.166
-0.00671827293850834,0.167
-0.005403886085126942,0.168
-0.0037115979205710192,0.169
-0.0019314212557596036,0.17
-0.0003773868384946661,0.171
0.0007281358283438253,0.172
0.001353206714942239,0.173
0.001647541463790235,0.174
0.0018164871737041384,0.175
0.0019817102535807088,0.176
0.0021229406880094144,0.177
0.002123546517703173,0.178
0.0018862764836204968,0.179
0.0014341987101806053,0.18
0.0009273831100313092,0.181
0.000604740180219734,0.182
0.0006898809747460901,0.183
0.0012976371909815287,0.184
0.0023864322366920934,0.185
0.003772554926930824,0.186
0.005178078228775282,0.187
0.006279674340436062,0.188
0.006761344108825598,0.189
0.006390653162948341,0.19
0.005095048670732094,0.191
0.0029962006284907578,0.192
0.00039706579123987033,0.193
-0.002267730351101735,0.194
-0.0045220683607668,0.195
-0.0059726884456637735,0.196
-0.006413626595468279,0.197
-0.005858423528908505,0.198
-0.004514280438344124,0.199
-0.0027276413020689396,0.2
-0.0009026420440562409,0.201
0.0005937051433633127,0.202
0.0015065284502321216,0.203
0.001731906474929076,0.204
0.0013254163037289585,0.205
0.00048157825729224163,0.206
-0.0005215053050227367,0.207
-0.001395123374896023,0.208
-0.001911755227073359,0.209
-0.0019690010301584224,0.21
-0.001616543401704309,0.211
-0.0010262362612671668,0.212
-0.0004198621501565201,0.213
1.7299229937896545e-05,0.214
0.0001968660289533599,0.215
0.00013933971841728564,0.216
-6.001252373663816e-05,0.217
-0.0003032589940326547,0.218
-0.0005581763460000682,0.219
-0.000864626394902989,0.22
-0.0012770371859103847,0.221
-0.0017976291775164237,0.222
-0.002346034104874667,0.223
-0.0027756728605412787,0.224
-0.0029233857983626296,0.225
-0.0026642469966003906,0.226
-0.001951159116612401,0.227
-0.0008390574888809339,0.228
0.000511193882325921,0.229
0.0018709586178178054,0.23
0.003024408226264918,0.231
0.0038420240481574957,0.232
0.004299003922817443,0.233
0.004446664602089459,0.234
0.00436305445541592,0.235
0.004105181627960531,0.236
0.0036989095666059655,0.237
0.003167590908512826,0.238
0.0025531340435398747,0.239
0.0018997488463412158,0.24
0.0012239092328934515,0.241
0.0005295465879240643,0.242
-0.00012550809521776632,0.243
-0.0005956034541425704,0.244
-0.0007085475759463874,0.245
-0.00038119514096085055,0.246
0.0003053910912572862,0.247
0.001125468217376475,0.248
0.001797052881520162,0.249
0.002083910050143406,0.25
0.0018725303356442772,0.251
0.001194886161973438,0.252
0.00018542934427126992,0.253
-0.0009960408332687397,0.254
-0.0022122677259075888,0.255
-0.0033502152295301355,0.256
-0.004327659944838994,0.257
-0.005110692406685526,0.258
-0.005692106610823534,0.259
-0.006042912473378918,0.26
-0.006095568366300002,0.261
-0.005770915346805974,0.262
-0.005027408930542834,0.263
-0.003909995334948918,0.264
-0.00256261803520908,0.265
-0.0011825505665472229,0.266
5.440986063758461e-05,0.267
0.0010534989227881987,0.268
0.001824995099401769,0.269
0.0024540570603534726,0.27
0.003020234759789693,0.271
0.003530241671466673,0.272
0.003914608550783513,0.273
0.004084350762799904,0.274
0.00401061125251017,0.275
0.0037552891715354002,0.276
0.0034212788296593593,0.277
0.003082125115372486,0.278
0.002755966765840062,0.279
0.0024303450908594437,0.28
0.002099834016789092,0.281
0.0017733442881394635,0.282
0.0014480527567592675,0.283
0.0010981481329483658,0.284
0.000713101380157242,0.285
0.00034033185933340536,0.286
7.051738028621413e-05,0.287
-2.194195889210448e-05,0.288
7.122673844158589e-05,0.289
0.0002826476822569488,0.29
0.0004926677679467866,0.291
0.0005617272290010518,0.292
0.00036578076815887826,0.293
-0.0001610001008574467,0.294
-0.0009940704688724629,0.295
-0.0020266905224882474,0.296
-0.0031245967769728982,0.297
-0.004189319971767486,0.298
-0.005174843105072431,0.299
-0.006043044159989331,0.3
-0.0067032059511965515,0.301
-0.007002387080794262,0.302
-0.006787501884861952,0.303
-0.0059832638953294616,0.304
-0.004624655616107119,0.305
-0.0028463781063630266,0.306
-0.0008460274873267828,0.307
0.0011800179862525672,0.308
0.0030934773333986436,0.309
0.004814483809308594,0.31
0.006278525314036756,0.311
0.007404863446923226,0.312
0.008097253132060346,0.313
0.008264634165410291,0.314
0.007851499091183463,0.315
0.006871977022356205,0.316
0.005442815495654823,0.317
0.00378806829519984,0.318
0.002175150541742451,0.319
0.0008029128883969013,0.32
-0.0002692602296602686,0.321
-0.0010933666413753072,0.322
-0.0017498183189676882,0.323
-0.002290738273330238,0.324
-0.002725940355491185,0.325
-0.0030270180840364304,0.326
-0.0031546582179808108,0.327
-0.0031122166478283553,0.328
-0.0029863317685775497,0.329
-0.0029307536451287264,0.33
-0.0030866456535664157,0.331
-0.0034902076542735446,0.332
-0.0040402432254464625,0.333
-0.004536903266445472,0.334
-0.0047459691520007835,0.335
-0.004462297801143057,0.336
-0.003569875530573231,0.337
-0.002079526803493644,0.338
-0.00012024537241488182,0.339
0.002106717961878647,0.34
0.004370639289164861,0.341
0.006427490509772578,0.342
0.008020008602161437,0.343
0.008881928706507104,0.344
0.008772222282361956,0.345
0.007553155750236474,0.346
0.005284995678797892,0.347
0.002282547931112152,0.348
-0.0009139615433184581,0.349
-0.0036676498450509006,0.35
-0.0054516591203493244,0.351
-0.006064632663233083,0.352
-0.005727955683893059,0.353
-0.0049619936434862864,0.354
-0.004285054267488924,0.355
-0.003937981307313705,0.356
-0.00382010062116703,0.357
-0.0036201979949265963,0.358
-0.003007317276519707,0.359
-0.0017885968171223797,0.36
6.532743555778807e-06,0.361
0.0021167561892875553,0.362
0.004103906785842386,0.363
0.0054880664264627885,0.364
0.0059385361668152035,0.365
0.005411717593946968,0.366
0.004142410034837091,0.367
0.0025145113843930557,0.368
0.0009027312673395574,0.369
-0.00044469759354545934,0.37
-0.0014372633475282412,0.371
-0.002085739130795711,0.372
-0.002415392750358044,0.373
-0.0024222664419528447,0.374
-0.002094845975245927,0.375
-0.001451348383458819,0.376
-0.0005444966986865364,0.377
0.0005572527538847183,0.378
0.0017674981477700863,0.379
0.0029405295445197547,0.38
0.0038369403292239346,0.381
0.00415467753838775,0.382
0.0036416913306410617,0.383
0.002241775658798427,0.384
0.0001716502369360072,0.385
-0.002130957609442512,0.386
-0.004152570262058589,0.387
-0.005470079344699433,0.388
-0.005874582022436391,0.389
-0.0054106587713500095,0.39
-0.00432367109599607,0.391
-0.0029425312322073622,0.392
-0.0015522699779012808,0.393
-0.00031295744450450156,0.394
0.0007444400636479621,0.395
0.0016613629330104668,0.396
0.0024821588098156854,0.397
0.003205951007180697,0.398
0.003785239119499709,0.399
0.004172125657137598,0.4
0.004352288745179054,0.401
0.004312973884066923,0.402
0.003986750686606879,0.403
0.0032631221505855933,0.404
0.00207711891722508,0.405
0.0005020197973694066,0.406
-0.00121845948442148,0.407
-0.0027366144395652697,0.408
-0.003745653944612138,0.409
-0.00411219599044959,0.41
-0.003917628472710882,0.411
-0.003399987503049325,0.412
-0.0028362769511595105,0.413
-0.002422260500856845,0.414
-0.0022068928988218032,0.415
-0.0021073653829041914,0.416
-0.0019787686470387825,0.417
-0.0016819378545677053,0.418
-0.0011164379876972474,0.419
-0.0002367487902635782,0.42
0.0009164803946553281,0.421
0.002183487759459073,0.422
0.0033096704428940207,0.423
0.004036871227509627,0.424
0.004199190086103623,0.425
0.003784996556285434,0.426
0.0029483373229046714,0.427
0.0019443153634953736,0.428
0.0010236502898214044,0.429
0.0003521693926877797,0.43
-3.7976721025429836e-05,0.431
-0.0002622241269504244,0.432
-0.0005227622555924645,0.433
-0.0009798472611544323,0.434
-0.0016395571287387632,0.435
-0.002338655050645055,0.436
-0.0028330347554397046,0.437
-0.0029285646404345936,0.438
-0.0025586281604361907,0.439
-0.0017640464588505095,0.44
-0.000641129605568517,0.441
0.0006820844844233526,0.442
0.002049872955173086,0.443
0.003282208793254106,0.444
0.004200160545427847,0.445
0.004663736950969312,0.446
0.004578975676883933,0.447
0.003888177020361172,0.448
0.0025970070152695024,0.449
0.0008227418600813111,0.45
-0.0012090736216802235,0.451
-0.0032290455187207207,0.452
-0.004990936279496243,0.453
-0.006307373344655247,0.454
-0.007056205883974254,0.455
-0.0071660757892593125,0.456
-0.006598277530923574,0.457
-0.005342439404282199,0.458
-0.0034317948325188912,0.459
-0.0009763679794314669,0.46
0.001808780333927929,0.461
0.004615155567800877,0.462
0.007089320593860052,0.463
0.008893721179406112,0.464
0.00977702294879833,0.465
0.009641741020186882,0.466
0.0085613518350572,0.467
0.006717753166645552,0.468
0.0043047622863961535,0.469
0.00148681820866669,0.47
-0.0015506618965695827,0.471
-0.004534575200687955,0.472
-0.0071128452860785675,0.473
-0.008918999623371249,0.474
-0.009637655440647739,0.475
-0.009079927660511461,0.476
-0.007266842255619782,0.477
-0.004464984025589451,0.478
-0.0011416971184455699,0.479
0.002125670698773746,0.48
0.004742865084155326,0.481
0.006196551084992318,0.482
0.006159364314858316,0.483
0.004569265125778961,0.484
0.0016610359395786488,0.485
-0.0020404274415391156,0.486
-0.005769250541919706,0.487
-0.008646690560911045,0.488
-0.00989830331925321,0.489
-0.009095811136980186,0.49
-0.006309867789374899,0.491
-0.0020938031208711507,0.492
0.0026895695641247393,0.493
0.007121288839955941,0.494
0.010455397929191054,0.495
0.012241143999642259,0.496
0.012336953956266248,0.497
0.010871969333519301,0.498
0.008199174420153775,0.499
0.004835893896189256,0.5
0.0013627675895864536,0.501
-0.0017062423773458516,0.502
-0.004026207069249834,0.503
-0.0054627362137014066,0.504
-0.006076381527728049,0.505
-0.006047148465254447,0.506
-0.005558529099680922,0.507
-0.004722522274256127,0.508
-0.0035934248982968857,0.509
-0.0022335480155069067,0.51
-0.0007895181083596352,0.511
0.0004639356334224809,0.512
0.0011757154929729553,0.513
0.001084186686505784,0.514
0.00021346067031679895,0.515
-0.0010549099469735431,0.516
-0.002110722208527072,0.517
-0.0023644803092729727,0.518
-0.0014824232436849948,0.519
0.0004861126621657301,0.52
0.003121470281347121,0.521
0.00577818331348001,0.522
0.007812168283193896,0.523
0.00879158106667246,0.524
0.008601598292700598,0.525
0.007419958399136604,0.526
0.0055957397743443315,0.527
0.003489503748632918,0.528
0.001333643072643657,0.529
-0.000841695170521427,0.53
-0.0031722961741205476,0.531
-0.005795622177292644,0.532
-0.00864822792069405,0.533
-0.011370905614933615,0.534
-0.013387534887192399,0.535
-0.014123320940178118,0.536
-0.013254373945884076,0.537
-0.01085270102089031,0.538
-0.007355334363477316,0.539
-0.003387423299520878,0.54
0.0004637122127023781,0.541
0.00381255581979034,0.542
0.0064988853155093914,0.543
0.008480576019498929,0.544
0.009716271345730124,0.545
0.010143649552513845,0.546
0.009727942618328279,0.547
0.008507808662680907,0.548
0.006613519758430571,0.549
0.004258858272077459,0.55
0.0017225775649418367,0.551
-0.0006664038718214609,0.552
-0.002565253596209526,0.553
-0.003677994635830034,0.554
-0.0038039821914281555,0.555
-0.0028797736013159146,0.556
-0.0010176996921046895,0.557
0.0014905254030824927,0.558
0.004200477631935378,0.559
0.00656092933771754,0.56
0.007997065530495825,0.561
0.008045864964545311,0.562
0.006525664484915527,0.563
0.003645472486836312,0.564
-5.120103261236737e-05,0.565
-0.0038799653116782084,0.566
-0.007218099898036673,0.567
-0.00962874097434926,0.568
-0.010894643131974092,0.569
-0.010994776675845726,0.57
-0.010071393525820316,0.571
-0.008394301641157726,0.572
-0.006297669175169216,0.573
-0.004111366997730644,0.574
-0.0021327252304803803,0.575
-0.0006148750041868087,0.576
0.00029008145226807675,0.577
0.0006117914491092078,0.578
0.0005699981660693469,0.579
0.0004800278867708918,0.58
0.0006277848232507159,0.581
0.0011962015445201462,0.582
0.0022761023787459633,0.583
0.003921700537187246,0.584
0.006163553864966713,0.585
0.008929301758736295,0.586
0.011904082821126436,0.587
0.014444830878622004,0.588
0.01566633016725231,0.589
0.014708748152005078,0.59
0.011094454331402812,0.591
0.005027701594207487,0.592
-0.00252567500843515,0.593
-0.010069349966123459,0.594
-0.016031256500452947,0.595
-0.019206475112814776,0.596
-0.019021443869149862,0.597
-0.015614019912963377,0.598
-0.00976803840408165,0.599
-0.002736518405361247,0.6
0.004008922263103611,0.601
0.009076736566054549,0.602
0.011471989780131251,0.603
0.0108632740751124,0.604
0.007684184667729283,0.605
0.0029762252266729407,0.606
-0.0019779065032457465,0.607
-0.0060453807296643345,0.608
-0.008496349136648425,0.609
-0.009071623527140164,0.61
-0.007902799249556808,0.611
-0.005379698706427759,0.612
-0.0020366255663781412,0.613
0.0015420706718294887,0.614
0.004798759510979166,0.615
0.0072537167951481135,0.616
0.008544419661454597,0.617
0.00847217809007459,0.618
0.0070588829635296075,0.619
0.004582578158773329,0.62
0.0015437822969543,0.621
-0.0014425482138908932,0.622
-0.00378873118640913,0.623
-0.005068614600809075,0.624
-0.005111439238995968,0.625
-0.004030957992705819,0.626
-0.002186398299173543,0.627
-9.22451742807767e-05,0.628
0.0017103117061891783,0.629
0.0027989087048559697,0.63
0.002973418531846624,0.631
0.0022762790079299713,0.632
0.0009475948732012922,0.633
-0.000648326950930916,0.634
-0.002113278417156362,0.635
-0.0031155477907002346,0.636
-0.003454506578170598,0.637
-0.003067855713064865,0.638
-0.002029192705801901,0.639
-0.000553738242483826,0.64
0.0010336106169916807,0.641
0.0023866684408488936,0.642
0.0032461058530645344,0.643
0.003511772925403483,0.644
0.003235253113875207,0.645
0.002554350160760078,0.646
0.0016448864556296802,0.647
0.0007116681698780223,0.648
-3.670639491730647e-05,0.649
-0.00046067830067163804,0.65
-0.0005658532953768817,0.651
-0.0005123054798991572,0.652
-0.0005200451720981169,0.653
-0.0007237200307491389,0.654
-0.0010971848433255777,0.655
-0.0015047874709155416,0.656
-0.0018095946283364943,0.657
-0.0019229468758698767,0.658
-0.001781390619438764,0.659
-0.0013516093507031912,0.66
-0.0007020533018143838,0.661
-3.794557263104037e-05,0.662
0.00039053649837340925,0.663
0.000432658346550686,0.664
0.00010334406638219526,0.665
-0.0004444090735216375,0.666
