VaMe,time
0.00023054875946335968,0.001
-0.0006350807236022333,0.002
-0.0014584494656697399,0.003
-0.0021997199322295277,0.004
-0.0028135975175890334,0.005
-0.003250667429542512,0.006
-0.003462348893436128,0.007
-0.003397967766099979,0.008
-0.003003417051230768,0.009
-0.002238749964992678,0.01
-0.0011245649025567734,0.011
0.0002092797556859765,0.012
0.0015195492384805116,0.013
0.002509728813820466,0.014
0.002927380820751482,0.015
0.0026544789579182387,0.016
0.0017548709404771067,0.017
0.000459387913402213,0.018
-0.0008923131134951766,0.019
-0.00192654926630195,0.02
-0.0023353548675173557,0.021
-0.0019969368936903252,0.022
-0.0010557455575723022,0.023
0.00011404415190491605,0.024
0.0010653676342775203,0.025
0.001457754108108718,0.026
0.0011604424120383522,0.027
0.00026278657878709484,0.028
-0.0009731563599103307,0.029
-0.0021868005997083308,0.03
-0.0030182112361624705,0.031
-0.0032275992623666525,0.032
-0.0027843333279801035,0.033
-0.0018630719047074411,0.034
-0.0007526679361493148,0.035
0.00024788008127961115,0.036
0.0009050146414964595,0.037
0.0011113571333985486,0.038
0.0009219100593437442,0.039
0.0005317283040161288,0.04
0.00019854241220160576,0.041
0.00015072366222144084,0.042
0.0005135951387542361,0.043
0.0012762290279570254,0.044
0.0023100957562636943,0.045
0.003411942900846603,0.046
0.004333857611487053,0.047
0.00482105117030435,0.048
0.004689990453856648,0.049
0.003897079855695267,0.05
0.002538515177002601,0.051
0.0008101141617212803,0.052
-0.0010306264882807478,0.053
-0.00270582854587017,0.054
-0.0039730564953339605,0.055
-0.00467977877570209,0.056
-0.0047869997635021505,0.057
-0.004356386354969847,0.058
-0.003523496637820364,0.059
-0.0024646706729793497,0.06
-0.0013401154977973277,0.061
-0.0002304869485349187,0.062
0.0008824748828127288,0.063
0.002076434164002141,0.064
0.003403039980841747,0.065
0.004794876200432612,0.066
0.006031746499743295,0.067
0.006788883284937609,0.068
0.006739324438883813,0.069
0.0056758417977343135,0.07
0.0036165041083704207,0.071
0.0008557688988415535,0.072
-0.0020828880575263615,0.073
-0.00460268259556605,0.074
-0.00623073287152251,0.075
-0.006754516083297479,0.076
-0.006246075273390894,0.077
-0.0049969357966478944,0.078
-0.0033976375331182035,0.079
-0.001800329204193536,0.08
-0.00043909158697204596,0.081
0.0005570860358347433,0.082
0.0011083852556988936,0.083
0.0011550746739203478,0.084
0.0006929791483997329,0.085
-0.00016760801322953333,0.086
-0.0012041930503548061,0.087
-0.0021585143910176938,0.088
-0.0028257425325087797,0.089
-0.0030943965327693023,0.09
-0.002936390740463458,0.091
-0.00238779511340602,0.092
-0.0015282228134688575,0.093
-0.0004537274458420774,0.094
0.0007453176571866514,0.095
0.001989939024499103,0.096
0.0032080090513325324,0.097
0.004334192149181878,0.098
0.005306796838956401,0.099
0.006052901415835285,0.1
0.006467216405074644,0.101
0.0063989501126877485,0.102
0.005684133952239546,0.103
0.004236537893201015,0.104
0.0021373008235134753,0.105
-0.00034564607996462625,0.106
-0.0028161212669934486,0.107
-0.004854781915403523,0.108
-0.006133634972442605,0.109
-0.006500108891160279,0.11
-0.00599425495986928,0.111
-0.004789656192792622,0.112
-0.0030986598109679435,0.113
-0.0011098078620156455,0.114
0.0009990944144716298,0.115
0.0030055166695598665,0.116
0.004634539300347318,0.117
0.0056274954747392554,0.118
0.005823412365525931,0.119
0.00519237467409901,0.12
0.00382560188033479,0.121
0.0019112325938714322,0.122
-0.0003034575041157595,0.123
-0.0025410143423205828,0.124
-0.004483781398665267,0.125
-0.005776648635956377,0.126
-0.006107160283741551,0.127
-0.00533267025351407,0.128
-0.003571285024704748,0.129
-0.001203324369058851,0.13
0.0012286392916808823,0.131
0.003192603874124294,0.132
0.004331023313459567,0.133
0.004540368805153299,0.134
0.003957685990699586,0.135
0.0028715867054014293,0.136
0.001591483443739478,0.137
0.0003570776383678578,0.138
-0.0006706928669509076,0.139
-0.0013985357036200793,0.14
-0.0018111042947180423,0.141
-0.00196529114743475,0.142
-0.0019495827789295856,0.143
-0.0018426348514775084,0.144
-0.0016960927844482348,0.145
-0.0015362404017971092,0.146
-0.0013772732444537685,0.147
-0.0012307577819381064,0.148
-0.0010843870907642993,0.149
-0.0008747779579706876,0.15
-0.0005163780633014038,0.151
2.9560317627190786e-05,0.152
0.0007246751652640198,0.153
0.0014880313856939571,0.154
0.0022457354113684515,0.155
0.002927598884088438,0.156
0.0034162036040908837,0.157
0.0035354975215166904,0.158
0.00311997906765075,0.159
0.0021139691915002426,0.16
0.0006277638411955175,0.161
-0.0010979671284107077,0.162
-0.0027927269426551737,0.163
-0.0042327394505068585,0.164
-0.005251277476481164,0.165
-0.005723295574824214,0.166
-0.005569280530277574,0.167
-0.004769086685935785,0.168
-0.0033631914064153803,0.169
-0.001445132685449849,0.17
0.0008371959062890526,0.171
0.003260910604606339,0.172
0.005525630941837019,0.173
0.007316027873573201,0.174
0.0083946829048595,0.175
0.008654792641697521,0.176
0.008121400553245034,0.177
0.006934836071478228,0.178
0.0053200165619519315,0.179
0.003517740150482851,0.18
0.0017025988656170033,0.181
-4.508616318665876e-05,0.182
-0.0016927522818844251,0.183
-0.003193709547624688,0.184
-0.004462843167183876,0.185
-0.00539140373191816,0.186
-0.005899271139251794,0.187
-0.005989118876869094,0.188
-0.005746005628796433,0.189
-0.005288066196045058,0.19
-0.004709241300554382,0.191
-0.004060896578478042,0.192
-0.003387474123986817,0.193
-0.0027590419244415297,0.194
-0.002251995281623149,0.195
-0.001895212210898406,0.196
-0.0016276213371434762,0.197
-0.0013057766997901998,0.198
-0.0007743519586759138,0.199
4.176270513082265e-05,0.2
0.0011009530628918534,0.201
0.002280711644355737,0.202
0.0034287288285084335,0.203
0.0043937684071020345,0.204
0.0050515297061939825,0.205
0.005332683935766457,0.206
0.005233728019181226,0.207
0.004805965617902252,0.208
0.004137330603868333,0.209
0.0033390141646524765,0.21
0.002531696593282139,0.211
0.001809701470455527,0.212
0.0011976987146889444,0.213
0.000653767586728864,0.214
0.00012605453721844454,0.215
-0.0003949523646669364,0.216
-0.0008699038514000188,0.217
-0.001230654665542053,0.218
-0.0014107832631775024,0.219
-0.0013894946794707288,0.22
-0.0012176252552599607,0.221
-0.001004180467985973,0.222
-0.0008767655908997489,0.223
-0.0009186477622036364,0.224
-0.0011087413415344796,0.225
-0.0013212802449749687,0.226
-0.0013943980461488344,0.227
-0.0012227862830419785,0.228
-0.0008214744036668912,0.229
-0.0003192686436668625,0.23
0.00010714839021906318,0.231
0.0002981650478247601,0.232
0.00014464073227651386,0.233
-0.00040585777109281446,0.234
-0.0013492928893590105,0.235
-0.002590535373648835,0.236
-0.0038877327330948245,0.237
-0.004860069543578698,0.238
-0.005105903912927892,0.239
-0.004382397858624199,0.24
-0.0027317076402368027,0.241
-0.00046954297823470975,0.242
0.0019381194442686205,0.243
0.004028606162088083,0.244
0.005468263847618494,0.245
0.006114231299283803,0.246
0.006000014434262074,0.247
0.005275948709107419,0.248
0.004152957552978301,0.249
0.0028625649653396647,0.25
0.001605974310264061,0.251
0.0005004896683633762,0.252
-0.00042102178836252673,0.253
-0.0011589395533200852,0.254
-0.0017069764008519656,0.255
-0.0020511417909591105,0.256
-0.0021814171102930557,0.257
-0.0020943460450561844,0.258
-0.001790161275108734,0.259
-0.001267546620028915,0.26
-0.0005382864782570688,0.261
0.00032863880202570374,0.262
0.0011918987308142802,0.263
0.0018832278760981401,0.264
0.002265167996677997,0.265
0.0022542573732609195,0.266
0.0018172404619653496,0.267
0.0009716545144693671,0.268
-0.0002036347151059339,0.269
-0.0015526776707615417,0.27
-0.002833068003379865,0.271
-0.003749249752609631,0.272
-0.0040406402912579525,0.273
-0.0035756639388377937,0.274
-0.0023969765328800607,0.275
-0.000716384676143166,0.276
0.0011299634188612197,0.277
0.002773042793347434,0.278
0.003918192972865419,0.279
0.0044066321351224165,0.28
0.004218111548798492,0.281
0.00345325230951395,0.282
0.0023149702887993104,0.283
0.0010676453209273163,0.284
-4.399276817219466e-05,0.285
-0.0008862352101391953,0.286
-0.0014767178618614403,0.287
-0.0019473064034597881,0.288
-0.0024429715678019456,0.289
-0.0030076160075343437,0.29
-0.003549869390274132,0.291
-0.0039106320572259625,0.292
-0.003948695517642071,0.293
-0.0035851201403288083,0.294
-0.0028143754360942393,0.295
-0.0017053663348597593,0.296
-0.00039942176393795923,0.297
0.0009129208130856491,0.298
0.0020609186216919285,0.299
0.0029681661459967307,0.3
0.0036385346608667694,0.301
0.004071207029603198,0.302
0.0042207865492364565,0.303
0.004025067457473013,0.304
0.0034519421836950274,0.305
0.0025424392184120147,0.306
0.0014260938941539794,0.307
0.0002886135872751902,0.308
-0.0006835752241236048,0.309
-0.0013390173592455804,0.31
-0.0015779893022386862,0.311
-0.0013734166170521155,0.312
-0.0007886544388990473,0.313
2.6230510136663663e-05,0.314
0.0008645321658724268,0.315
0.0015050347616628753,0.316
0.001753638575866048,0.317
0.001491245465176449,0.318
0.0007198977011476657,0.319
-0.0004172650740250446,0.32
-0.001664754996095629,0.321
-0.002736850996750552,0.322
-0.003403486059110496,0.323
-0.0035346053049234456,0.324
-0.003125465711097851,0.325
-0.0023089536929148517,0.326
-0.001320457557931493,0.327
-0.0004229478128533852,0.328
0.0001754439863593533,0.329
0.00039794097197817725,0.33
0.0003302730054729159,0.331
0.00015663551635845748,0.332
4.356286363577447e-05,0.333
6.931428181132148e-05,0.334
0.0002203229644440394,0.335
0.00042301186399368513,0.336
0.0005953990312155926,0.337
0.0007001619415851563,0.338
0.0007617223786155768,0.339
0.0008332549496955236,0.34
0.0009544141549640342,0.341
0.001133713351767486,0.342
0.0013465010643108509,0.343
0.0015465205080763527,0.344
0.001695079920755575,0.345
0.0017889892383153782,0.346
0.0018587838686666691,0.347
0.0019263442364511904,0.348
0.001949004583132615,0.349
0.0018083821027947593,0.35
0.001384008949541071,0.351
0.000662505715520254,0.352
-0.0002225893059916203,0.353
-0.0010484182688433078,0.354
-0.001599056566659452,0.355
-0.0017428649177297717,0.356
-0.0014646646333567363,0.357
-0.0008536462949284052,0.358
-6.476596089595225e-05,0.359
0.000727794585271023,0.36
0.0013735231871755474,0.361
0.0017690108755441137,0.362
0.0018506430666276352,0.363
0.0015841782319199376,0.364
0.000975077810386598,0.365
7.9575578724638e-05,0.366
-0.0009946372489813015,0.367
-0.0020984690790752,0.368
-0.0030792170105236613,0.369
-0.003826116446211126,0.37
-0.004273346242599795,0.371
-0.004371927060411453,0.372
-0.004080939259460028,0.373
-0.003391833488611156,0.374
-0.0023663875912618274,0.375
-0.0011466651262251539,0.376
9.112127920982068e-05,0.377
0.0012067114507932387,0.378
0.0021284274944014256,0.379
0.0028284621945270164,0.38
0.003276439629681346,0.381
0.003401459949710834,0.382
0.003074259552601257,0.383
0.0021233476184099724,0.384
0.00039483034509377266,0.385
-0.002128997225655464,0.386
-0.0051949667704217295,0.387
-0.008250141203307108,0.388
-0.010569631955890802,0.389
-0.011467002139555798,0.39
-0.010495125424117919,0.391
-0.007587281874210436,0.392
-0.003099950386050452,0.393
0.0022753113438936223,0.394
0.0077074060202219985,0.395
0.012454212812323166,0.396
0.016034724054164843,0.397
0.018265292390769947,0.398
0.01915949864347588,0.399
0.01878701960434295,0.4
0.017197274231507038,0.401
0.014451211013012359,0.402
0.010708021179827845,0.403
0.006260862015315734,0.404
0.0014955807369919538,0.405
-0.0031651453887061396,0.406
-0.0072983070916114974,0.407
-0.010512823895628931,0.408
-0.012498439858605642,0.409
-0.013098244094989461,0.41
-0.012381089077199372,0.411
-0.010668204489557208,0.412
-0.008474068550972599,0.413
-0.006358767827721875,0.414
-0.004766926792977971,0.415
-0.003941807412033906,0.416
-0.003900062544740295,0.417
-0.00442591898298289,0.418
-0.005128821933100241,0.419
-0.005591596508779458,0.42
-0.00552523247715983,0.421
-0.004842384339901334,0.422
-0.003648213848485246,0.423
-0.002173595648542016,0.424
-0.0006713060529208995,0.425
0.0006789424636813499,0.426
0.0018184367179514779,0.427
0.002803610012777833,0.428
0.003742335267275701,0.429
0.004696607046939708,0.43
0.005621545925391043,0.431
0.006375127319464957,0.432
0.006770491694633347,0.433
0.006649383086744509,0.434
0.005969246707698267,0.435
0.00486626665824069,0.436
0.0036369785120817506,0.437
0.0026149731479578144,0.438
0.002002490511563116,0.439
0.0017837439558783367,0.44
0.0017843404137496278,0.441
0.0018005732727141178,0.442
0.0016975901997945762,0.443
0.0014529171658769684,0.444
0.0011532992389830397,0.445
0.0009396354274915313,0.446
0.0009041297472262957,0.447
0.0009909946411772105,0.448
0.00098636465441083,0.449
0.0006355392522917304,0.45
-0.00017856853129799772,0.451
-0.0013279595240900221,0.452
-0.0024898577047423954,0.453
-0.0033147938264185034,0.454
-0.003597094279311905,0.455
-0.0033628852614372546,0.456
-0.0028503368912331023,0.457
-0.002395381469155945,0.458
-0.0022724432398785366,0.459
-0.0025767929852336226,0.46
-0.00321835510611139,0.461
-0.004014492265601056,0.462
-0.004809042307582987,0.463
-0.005544557301454698,0.464
-0.006250254767504622,0.465
-0.006963539048561277,0.466
-0.0076368091234729815,0.467
-0.008076378503579281,0.468
-0.007946114782231882,0.469
-0.006855788244372874,0.47
-0.004512725950623606,0.471
-0.0008623207330764146,0.472
0.0038521103435766786,0.473
0.009127742018108245,0.474
0.014302366722098614,0.475
0.018654647108171732,0.476
0.021494549124139575,0.477
0.022296140806502742,0.478
0.020860531664588802,0.479
0.01739968806380455,0.48
0.012481244980150085,0.481
0.006863408215239553,0.482
0.0012834210133333985,0.483
-0.003699121772757598,0.484
-0.0077428489704925735,0.485
-0.010687269085498491,0.486
-0.012485558358320128,0.487
-0.01314222623105811,0.488
-0.012713417105936027,0.489
-0.011378552331167403,0.49
-0.009496391342291362,0.491
-0.007551420353760168,0.492
-0.005990867086161698,0.493
-0.00504923832198281,0.494
-0.00465859334002385,0.495
-0.004481957518501501,0.496
-0.004056239277955364,0.497
-0.002982411949074435,0.498
-0.001084753947404519,0.499
0.0015121956538675105,0.5
0.004416588362967308,0.501
0.007086567687597589,0.502
0.008957076982799845,0.503
0.00956231807540897,0.504
0.008688281132388575,0.505
0.006498827297706514,0.506
0.0035224314397357334,0.507
0.00047258795756297206,0.508
-0.0020053292435918586,0.509
-0.0035206603684096683,0.51
-0.003990246979380885,0.511
-0.0035879591390728487,0.512
-0.0026409934233024754,0.513
-0.0015185765049429629,0.514
-0.0005508783507713899,0.515
2.1977276732850837e-05,0.516
9.013972629632224e-05,0.517
-0.00030063608100017224,0.518
-0.000957936260262486,0.519
-0.0015975788273423805,0.52
-0.0019367865182735708,0.521
-0.0017899221342038407,0.522
-0.0011339168376572736,0.523
-0.00012081092150782905,0.524
0.0009872670813291895,0.525
0.001937658603508155,0.526
0.0025914698090265843,0.527
0.0029658485817248338,0.528
0.0032010694220514723,0.529
0.0034563793666511234,0.53
0.0037876369855313736,0.531
0.0041079699134782465,0.532
0.004265378251902818,0.533
0.004142172327293483,0.534
0.0036817039745228944,0.535
0.0028609694878567577,0.536
0.0016748490464473745,0.537
0.00015334617126959687,0.538
-0.0015979196253977218,0.539
-0.0033493703368488426,0.54
-0.004743612403561757,0.541
-0.005397639462148225,0.542
-0.005078690996271148,0.543
-0.0038290753576549824,0.544
-0.0019561099520084843,0.545
8.484275480192292e-05,0.546
0.0018366409041407495,0.547
0.0029566791314487215,0.548
0.003279756404386851,0.549
0.00282291329559147,0.55
0.0017317890206634166,0.551
0.00021103853776454343,0.552
-0.0015143203883169326,0.553
-0.0032415246350712876,0.554
-0.004846772861594623,0.555
-0.006279525428164689,0.556
-0.007493401296754654,0.557
-0.0083910145495169,0.558
-0.008803109469335163,0.559
-0.008503651878091307,0.56
-0.007288241385229872,0.561
-0.005095194560845571,0.562
-0.0020815705155815835,0.563
0.00140658487331203,0.564
0.004938593219906768,0.565
0.008104218022240445,0.566
0.010572115180185748,0.567
0.012117855999902064,0.568
0.012657813862171784,0.569
0.01226785976714382,0.57
0.0111456582875829,0.571
0.00952959119880111,0.572
0.007631403658318661,0.573
0.005601218804622461,0.574
0.0035050889211399794,0.575
0.0013390125591422892,0.576
-0.0009066199913816236,0.577
-0.0031753057052256923,0.578
-0.005305176519809148,0.579
-0.00705510751348223,0.58
-0.008200004343284134,0.581
-0.008629078752534162,0.582
-0.00838227916359078,0.583
-0.0076298875504132516,0.584
-0.006617601391822374,0.585
-0.0055818761923030966,0.586
-0.004667268439145931,0.587
-0.003888696107215222,0.588
-0.003151464503163768,0.589
-0.0023185989345548795,0.59
-0.0012907711920243801,0.591
-5.9834054018790306e-05,0.592
0.0012855877263721934,0.593
0.0026095561012029612,0.594
0.0037987674448473436,0.595
0.004786194441939275,0.596
0.005517544271086571,0.597
0.005932766075764728,0.598
0.006006369270961161,0.599
0.005790528563531179,0.6
0.005398739322527448,0.601
0.004946602149231037,0.602
0.004497548907649345,0.603
0.004037106731372475,0.604
0.0034834802108213974,0.605
0.0027257695091286805,0.606
0.0016728506577680892,0.607
0.00029949849954075217,0.608
-0.0013272470542402457,0.609
-0.0030407734594484416,0.61
-0.00459192878972746,0.611
-0.005718299152255078,0.612
-0.006240464528432339,0.613
-0.006131380326641989,0.614
-0.0055542206039701945,0.615
-0.004834264774358194,0.616
-0.004304567925274513,0.617
-0.00410296207477611,0.618
-0.004089307727033126,0.619
-0.003952011304055669,0.62
-0.003426555373337225,0.621
-0.0024696727857933458,0.622
-0.0012757529386485584,0.623
-0.00015110749573566713,0.624
0.0006554495727535757,0.625
0.0010801731822383004,0.626
0.0012850962517579122,0.627
0.0015928232112912243,0.628
0.00234128427626116,0.629
0.003728675629422598,0.63
0.005707850010608228,0.631
0.007944610470803769,0.632
0.00985460696629667,0.633
0.010760896893308922,0.634
0.010158554406241067,0.635
0.007961816594919352,0.636
0.004569053272768529,0.637
0.0006996213734796196,0.638
-0.002864633298974575,0.639
-0.005497114766999858,0.64
-0.006863103539619444,0.641
-0.006952003326807362,0.642
-0.006006290378893669,0.643
-0.0044025350712397545,0.644
-0.0025363695870348427,0.645
-0.0007330106994707466,0.646
0.0008016771679727764,0.647
0.001982016937429082,0.648
0.0027956469412792895,0.649
0.003228575793389751,0.65
0.003221578967110985,0.651
0.0027011328826751784,0.652
0.001660123093760042,0.653
0.0002232434577765759,0.654
-0.0013556225320683001,0.655
-0.0027701607702239894,0.656
-0.0037753869635379165,0.657
-0.004275254805299236,0.658
-0.004335548638399365,0.659
-0.004119759386651139,0.66
-0.003790319290671146,0.661
-0.003442729618416007,0.662
-0.0030950420478583203,0.663
-0.0027016451622817106,0.664
-0.002187644696098771,0.665
-0.0015109241404800548,0.666
-0.0007009978303268483,0.667
0.0001668504333912237,0.668
