VaMe,time
-0.0002540371906525797,0.001
-0.008615282394399302,0.002
-0.015662106515562428,0.003
-0.020362945575540286,0.004
-0.022195841895925945,0.005
-0.02122430114948639,0.006
-0.017995791927891185,0.007
-0.013336513873414283,0.008
-0.008143826959856371,0.009
-0.003242091403659058,0.01
0.0006945030717232995,0.011
0.0032135249867608876,0.012
0.004169835262849028,0.013
0.0037604173330233136,0.014
0.0024621521031929286,0.015
0.0008889951833015542,0.016
-0.00037629627987389704,0.017
-0.000920422204790546,0.018
-0.0005724149297856513,0.019
0.000608733899393543,0.02
0.0023989352675731464,0.021
0.004477286249370789,0.022
0.006502691695189586,0.023
0.008186945410259956,0.024
0.009311834148888837,0.025
0.009703246293902242,0.026
0.00923960588747037,0.027
0.007913854843250516,0.028
0.005886915989358025,0.029
0.0034775453841344264,0.03
0.0010859542796251775,0.031
-0.0009245234716074799,0.032
-0.002351204912196096,0.033
-0.003210470362484984,0.034
-0.0036837159255347757,0.035
-0.003993778908454981,0.036
-0.004287841790152442,0.037
-0.00459714421720344,0.038
-0.004901135653205252,0.039
-0.005227597507385185,0.04
-0.005696330999682159,0.041
-0.006468606102280951,0.042
-0.007612670826979881,0.043
-0.008953917308593842,0.044
-0.01002309414315234,0.045
-0.010166500980783554,0.046
-0.008779095141555582,0.047
-0.005561870260431747,0.048
-0.0006998215479691094,0.049
0.005111357524949698,0.05
0.010808752464092719,0.051
0.015254801253200395,0.052
0.017613871776733726,0.053
0.017647636048771318,0.054
0.015733771727771118,0.055
0.012601431751267161,0.056
0.008980008396437514,0.057
0.00535811140727677,0.058
0.0019388346577795398,0.059
-0.001254993749568536,0.06
-0.004261390260101857,0.061
-0.007115452155851876,0.062
-0.009804195853135819,0.063
-0.012220600418894613,0.064
-0.014131095486631448,0.065
-0.01517630415479528,0.066
-0.014940434073846374,0.067
-0.01307613690836603,0.068
-0.009433901943302625,0.069
-0.004160729604027397,0.07
0.002268739223049776,0.071
0.009086097745162194,0.072
0.015275301580644076,0.073
0.019642277269474318,0.074
0.02104521056475575,0.075
0.018856872113513678,0.076
0.013418524588072916,0.077
0.0060937402324876275,0.078
-0.0012029917382877105,0.079
-0.006744178017532338,0.08
-0.009593048606053584,0.081
-0.009798853052338899,0.082
-0.00817029026886636,0.083
-0.005839348233363882,0.084
-0.0038504735823350197,0.085
-0.002883957446957028,0.086
-0.003135017072362981,0.087
-0.004329251508495506,0.088
-0.005838075300071515,0.089
-0.006887560387778826,0.09
-0.006815689547450693,0.091
-0.005271109394170465,0.092
-0.002305067472309228,0.093
0.001625257259411993,0.094
0.0057129313854426995,0.095
0.008924248888333139,0.096
0.01023880287616777,0.097
0.008976798999145066,0.098
0.005076552083738188,0.099
-0.0007907625074566274,0.1
-0.007282930589108079,0.101
-0.01261304864342873,0.102
-0.014957723985614587,0.103
-0.012997386066221191,0.104
-0.006437347793983784,0.105
0.0036910482852337183,0.106
0.015152712046232945,0.107
0.025119216020332825,0.108
0.03106450009959348,0.109
0.03154310192483991,0.11
0.02650740173272816,0.111
0.01710988531846379,0.112
0.005193649063635749,0.113
-0.00725210797457257,0.114
-0.018467308180800224,0.115
-0.027085163105626406,0.116
-0.032183724316674614,0.117
-0.033316392894001366,0.118
-0.030532537739039984,0.119
-0.024379252253776202,0.12
-0.015868677643889845,0.121
-0.006371101289285574,0.122
0.00258478719175175,0.123
0.009595722229313925,0.124
0.013720935602718014,0.125
0.014754924898802535,0.126
0.01328103325124549,0.127
0.010458297852827479,0.128
0.007601631965571006,0.129
0.005699613900219797,0.13
0.005098103154764596,0.131
0.005502375309842764,0.132
0.00624180844959495,0.133
0.006619007137297602,0.134
0.006188737140161182,0.135
0.0048843588078583446,0.136
0.002968102645099192,0.137
0.0008662869100023749,0.138
-0.0009757787201061622,0.139
-0.0021501245860855865,0.14
-0.0023367160767113707,0.141
-0.0014286228460821432,0.142
0.00037117429812108467,0.143
0.0026076776754183225,0.144
0.004721408628999924,0.145
0.006166268151272114,0.146
0.006489605553129082,0.147
0.005424688484346043,0.148
0.0029834328112534154,0.149
-0.000536982658862714,0.15
-0.0046471784989549235,0.151
-0.008773450602379327,0.152
-0.012335253121910235,0.153
-0.014809281419564528,0.154
-0.015807566015409686,0.155
-0.015181030847565816,0.156
-0.013094571210425641,0.157
-0.009982949510439855,0.158
-0.006399517703702814,0.159
-0.0028707014481068843,0.16
0.00019608110725064773,0.161
0.0025946272546754122,0.162
0.004383644182925407,0.163
0.0058290867988567184,0.164
0.00719253490131421,0.165
0.008505314252671448,0.166
0.00949156344260427,0.167
0.009675942494362886,0.168
0.008615447093758815,0.169
0.006172619864053089,0.17
0.0027124957274255765,0.171
-0.0009007430993991694,0.172
-0.003525076689136211,0.173
-0.0041025031396436824,0.174
-0.002047744485295714,0.175
0.002475573782801128,0.176
0.008489555201113086,0.177
0.01437978498998032,0.178
0.018292881804037965,0.179
0.018664576157117328,0.18
0.014740750755216882,0.181
0.006893809365098724,0.182
-0.0034353950283940587,0.183
-0.0141427668092486,0.184
-0.02303820960447479,0.185
-0.028399788307467942,0.186
-0.029331411112759498,0.187
-0.025860221063812992,0.188
-0.018827254188444748,0.189
-0.009642480261534381,0.19
2.1473043800602796e-05,0.191
0.008517060914512162,0.192
0.014466613019591693,0.193
0.017001995761955664,0.194
0.015989806670086218,0.195
0.01212327848243856,0.196
0.006754880872039181,0.197
0.0014797246107592147,0.198
-0.002353607873073253,0.199
-0.003987832056729814,0.2
-0.0033456817887932227,0.201
-0.0009077866313150716,0.202
0.002487890851744414,0.203
0.0058486344331556,0.204
0.00822180381169112,0.205
0.00887187218847263,0.206
0.007432483729283062,0.207
0.004007750145065784,0.208
-0.000829639819488064,0.209
-0.006155868872713978,0.21
-0.01087708498361835,0.211
-0.01392955346197884,0.212
-0.014490844081610091,0.213
-0.012162852690914312,0.214
-0.007072735624428449,0.215
0.00010792228347675189,0.216
0.00821789601579432,0.217
0.01577443996592715,0.218
0.02127491936261462,0.219
0.023544926503743138,0.22
0.02199526913826876,0.221
0.016732261237322514,0.222
0.008566663957176264,0.223
-0.00105020880213771,0.224
-0.0102469360982724,0.225
-0.01717870469830917,0.226
-0.02058477858346336,0.227
-0.02020886530026939,0.228
-0.01686968668492831,0.229
-0.012153665000502197,0.23
-0.007879436964538624,0.231
-0.005501892938194783,0.232
-0.005602732754437995,0.233
-0.007653599632618048,0.234
-0.010213054569548508,0.235
-0.011514466570883753,0.236
-0.010168078235481859,0.237
-0.005682327571562729,0.238
0.0013705224385048835,0.239
0.009571443053606528,0.24
0.01711170445924691,0.241
0.022318741758995026,0.242
0.0241441217064787,0.243
0.02247425811792091,0.244
0.01811529232700966,0.245
0.012427119859122988,0.246
0.0067498224491752135,0.247
0.001904663894576406,0.248
-0.0019544580115738695,0.249
-0.005077196691598151,0.25
-0.0076584654679122234,0.251
-0.00953971309403114,0.252
-0.010271995766623373,0.253
-0.009432756699157814,0.254
-0.0069377162555145895,0.255
-0.003177757018907463,0.256
0.0010352879082939181,0.257
0.004667768102292648,0.258
0.006767182762829105,0.259
0.006778554663122344,0.26
0.00472720762430786,0.261
0.0011872148192239326,0.262
-0.002917805907856261,0.263
-0.006567634521535561,0.264
-0.008865801489925417,0.265
-0.009233483358380602,0.266
-0.00760842542247629,0.267
-0.004561081797666049,0.268
-0.00112379773178692,0.269
0.00170397582878216,0.27
0.003437388545606058,0.271
0.004203140354286477,0.272
0.0044408439927993695,0.273
0.0044458558785484634,0.274
0.004041582224398777,0.275
0.002655653145588159,0.276
-0.00018289084752941655,0.277
-0.004322803295297449,0.278
-0.008869390259338465,0.279
-0.012488220285210945,0.28
-0.01390180621048559,0.281
-0.012357618893115905,0.282
-0.007899247953002711,0.283
-0.0013519437923140126,0.284
0.005942342790647174,0.285
0.012499902019891786,0.286
0.017044353412017193,0.287
0.018792104589121877,0.288
0.017640680830748965,0.289
0.014151277044986515,0.29
0.009299211222193902,0.291
0.00412990502599875,0.292
-0.0005171638776011396,0.293
-0.004134018434371416,0.294
-0.006533798587233283,0.295
-0.0077572594185201784,0.296
-0.007948763279945967,0.297
-0.0072839339945428485,0.298
-0.005980165235765098,0.299
-0.004317449952023305,0.3
-0.0026066271936260963,0.301
-0.0011170822124589527,0.302
-1.6929723018206124e-05,0.303
0.0006324383927061732,0.304
0.0008447607512424932,0.305
0.0006854087597038275,0.306
0.0002785590781733753,0.307
-0.00014953773358642103,0.308
-0.00025623672458935723,0.309
0.00031268841534381065,0.31
0.001758236904459881,0.311
0.004025927596336454,0.312
0.006767517179677136,0.313
0.009333141271581889,0.314
0.010866140151204184,0.315
0.010572095600967009,0.316
0.008039040730211895,0.317
0.0033987718592021275,0.318
-0.0027270084739153874,0.319
-0.009432822744446206,0.32
-0.015804776690386286,0.321
-0.02112156836035831,0.322
-0.024854788670528115,0.323
-0.026527738060081976,0.324
-0.025643362484701067,0.325
-0.021829011937137283,0.326
-0.015127223628572307,0.327
-0.006209167909958032,0.328
0.003687471523383455,0.329
0.013126971235864928,0.33
0.02091681169617228,0.331
0.026307311649560218,0.332
0.028946440804749136,0.333
0.02884754883880512,0.334
0.026455232881539885,0.335
0.022625134607573726,0.336
0.018349304416302416,0.337
0.014310506228937309,0.338
0.010570332140651657,0.339
0.006639319155036644,0.34
0.0018834069636867643,0.341
-0.004006702091061865,0.342
-0.010749830836415659,0.343
-0.01750311215015023,0.344
-0.02311120439960802,0.345
-0.026465699420916724,0.346
-0.02684927390000559,0.347
-0.024122792432531764,0.348
-0.018726155343567284,0.349
-0.011592384605486028,0.35
-0.004021387204156224,0.351
0.002570431977705614,0.352
0.007064731449456737,0.353
0.009059708139467184,0.354
0.009014639314671809,0.355
0.007978810217037568,0.356
0.0070831386688602746,0.357
0.007114406910645337,0.358
0.008303029958283734,0.359
0.0102700881147775,0.36
0.012127098173637335,0.361
0.012785606618927005,0.362
0.01139299038149719,0.363
0.007664437854753856,0.364
0.001965404577371404,0.365
-0.004817974278802564,0.366
-0.011490162317956716,0.367
-0.016783652040414477,0.368
-0.019679672742988364,0.369
-0.019741581285262357,0.37
-0.01722940585723508,0.371
-0.01290232884913568,0.372
-0.007655924990576261,0.373
-0.002236040534861537,0.374
0.0028528377575023876,0.375
0.0073138215302900895,0.376
0.010978163165184145,0.377
0.013727049878108258,0.378
0.015446533391116554,0.379
0.01598846182100222,0.38
0.015162449700945354,0.381
0.012858669651118013,0.382
0.009269359226190028,0.383
0.004992432693467914,0.384
0.0008529968722306077,0.385
-0.0024823223486795556,0.386
-0.004823489492794012,0.387
-0.00642799178918915,0.388
-0.007628798242616635,0.389
-0.00845190414156938,0.39
-0.008586209798842856,0.391
-0.0077463310959689875,0.392
-0.006066184471719474,0.393
-0.004164678510343702,0.394
-0.0028531215141451354,0.395
-0.0026659494837891653,0.396
-0.00348538786823893,0.397
-0.004512252025696219,0.398
-0.0046356957413139456,0.399
-0.003014738386274404,0.4
0.0004363009428671871,0.401
0.004959735932683844,0.402
0.009370013818626125,0.403
0.012698305993294062,0.404
0.014620430492424362,0.405
0.015441540684265533,0.406
0.015709038514784307,0.407
0.015694946726173015,0.408
0.015043467123515179,0.409
0.012828544888132164,0.41
0.008007464307638594,0.411
-3.143751226841e-05,0.412
-0.011057884990015102,0.413
-0.02377001707242767,0.414
-0.03584586766151944,0.415
-0.04443303327777216,0.416
-0.047045642682131183,0.417
-0.04250148252983651,0.418
-0.03137211298078604,0.419
-0.01570190084964005,0.42
0.0017286227382916053,0.421
0.0181323901048085,0.422
0.031228237260707635,0.423
0.03953424715272548,0.424
0.04247666063668907,0.425
0.040356918801026216,0.426
0.03417079698150157,0.427
0.02527536596215798,0.428
0.015008741733048234,0.429
0.004472009949140383,0.43
-0.00538918911384101,0.431
-0.013581432464271468,0.432
-0.019088368700822096,0.433
-0.02120354171075601,0.434
-0.01987900659093286,0.435
-0.01576918806516499,0.436
-0.009961980609829784,0.437
-0.003652943241556038,0.438
0.002027040509969252,0.439
0.006043143551120982,0.44
0.0075144563176816614,0.441
0.005951640441316961,0.442
0.0016642633752756957,0.443
-0.003934640247664317,0.444
-0.008538475325316017,0.445
-0.009806424166055356,0.446
-0.006489959513150197,0.447
0.0007959166353619165,0.448
0.009623541363602302,0.449
0.016719455239365372,0.45
0.019407173068085558,0.451
0.01672751080334621,0.452
0.009678303378090834,0.453
0.0006143341706631563,0.454
-0.00775439391408433,0.455
-0.01332813467934655,0.456
-0.01524356342454113,0.457
-0.013959779199102658,0.458
-0.010826507414208215,0.459
-0.007416335283795082,0.46
-0.004941122330686275,0.461
-0.003907038572762028,0.462
-0.004029525885833936,0.463
-0.004426535435598311,0.464
-0.0040653149703920415,0.465
-0.002282224822501771,0.466
0.0008754447989374667,0.467
0.004620328436989382,0.468
0.007753814310915253,0.469
0.009283782998685031,0.47
0.008979975079089266,0.471
0.007501328544993174,0.472
0.006050381317392167,0.473
0.005748488177506669,0.474
0.007034974275093018,0.475
0.00937184129546396,0.476
0.011386530830498127,0.477
0.011391618192726253,0.478
0.008044044483475184,0.479
0.0009059002926580926,0.48
-0.009199723121745928,0.481
-0.02012565737269987,0.482
-0.028816591539293248,0.483
-0.0322963733211727,0.484
-0.02890389937088116,0.485
-0.019089693605355805,0.486
-0.00526482612399354,0.487
0.009139331331484646,0.488
0.020832770344003933,0.489
0.02761378727348052,0.49
0.02885535938895556,0.491
0.025418051203802507,0.492
0.01906866416471845,0.493
0.011676023748227495,0.494
0.004609097823271049,0.495
-0.0013724174453036149,0.496
-0.0058928666791449,0.497
-0.008777212011882645,0.498
-0.010065599687382793,0.499
-0.010079773670449781,0.5
-0.009328003827655558,0.501
-0.00825390549708133,0.502
-0.007041614825346103,0.503
-0.005581828621018379,0.504
-0.0035489856142162483,0.505
-0.0006341172782258526,0.506
0.0030476121518672127,0.507
0.006662414015723126,0.508
0.008824547423228093,0.509
0.008226656351080532,0.51
0.004388705001177695,0.511
-0.001917737210025073,0.512
-0.008849995647283306,0.513
-0.014209545010373649,0.514
-0.016310444071392927,0.515
-0.014596870949643908,0.516
-0.009777148798688205,0.517
-0.0034296377381804496,0.518
0.002718389919518471,0.519
0.007438997208577953,0.52
0.010254744485509384,0.521
0.011291632741094036,0.522
0.010941897790386197,0.523
0.009502182939714039,0.524
0.006958637381333739,0.525
0.0030960601951006477,0.526
-0.002107757819831579,0.527
-0.00806352303303213,0.528
-0.013406578163573908,0.529
-0.016213025884762863,0.53
-0.014546081245284948,0.531
-0.007196788045590007,0.532
0.005577996380943807,0.533
0.021598243707839093,0.534
0.036939789171193164,0.535
0.04700281048357033,0.536
0.048169955509873706,0.537
0.0391658926757083,0.538
0.021437202157073076,0.539
-0.0013746208712289874,0.54
-0.024445819256807822,0.541
-0.042970961512379474,0.542
-0.053362945932129,0.543
-0.05418392445811249,0.544
-0.04646607493510579,0.545
-0.033285904943027037,0.546
-0.018713587449293627,0.547
-0.0064118449113982155,0.548
0.0015849708475349092,0.549
0.005280685204581655,0.55
0.006113192218547511,0.551
0.005826191986798358,0.552
0.005607638974373975,0.553
0.005934007553096677,0.554
0.006952194131748853,0.555
0.008871895623845542,0.556
0.011969014694497185,0.557
0.016240923470247942,0.558
0.021058843355171115,0.559
0.025147583261342758,0.56
0.02703704200207427,0.561
0.02579820334492294,0.562
0.021533045150125867,0.563
0.01521716324124624,0.564
0.008056803732663117,0.565
0.0009021721397253804,0.566
-0.005880776194114109,0.567
-0.012142946326279602,0.568
-0.017626460308979176,0.569
-0.02183055239779019,0.57
-0.024114016477963515,0.571
-0.023924879103867168,0.572
-0.021029054021802128,0.573
-0.015684933444211988,0.574
-0.008718433082336366,0.575
-0.0013957763952526087,0.576
0.004925267670743157,0.577
0.009211276260895056,0.578
0.011040242425270063,0.579
0.010614552749250144,0.58
0.00850929995614378,0.581
0.005363574425430646,0.582
0.001719278406205124,0.583
-0.0019433454144998016,0.584
-0.005075730166401456,0.585
-0.007022806273450117,0.586
-0.007176355282620793,0.587
-0.005223021232935103,0.588
-0.0013237935109338351,0.589
0.003875099950163655,0.59
0.009388264598393661,0.591
0.014024584175435529,0.592
0.01646551264425432,0.593
0.015582609905581208,0.594
0.011066344165106629,0.595
0.0038434148893270086,0.596
-0.0041906719118473545,0.597
-0.010977364112302554,0.598
-0.015105962099894475,0.599
-0.016166572280302043,0.6
-0.014581336058498501,0.601
-0.011243212675855239,0.602
-0.007243573892575277,0.603
-0.003648388961831032,0.604
-0.001231161563995127,0.605
-0.00026903697445816884,0.606
-0.0005513613020942524,0.607
-0.0015931233721469611,0.608
-0.002845902098702127,0.609
-0.0037321980646600897,0.61
-0.0036056276640728927,0.611
-0.0017862871875168813,0.612
0.0022812725182889643,0.613
0.008739302150386914,0.614
0.01699167596702197,0.615
0.025522775975553257,0.616
0.03209595536385012,0.617
0.03441131705734876,0.618
0.030942479746542583,0.619
0.021560846057335936,0.62
0.007686549624889272,0.621
-0.008091738077309124,0.622
-0.022740766906441164,0.623
-0.03356853299386531,0.624
-0.03888734023590401,0.625
-0.03842574900298914,0.626
-0.03331950015919905,0.627
-0.025596684143528545,0.628
-0.017335625119810516,0.629
-0.0099174468559594,0.63
-0.0037711825151191037,0.631
0.0013673905312165263,0.632
0.0059986010942042175,0.633
0.01045503229455672,0.634
0.014634434405938866,0.635
0.017943458341476766,0.636
0.019505957265586776,0.637
0.018580637449437602,0.638
0.015012886655600374,0.639
0.009527209000439109,0.64
0.0037295101716543597,0.641
-0.0002586981935496488,0.642
-0.0004939569861087343,0.643
0.003948254592411923,0.644
0.012294183023167675,0.645
0.021992100854504367,0.646
0.029483723072218283,0.647
0.03153608840441686,0.648
0.02652147430172955,0.649
0.015080061212472266,0.65
-0.0002042349095098739,0.651
-0.01592879193693388,0.652
-0.02908879027773492,0.653
-0.037863001999429324,0.654
-0.041831747724279576,0.655
-0.041654804427923166,0.656
-0.03843414994214299,0.657
-0.03315372103893549,0.658
-0.026505394500751255,0.659
-0.019047551948058017,0.66
-0.011364634713172176,0.661
-0.004028638333612376,0.662
0.002573219612363335,0.663
0.008376706615307384,0.664
0.013578399449429445,0.665
0.018372130639371938,0.666
0.022746327983729275,0.667
0.02649483339462393,0.668
0.029253530875167397,0.669
0.030446587979621156,0.67
0.02933050576761063,0.671
0.025302460745535466,0.672
0.01831957542793468,0.673
0.009131827339833155,0.674
-0.0007715967227671728,0.675
-0.009470630436489805,0.676
-0.015170212132441054,0.677
-0.016845051706924,0.678
-0.014623909340076027,0.679
-0.009694938610836113,0.68
-0.0038171823173418105,0.681
0.001336204598155236,0.682
0.0047501694683353,0.683
0.006266738513074233,0.684
0.006284223300000011,0.685
0.005188662895440283,0.686
0.002931863204890442,0.687
-0.0009455660036125497,0.688
-0.006879055672122054,0.689
-0.014795887133763194,0.69
-0.02389520510379429,0.691
-0.03267847814486051,0.692
-0.03910410766730695,0.693
-0.040890971838718,0.694
-0.03606149334254692,0.695
-0.023662613104022085,0.696
-0.004364804962662367,0.697
0.019451854192621413,0.698
0.044174068762509,0.699
0.065587442561078,0.7
0.07945362856094153,0.701
0.08236139738717813,0.702
0.07293514731738156,0.703
0.05260686886036289,0.704
0.025162748491917315,0.705
-0.004574914419743379,0.706
-0.03197327793858513,0.707
-0.05334512677847958,0.708
-0.0663692086436154,0.709
-0.07028020282553603,0.71
-0.06583591879791678,0.711
-0.055035256397543024,0.712
-0.04062277193673576,0.713
-0.0254907214813107,0.714
-0.012058609105414416,0.715
-0.0017265300570574154,0.716
0.005385270110108623,0.717
0.01021801221984564,0.718
0.01416284569257344,0.719
0.018364871416436772,0.72
0.02318124447486805,0.721
0.02792515802517681,0.722
0.03107380400416779,0.723
0.031009307079731614,0.724
0.02694240553217237,0.725
0.019456642352442512,0.726
0.010413750757610847,0.727
0.0023988746154380426,0.728
-0.002002495271099418,0.729
-0.0009917846398846803,0.73
0.005680517534461045,0.731
0.016232201477333594,0.732
0.026945365453576738,0.733
0.033113756648237624,0.734
0.0307353993062138,0.735
0.018135991606143393,0.736
-0.0033404221690758297,0.737
-0.029741482254845793,0.738
-0.05566955415269992,0.739
-0.07569625246465006,0.74
-0.08558178298585231,0.741
-0.08307494455086037,0.742
-0.06823562997172519,0.743
-0.0433332408039898,0.744
-0.012453886044966929,0.745
0.01915153511442786,0.746
0.04610502279600383,0.747
0.06429052361627104,0.748
0.07205609839875762,0.749
0.07048807983514252,0.75
0.06251422996805733,0.751
0.05132488163129771,0.752
0.03901568934824686,0.753
0.02625955947040964,0.754
0.01308142769490719,0.755
-0.00014441873027799628,0.756
-0.012413388310559418,0.757
-0.022546034843762233,0.758
-0.029747743224119823,0.759
-0.03379712825999678,0.76
-0.03489585832202144,0.761
-0.03350417780680323,0.762
-0.030313337477474868,0.763
-0.026223261977835095,0.764
-0.02214672475772608,0.765
-0.018641424545610605,0.766
-0.015618438461970583,0.767
-0.012384479724355283,0.768
-0.008027885923811606,0.769
-0.001940566930742176,0.77
0.0057833337933290065,0.771
0.014232985544473503,0.772
0.021856967775631925,0.773
0.026853800070703635,0.774
0.0277100247603539,0.775
0.023783307935164123,0.776
0.015696814782147895,0.777
0.005297570214617637,0.778
-0.004846448312843137,0.779
-0.012188149387243361,0.78
-0.01490040374370712,0.781
-0.012364406472585876,0.782
-0.005372500890738847,0.783
0.004056640506570283,0.784
0.013287368257301197,0.785
0.01989047587763738,0.786
0.022342445641016277,0.787
0.02036585328102374,0.788
0.014823830150741912,0.789
0.007260887798116592,0.79
-0.0006504431713278376,0.791
-0.007538440895587237,0.792
-0.012558256310469914,0.793
-0.015405661359249099,0.794
-0.01618230553120911,0.795
-0.015239680697856259,0.796
-0.013073589972445626,0.797
-0.01022376797033564,0.798
-0.007142802438549656,0.799
-0.004117521229808696,0.8
-0.0013326931254747981,0.801
0.0009528311914623375,0.802
0.0022892218429219507,0.803
0.002174353866953036,0.804
0.00040506372941490705,0.805
-0.002641633361282954,0.806
-0.005982691984066288,0.807
-0.008228453680689623,0.808
-0.00794345166469343,0.809
-0.004122359040404589,0.81
0.0033350932560819013,0.811
0.013316386405950106,0.812
0.023502931159702176,0.813
0.030816149656092993,0.814
0.03235673544831936,0.815
0.026592155718826102,0.816
0.014153808137886073,0.817
-0.0022779070597083286,0.818
-0.01887094814737797,0.819
-0.03180858596339257,0.82
-0.03828907430555677,0.821
-0.03710326448585546,0.822
-0.028769428472213823,0.823
-0.015315766688770837,0.824
0.00025035228933662103,0.825
0.014685310292594234,0.826
0.025237611100272783,0.827
0.030161913388990016,0.828
0.028975742792986883,0.829
0.02246531629222436,0.83
0.012394585810011741,0.831
0.0009908942364111391,0.832
-0.009571997229738357,0.833
-0.017543372491913,0.834
-0.02177712027424106,0.835
-0.021756014048049412,0.836
-0.017605932709652355,0.837
-0.010206186332609862,0.838
-0.0012448932221847666,0.839
0.007050707506300167,0.84
0.012593417240861264,0.841
0.014234359377931001,0.842
0.01214468172119313,0.843
0.0075390159026451735,0.844
0.0020426366097821744,0.845
-0.0028852268141598796,0.846
-0.006294310124224142,0.847
-0.007831237919775379,0.848
-0.007626639753313793,0.849
-0.006099974384828252,0.85
-0.0038145913499427098,0.851
-0.001437285868875189,0.852
0.00028294805774746,0.853
0.0006630585549832288,0.854
-0.0005743506745445688,0.855
-0.002913084378428835,0.856
-0.004904337223461653,0.857
-0.0044520850553778045,0.858
0.0004901409532734295,0.859
0.010927890052998374,0.86
0.025852754932024283,0.861
0.04179128383853428,0.862
0.05338616036020137,0.863
0.05520468530608019,0.864
0.044159267234479715,0.865
0.02118744643053128,0.866
-0.008840377038619753,0.867
-0.03886352983380853,0.868
-0.0620664914325492,0.869
-0.07391887930109696,0.87
-0.07308433893977866,0.871
-0.061153544156975916,0.872
-0.04173319154038633,0.873
-0.019424565933379576,0.874
0.0011312067601822685,0.875
0.016154234840928046,0.876
0.02351223860083926,0.877
0.023163886464863264,0.878
0.01696252214538096,0.879
0.007854445806889935,0.88
-0.001021130369332557,0.881
-0.006911499254940848,0.882
-0.007760158466193859,0.883
-0.0024225505790103777,0.884
0.009193641787143818,0.885
0.026041872635082817,0.886
0.04575969845650287,0.887
0.06436198912454225,0.888
0.07627808104452968,0.889
0.07559346977931056,0.89
0.05862794484045027,0.891
0.0263987979619927,0.892
-0.014915632080823483,0.893
-0.055911815089545465,0.894
-0.08713730448873237,0.895
-0.10198569844739436,0.896
-0.09829090828547257,0.897
-0.07837940258086323,0.898
-0.0478636870655032,0.899
-0.013751762732939715,0.9
0.01743903002554402,0.901
0.04097798012747001,0.902
0.05430586229699347,0.903
0.056803743938763834,0.904
0.04955408668537175,0.905
0.03516555690026609,0.906
0.01731461340309575,0.907
-6.71540617102879e-05,0.908
-0.013656733464055335,0.909
-0.021351698522759283,0.91
-0.02253608605017312,0.911
-0.018009267295159302,0.912
-0.009612129010186222,0.913
0.000347644612660344,0.914
0.009700176509006656,0.915
0.016858377895290686,0.916
0.020972078376546906,0.917
0.021802515179358172,0.918
0.019476523311923104,0.919
0.014293889915572759,0.92
0.006660242245387835,0.921
-0.002804364677630934,0.922
-0.013020235273410168,0.923
-0.02236249974567225,0.924
-0.028993926995543526,0.925
-0.03150800997907661,0.926
-0.029514098967147906,0.927
-0.02381048140127455,0.928
-0.01603981319923688,0.929
-0.007994924232501107,0.93
-0.0009296202836891605,0.931
0.004764188420693499,0.932
0.009412875245057779,0.933
0.0136103134398172,0.934
0.017718660278584975,0.935
0.02157828948804949,0.936
0.024538057405036527,0.937
0.025696970372660954,0.938
0.024181338627041606,0.939
0.019412315211614833,0.94
0.01138823281552076,0.941
0.0008869247696027611,0.942
-0.010554018094696317,0.943
-0.02089555211727412,0.944
-0.028052192464559346,0.945
-0.030479425840809763,0.946
-0.02767922447078965,0.947
-0.020381682770352072,0.948
-0.010375820337511324,0.949
-8.530474561660444e-05,0.95
0.008073185193487814,0.951
0.012455663365555453,0.952
0.01275318110099446,0.953
0.009990145539068296,0.954
0.00599127841095679,0.955
0.0027261949958581003,0.956
0.001834293749932107,0.957
0.004286825808782312,0.958
0.010076517877142404,0.959
0.018052832103140366,0.96
0.026105508922034438,0.961
0.03170524815104847,0.962
0.032610666800283836,0.963
0.027517801477767837,0.964
0.016503061658646543,0.965
0.0011251036876956692,0.966
-0.015913070988506823,0.967
-0.031432930147265496,0.968
-0.04255164149388811,0.969
-0.04736239871817135,0.97
-0.045343274305174056,0.971
-0.03739164767910969,0.972
-0.025505124313782757,0.973
-0.012219880030395015,0.974
1.951561205301685e-05,0.975
0.009373098381850612,0.976
0.014851889623424732,0.977
0.01630657362180511,0.978
0.014310726850452853,0.979
0.009992579042795678,0.98
0.0047697744907737845,0.981
4.360507355601763e-05,0.982
-0.0030278223583438883,0.983
-0.0036681323714413093,0.984
-0.0016244521304982287,0.985
0.0026572233220937894,0.986
0.007982422928293655,0.987
0.012727407587098383,0.988
0.01549174603906461,0.989
0.015634991426912166,0.99
0.013294959127453598,0.991
0.009028841771438723,0.992
0.0035535860352202647,0.993
-0.0022311734941207082,0.994
-0.0071848877028014785,0.995
-0.010069398594895168,0.996
-0.009871611097682201,0.997
-0.00615479472978671,0.998
0.0006994270789155873,0.999
0.009402442948031166,1.0
0.017840728201014927,1.001
0.023472359021569182,1.002
0.024119505643816434,1.003
0.018829046025949422,1.004
0.00827785229787973,1.005
-0.005459881803314258,1.006
-0.019571488608935872,1.007
-0.03125184444865655,1.008
-0.0382798227209318,1.009
-0.039381283705050805,1.01
-0.03441817173212431,1.011
-0.02437116810353266,1.012
-0.011094940381307709,1.013
0.0030783597862792493,1.014
0.015755898218420564,1.015
0.024879959511146882,1.016
0.029135639711666203,1.017
0.02827178337516332,1.018
0.023146687689169873,1.019
0.01541913956413033,1.02
0.006988304286903161,1.021
-0.0005760504023211952,1.022
-0.006377083382382056,1.023
-0.010211038745392772,1.024
-0.012341155993670966,1.025
-0.013194994952728762,1.026
-0.013121877274729785,1.027
-0.012270794693482077,1.028
-0.010598641249818524,1.029
-0.00799935356783145,1.03
-0.004503698302942575,1.031
-0.0004201341323810755,1.032
0.0036928965815702063,1.033
0.0071755005762507516,1.034
0.009422527267100534,1.035
0.01004463751421974,1.036
0.009090681248960272,1.037
0.007238122063975101,1.038
0.005704241105857077,1.039
0.005788329401887615,1.04
0.008259669803218806,1.041
0.012868566776939384,1.042
0.018159286637288052,1.043
0.021760541778059223,1.044
0.021227115938945544,1.045
0.01508348239455144,1.046
0.0034977766718913518,1.047
-0.011623752493429753,1.048
-0.027040224081444374,1.049
-0.03905374426677005,1.05
-0.04466900789761446,1.051
-0.04253936687928497,1.052
-0.033299866220361594,1.053
-0.019238626368184804,1.054
-0.003510133241908525,1.055
0.010780002718639237,1.056
0.021280732162061496,1.057
0.02672098658401848,1.058
0.02692980168169094,1.059
0.022715605295585965,1.06
0.015640317975151977,1.061
0.007611497189683393,1.062
0.00034533109439579575,1.063
-0.005046415360586443,1.064
-0.00814349635615222,1.065
-0.009006862300618364,1.066
-0.007862511929917616,1.067
-0.004920834287793469,1.068
-0.0004738454747543114,1.069
0.0048488860220035285,1.07
0.009978224455918614,1.071
0.013640982278839382,1.072
0.014785971798971318,1.073
0.012917414706279511,1.074
0.008219774213780657,1.075
0.0015265234472744177,1.076
-0.005831268222549243,1.077
-0.012310445456632253,1.078
-0.016535824852423834,1.079
-0.01766455270190593,1.08
-0.015603650940332057,1.081
-0.010977173074643605,1.082
-0.004886762471556357,1.083
0.0013756287319277969,1.084
0.006594539574667608,1.085
0.00985773714076081,1.086
0.010690957029561835,1.087
0.009126447310447027,1.088
0.0057301228462822585,1.089
0.0014992049851923679,1.09
-0.0024087366269820707,1.091
-0.005009767702922897,1.092
-0.005752560996107568,1.093
-0.004629580133887734,1.094
-0.0021472660442378444,1.095
0.0008139307293784484,1.096
0.0032409742134985493,1.097
0.004304192889623853,1.098
0.0036491898755228957,1.099
0.0015229699470114392,1.1
-0.0013362888771816061,1.101
-0.003982214033802443,1.102
-0.0055875030569951765,1.103
-0.005696080420003777,1.104
-0.004310319273948294,1.105
-0.0018087394246860534,1.106
0.001206886107222287,1.107
0.0040686249892968665,1.108
0.006204041164976835,1.109
0.007252799746545872,1.11
0.0070978500086749975,1.111
0.005865385698666975,1.112
0.003936112221586347,1.113
0.001900134293048887,1.114
0.00035808342857616916,1.115
-0.0003751855841385188,1.116
-0.00045656747087224496,1.117
-0.0004353170545184772,1.118
-0.0009284307986742069,1.119
-0.002243048442043546,1.12
-0.004190296744431687,1.121
-0.006185412691527422,1.122
-0.007535143710725369,1.123
-0.007748916877153975,1.124
-0.0067443397549171126,1.125
-0.0048575990539559705,1.126
-0.002634345394952662,1.127
-0.0005205020542724489,1.128
0.0013435996385006471,1.129
0.003110845340258431,1.13
0.005022185344921798,1.131
0.007126180090638889,1.132
0.00908282567430721,1.133
0.010199222759161394,1.134
0.009739408485904606,1.135
0.007345718096265331,1.136
0.0032745758132182905,1.137
-0.0016981835681164471,1.138
-0.006566784325666518,1.139
-0.010389708797028252,1.14
-0.012504013329307156,1.141
-0.0126210885996154,1.142
-0.010793651705414574,1.143
-0.007312285680735486,1.144
-0.002625774254614492,1.145
0.0026702311867245836,1.146
0.0077987461621102615,1.147
0.011824575954697878,1.148
0.013866625017788549,1.149
0.013436965816234865,1.15
0.010668776343106718,1.151
0.0063039854233752895,1.152
0.0014749521692538578,1.153
-0.0026267130012329163,1.154
-0.005073845299581536,1.155
-0.005431957902496841,1.156
-0.003872471305674313,1.157
-0.0011452161114703335,1.158
0.0016526222863347964,1.159
0.003487028978400711,1.16
0.003765872507631124,1.161
0.0024625497657668302,1.162
-2.5795676413324623e-05,1.163
-0.0031554179261804134,1.164
-0.006515363286184883,1.165
-0.00995759534621613,1.166
-0.013466712072470943,1.167
-0.016856852100787252,1.168
-0.019546693449283378,1.169
-0.020599161731286512,1.17
-0.01902964098510969,1.171
-0.014259223992615696,1.172
-0.006515245621867656,1.173
0.0030599853831432666,1.174
0.012735192038248685,1.175
0.020849201928990774,1.176
0.02644323864158205,1.177
0.029446603542421346,1.178
0.030328119673962484,1.179
0.02952587449950714,1.18
0.027046532524409188,1.181
0.022523024771739435,1.182
0.01570845348907929,1.183
0.006976944607988926,1.184
-0.0025804920671428757,1.185
-0.011496729331249816,1.186
-0.018438868963903253,1.187
-0.022596458151224682,1.188
-0.02382711480213959,1.189
-0.022585438109063348,1.19
-0.019716746151353024,1.191
-0.016189659093115278,1.192
-0.012813766674685622,1.193
-0.010024374844212754,1.194
-0.007842825103037415,1.195
-0.006021421790614623,1.196
-0.004254386475837822,1.197
-0.002334381077312056,1.198
-0.00021071244312623639,1.199
0.0020426083938895646,1.2
0.004309926008221494,1.201
0.006496857376444,1.202
0.008510237065716955,1.203
0.010204758912114987,1.204
0.011406657306596379,1.205
0.012005080154376223,1.206
0.01200687365418329,1.207
0.011484863471968802,1.208
0.010463768652915281,1.209
0.008885568483284945,1.21
0.006699952889197294,1.211
0.0039661944506561315,1.212
0.0008856386519350182,1.213
-0.002209928151175354,1.214
-0.004906080913690107,1.215
-0.0068228363087495265,1.216
-0.007769179563385435,1.217
-0.007829813468119444,1.218
-0.007314974466800766,1.219
-0.006601088604765308,1.22
-0.005936285290049266,1.221
-0.005300481196064793,1.222
-0.004423610692268729,1.223
-0.002976319308859013,1.224
-0.0008159427015455131,1.225
0.0018424385371738016,1.226
0.00441747142962661,1.227
0.006152501480323865,1.228
0.006437590068233904,1.229
0.005098210117822734,1.23
0.0024750120908762613,1.231
-0.0007416425974513559,1.232
-0.0037598559062246915,1.233
-0.005865118751650314,1.234
-0.006560257410256917,1.235
-0.005735289438580365,1.236
-0.0037668701360134096,1.237
-0.0013866096385833152,1.238
0.0006431066461312873,1.239
0.001831041639201751,1.24
0.0020638781723512985,1.241
0.0015337935874363093,1.242
0.0006203621873278464,1.243
-0.00022984945969209224,1.244
-0.0006466409607173224,1.245
-0.0004490936454170583,1.246
0.0003255490077249563,1.247
0.001476290814252982,1.248
0.0027598683254315254,1.249
0.003993269675218316,1.25
0.005041302660753637,1.251
0.005743734501479072,1.252
0.005907443271490117,1.253
0.005413516618771871,1.254
0.00438425077116409,1.255
0.0032341821432122658,1.256
0.0024592881322348234,1.257
0.002288383212922906,1.258
0.0024924844179421857,1.259
0.0024999798635492406,1.26
0.0017151323875554824,1.261
-0.00019089077748436474,1.262
-0.003170184789596453,1.263
-0.006826811610319614,1.264
-0.010489592253370428,1.265
-0.013335183201467447,1.266
-0.014594007053456396,1.267
-0.013789800381692828,1.268
-0.010907785316784381,1.269
-0.006427195836866306,1.27
-0.0012125502460870726,1.271
0.0037236591650313235,1.272
0.007517873129435283,1.273
0.00967475513344433,1.274
0.010140381180060947,1.275
0.009257369785059309,1.276
0.007600823307959132,1.277
0.005727340822298217,1.278
0.004001811880371023,1.279
0.0026092151659050608,1.28
0.0016293656140599652,1.281
0.0010254451124814552,1.282
0.000600239009936319,1.283
5.6707169802171304e-05,1.284
-0.0008170828630180882,1.285
-0.001971492877579258,1.286
-0.0030910562752450668,1.287
-0.0037716220121394206,1.288
-0.0037410519854312366,1.289
-0.0029952305958372925,1.29
-0.00180730504265791,1.291
-0.0006175560375082121,1.292
0.00017276336087672335,1.293
0.00040109178357895667,1.294
0.00018242644540944448,1.295
-0.00023554212900309368,1.296
-0.0006395399469759954,1.297
-0.0008797438313253195,1.298
-0.0007924038824402615,1.299
-0.0001846724464744255,1.3
0.0010293512314023976,1.301
0.0026401023738803525,1.302
0.004091175198515901,1.303
0.00465997144759501,1.304
0.0037938074193213443,1.305
0.0014139924939033243,1.306
-0.001990401102042192,1.307
-0.0055248224850667,1.308
-0.008208781399928049,1.309
-0.009302966526008125,1.31
-0.008527407564639634,1.311
-0.006118902434266724,1.312
-0.002719489311306983,1.313
0.0008820570230099025,1.314
0.0040556397577365295,1.315
0.006507075218004318,1.316
0.008230690234556805,1.317
0.009331196379034226,1.318
0.009880920697967551,1.319
0.00987756604685033,1.32
0.009267398889182961,1.321
0.00798729700096606,1.322
0.0059852227769114814,1.323
0.0032105036097321345,1.324
-0.00037916888188765674,1.325
-0.00477239025444786,1.326
-0.009834227999324006,1.327
-0.015196153871537567,1.328
-0.020126740344420455,1.329
-0.023505864764675758,1.33
-0.024027364925040796,1.331
-0.020615934412646163,1.332
-0.012896441553951041,1.333
-0.0015360245850780552,1.334
0.011671745986698588,1.335
0.02408873028109713,1.336
0.032911303013024217,1.337
0.0360861647129551,1.338
0.03307133346628213,1.339
0.024999531346897714,1.34
0.014115506724578255,1.341
0.002835410375155026,1.342
-0.007018261470625932,1.343
-0.01447742626003122,1.344
-0.019240165726510227,1.345
-0.021327485881144158,1.346
-0.020897290831971137,1.347
-0.01830099771896652,1.348
-0.014191655662206046,1.349
-0.009491022784032481,1.35
-0.005197002946761718,1.351
-0.002094065313129922,1.352
-0.0004653153820894119,1.353
2.809354118572139e-05,1.354
0.00019333509148421153,1.355
0.0009432215811933767,1.356
0.0028613390926575215,1.357
0.005853997150953723,1.358
0.009085377810752058,1.359
0.011308795366970046,1.36
0.011486252070291194,1.361
0.00936806174585608,1.362
0.005679138065446115,1.363
0.0017941452912633043,1.364
-0.0008936510018966291,1.365
-0.0015466822749699203,1.366
-0.00015333473725509658,1.367
0.002540451974860263,1.368
0.005349553169525622,1.369
0.0070958168992053304,1.37
0.007040847006629883,1.371
0.0051115865651161696,1.372
0.001788337434952083,1.373
-0.0022275234596235627,1.374
-0.006286672856781607,1.375
-0.009842605098480355,1.376
-0.012371546591810773,1.377
-0.013369407144871578,1.378
-0.012504180722606619,1.379
-0.00982395374871517,1.38
-0.005875975079102883,1.381
-0.001630129345334217,1.382
0.0018180693977436207,1.383
0.0036661406884414506,1.384
0.0037502209293717795,1.385
0.002616514652584636,1.386
0.0012501157265560731,1.387
0.000612604288978225,1.388
0.0012480290909024953,1.389
0.0031151943020111122,1.39
0.005643708644227038,1.391
0.007949301647968969,1.392
0.009161800183010632,1.393
0.008781117698425973,1.394
0.006851913342241703,1.395
0.003828432869743941,1.396
0.00030411061119587566,1.397
-0.0031631159747674523,1.398
-0.006106390967474583,1.399
-0.008169592219995164,1.4
-0.00912882863420392,1.401
-0.008903272434345013,1.402
-0.007552564680124172,1.403
-0.005267638892236071,1.404
-0.002343945331263811,1.405
0.0008666946954686401,1.406
0.00400264182120418,1.407
0.0067121304908120995,1.408
0.008662764042237857,1.409
0.009581407821628935,1.41
0.009321547806532098,1.411
0.007929575652580095,1.412
0.005674382857139406,1.413
0.0029818251132224163,1.414
0.0002693094737460834,1.415
-0.0022197513196031645,1.416
-0.004469532428231387,1.417
-0.0066183589931542676,1.418
-0.008823601481757905,1.419
-0.011120879323989849,1.42
-0.013299859197335125,1.421
-0.014834399168044443,1.422
-0.0149445002697462,1.423
-0.012826685021572831,1.424
-0.00798862662360802,1.425
-0.0005634038396465346,1.426
0.008538587538363292,1.427
0.01773024835386243,1.428
0.025101069052181478,1.429
0.02894937860421631,1.43
0.02831129899381258,1.431
0.02326323587258638,1.432
0.014887894552845893,1.433
0.004911150828927092,1.434
-0.004867235848538383,1.435
-0.0130711065161391,1.436
-0.01892411402657888,1.437
-0.022124318651920803,1.438
-0.022646662229555824,1.439
-0.020664367154065066,1.44
-0.01659473041559519,1.441
-0.011140602492629662,1.442
-0.005226844299287145,1.443
0.00015057791723751185,1.444
0.004091185980512922,1.445
0.005952231385646813,1.446
0.005537839775382652,1.447
0.003286607056191926,1.448
0.0002892314465476721,1.449
-0.002021807395066172,1.45
-0.0023946621232345134,1.451
-0.0001967183448436234,1.452
0.0043704027426933675,1.453
0.010268418072143525,1.454
0.015867402591852035,1.455
0.019467903949303696,1.456
0.01995042204983493,1.457
0.01721170140272419,1.458
0.012104268835412744,1.459
0.005947301248637123,1.46
-3.3208938998647634e-05,1.461
-0.005049305140445804,1.462
-0.008824878435588827,1.463
-0.01145016406419932,1.464
-0.01311278682343888,1.465
-0.013865643563495147,1.466
-0.013591388469407833,1.467
-0.012167605472239133,1.468
-0.009653819724500646,1.469
-0.006352920911394064,1.47
-0.0027540240529470715,1.471
0.0005742107900950758,1.472
0.0030959981411821406,1.473
0.004442657235890343,1.474
0.00455402785602989,1.475
0.0037094632469882156,1.476
0.002383316068125473,1.477
0.0010227975756290245,1.478
-9.131994613761044e-05,1.479
-0.0008350071972646668,1.48
-0.0011538766515513984,1.481
-0.0010091886890670478,1.482
-0.00039991203474736865,1.483
0.0005867577303430827,1.484
0.0017691938111531757,1.485
0.002945085831454778,1.486
0.003999158695103995,1.487
0.00493683939318985,1.488
0.005806884725141521,1.489
0.00657279557613718,1.49
0.007015998247298871,1.491
0.0067477960053231615,1.492
0.005357254731400447,1.493
0.002629614878887047,1.494
-0.0012961657243270046,1.495
-0.005907064258126638,1.496
-0.010404639048197911,1.497
-0.013884990422578607,1.498
-0.015597453775584484,1.499
-0.015168116670703793,1.5
-0.012675173022158379,1.501
-0.008583988953411203,1.502
-0.0035993850762040163,1.503
0.0015097103927441229,1.504
0.00606527015182564,1.505
0.00959397518390292,1.506
0.01188232960473017,1.507
0.01295689352832984,1.508
0.013002784840901496,1.509
0.012257791617688188,1.51
0.010928883048235206,1.511
0.009164512519001836,1.512
0.007073875355057108,1.513
0.004757389530167777,1.514
0.0023235647330646083,1.515
-0.00010986308203012956,1.516
-0.0024153091941571145,1.517
-0.004458134635003877,1.518
-0.006125643592974149,1.519
-0.007369336196752748,1.52
-0.008225743654485638,1.521
-0.008796580769511734,1.522
-0.009190559447652557,1.523
-0.00946461158117944,1.524
-0.009600664420167028,1.525
-0.00951577807031966,1.526
-0.00908153395446635,1.527
-0.008146452497257036,1.528
-0.006590446579477621,1.529
-0.004397531424632535,1.53
-0.0016689195993739834,1.531
0.0014382164386859033,1.532
0.004758619601154145,1.533
0.008097049581113926,1.534
0.011183812526327983,1.535
0.013670826670180939,1.536
0.015184428986042671,1.537
0.015406073346881587,1.538
0.014144429296493689,1.539
0.011414748291873026,1.54
0.007523930639332685,1.541
0.003073938487489409,1.542
-0.0011746950542340128,1.543
-0.004508007211641388,1.544
-0.006423548616311534,1.545
-0.006740846613297566,1.546
-0.005671317356253042,1.547
-0.003797659328793006,1.548
-0.0019122407639708102,1.549
-0.0007517969624699596,1.55
-0.0007706458945443204,1.551
-0.002058537561084842,1.552
-0.004372218406750221,1.553
-0.007202105220273207,1.554
-0.009836234291022823,1.555
-0.01147744670285164,1.556
-0.011471867411464656,1.557
-0.009547023074984624,1.558
-0.005895015843436254,1.559
-0.0010760972951245446,1.56
0.0041464836801809336,1.561
0.008953075362102264,1.562
0.012589850071194949,1.563
0.014482199851186046,1.564
0.014358624716760113,1.565
0.012362402028253906,1.566
0.009046395921620785,1.567
0.00518931004517317,1.568
0.0015245864392226726,1.569
-0.001456900788877646,1.57
-0.0035538006039367953,1.571
-0.0047913280463012025,1.572
-0.005311558646628195,1.573
-0.0052777187821569475,1.574
-0.004850306690404556,1.575
-0.004218509037711783,1.576
-0.0036196903329449707,1.577
-0.003305206906505558,1.578
-0.003458623648199289,1.579
-0.004116723525730269,1.58
-0.005136910063187906,1.581
-0.006223090968578012,1.582
-0.006990406452671586,1.583
-0.007034272160394014,1.584
-0.006013021555804719,1.585
-0.003748225686374282,1.586
-0.0002929620640898579,1.587
0.0040511516010120294,1.588
0.008736033199233224,1.589
0.012980946364153452,1.59
0.015869932205330114,1.591
0.016617377784563032,1.592
0.014924171541223344,1.593
0.011182591386022851,1.594
0.006354067621375784,1.595
0.001572547302334569,1.596
-0.002286396998002195,1.597
-0.004831210405027345,1.598
-0.006116819270923223,1.599
-0.006457321952275495,1.6
-0.00622623901370142,1.601
-0.005718074512797512,1.602
-0.005106002806481809,1.603
-0.00450007805430817,1.604
-0.0040363381347758125,1.605
-0.003888055877599628,1.606
-0.004173521600324627,1.607
-0.004861346594377941,1.608
-0.0057561871960975074,1.609
-0.006529890531450222,1.61
-0.006764014935907737,1.611
-0.006030926692275773,1.612
-0.0040312786553216825,1.613
-0.0007525689522293991,1.614
0.0034384047450799595,1.615
0.007839504472167705,1.616
0.011585164211136848,1.617
0.013878387827141934,1.618
0.014209700401434721,1.619
0.012500788715094555,1.62
0.009107684013814956,1.621
0.004684226325634141,1.622
9.19497433411581e-06,1.623
-0.004148192030575192,1.624
-0.007144219085833485,1.625
-0.008567685113908739,1.626
-0.00830787932899752,1.627
-0.006574197017643771,1.628
-0.0038637383650396715,1.629
-0.0008568458239508289,1.63
0.0017595826319643877,1.631
0.0034791774786120232,1.632
0.00408379340455803,1.633
0.0036504727089450924,1.634
0.0024891879496307346,1.635
0.0010328188995001708,1.636
-0.00027842049720961623,1.637
-0.0010833928262258751,1.638
-0.0011787210778657381,1.639
-0.0005855380295103738,1.64
0.00043804032155452395,1.641
0.001450894027765777,1.642
0.0019447139708203191,1.643
0.0014919795364193103,1.644
-0.00012087490056000165,1.645
-0.0027968738105145284,1.646
-0.006107027964635853,1.647
-0.009391974864732516,1.648
-0.011955406678854337,1.649
-0.013231400899521021,1.65
-0.012843153530113859,1.651
-0.010610534482368799,1.652
-0.006600898885792545,1.653
-0.0012083669172342805,1.654
0.004834825205275869,1.655
0.010580367528790742,1.656
0.015089492261197044,1.657
0.0176728714458059,1.658
0.018042797855592412,1.659
0.016312337717464095,1.66
0.012896941537386518,1.661
0.008419443124167241,1.662
0.0036201484298162474,1.663
-0.000766595207589286,1.664
-0.004157202551453562,1.665
-0.0062507153368393095,1.666
-0.007090991933275668,1.667
-0.006996089235181363,1.668
-0.006375565483686044,1.669
-0.0055418030354846244,1.67
-0.004620993761760388,1.671
-0.0035982911804450296,1.672
-0.0024370942259806104,1.673
-0.001167291987492139,1.674
0.00011452181072980501,1.675
0.0012920222438985354,1.676
0.002264665942835815,1.677
0.0029615939633307864,1.678
0.003318974700379597,1.679
0.0032333883815060475,1.68
0.0025797766484797723,1.681
0.001325081054512508,1.682
-0.0003708363572144095,1.683
-0.0021789933326456304,1.684
-0.0037278418472582904,1.685
-0.004721236477268373,1.686
-0.004993984971226539,1.687
-0.004534993443646177,1.688
-0.0034929749171726788,1.689
-0.002140960601863584,1.69
-0.0007873394150218305,1.691
0.0003294255952748631,1.692
0.0010962422826318757,1.693
0.0015083367853626361,1.694
0.0016155900344883849,1.695
0.0014879076903263485,1.696
0.0012199207059964588,1.697
0.0009369365295296803,1.698
0.000769705590607333,1.699
0.0008144604149747315,1.7
0.0011100093529491529,1.701
0.001636033973932815,1.702
0.0023098147082223713,1.703
0.002980062568411808,1.704
0.0034453703497537825,1.705
0.003499179560829226,1.706
0.0029895583335069623,1.707
0.0018915833739232002,1.708
0.0003473027794500825,1.709
-0.0013740329555446444,1.71
-0.002965867538165492,1.711
-0.0041618840517691725,1.712
-0.004765556922636811,1.713
-0.004646930398288702,1.714
-0.0037513619672829165,1.715
-0.002131461946767315,1.716
1.6459741973137566e-05,1.717
0.0023328396769879234,1.718
0.004330313942123574,1.719
0.005508537298288043,1.72
0.005515112042232039,1.721
0.004285651999697544,1.722
0.0020883056337573703,1.723
-0.0005662884061919953,1.724
-0.003089798993561948,1.725
-0.0049637096434723416,1.726
-0.0058409509885512965,1.727
-0.0056020452443637505,1.728
-0.004364360299602085,1.729
-0.0024523994710668987,1.73
-0.0003205419176095631,1.731
0.001584329722200883,1.732
0.002967479381514696,1.733
0.003744042660865812,1.734
0.0039836434776185795,1.735
0.0038007645680289076,1.736
0.003279410847402531,1.737
0.0024874498603494485,1.738
0.0015280372872067023,1.739
0.000528609499093064,1.74
-0.0004239845494490236,1.741
-0.0013079488881687048,1.742
-0.0021071681528139247,1.743
-0.002716953161486654,1.744
-0.002920802581435111,1.745
-0.0024928112988206745,1.746
-0.0013466412572181873,1.747
0.00037206236715679524,1.748
0.0022806123894483655,1.749
0.003837115218015768,1.75
0.004486789769140152,1.751
0.0038595626851986352,1.752
0.0019562655687599077,1.753
-0.0007983673269816198,1.754
-0.0036925351952847843,1.755
-0.005973366035275077,1.756
-0.007068688661945978,1.757
-0.006710851184378794,1.758
-0.004967662101622399,1.759
-0.002211731585380192,1.76
0.0009503659884683217,1.761
0.0037927383264224606,1.762
0.00564546975469371,1.763
0.006096623511864174,1.764
0.005120783216804643,1.765
0.0030742113674565993,1.766
0.0005796521340191847,1.767
-0.0016577053177867554,1.768
-0.0030501670007553813,1.769
-0.003285088786273407,1.77
-0.0023928078161744985,1.771
-0.0006941531701579047,1.772
0.001329468436619847,1.773
0.0031535687553038883,1.774
0.004306581192946382,1.775
0.004503235997140036,1.776
0.0037740756282224858,1.777
0.002452638303152496,1.778
0.0009955628556015074,1.779
-0.00022936636712199383,1.78
-0.0010525606659876755,1.781
-0.001487109818672113,1.782
-0.0016478015781849534,1.783
-0.0016683162909794532,1.784
-0.0016602042330034557,1.785
-0.0017121023633575002,1.786
-0.0018881579143729403,1.787
-0.0022118860895423828,1.788
-0.002652402803111066,1.789
-0.003121180535481735,1.79
-0.0034806060557335122,1.791
-0.003577051437214065,1.792
-0.0032973039734933737,1.793
-0.0026051452000480637,1.794
-0.0015353227728004824,1.795
-0.000180034395267013,1.796
0.0013046376923528111,1.797
0.00269518042671742,1.798
0.003747000018281165,1.799
0.004290364041963292,1.8
0.004298282596258939,1.801
0.0038700915467887917,1.802
0.0031728191490581936,1.803
0.002396064873149378,1.804
0.0017156794746920148,1.805
0.0012498191706637029,1.806
0.0010226780777056353,1.807
0.0009679147518784406,1.808
0.000974748948160961,1.809
0.0009412698083135654,1.81
0.000808116835833287,1.811
0.0005631684143410878,1.812
0.00021726910315184088,1.813
-0.0002236428007997841,1.814
-0.0007570531641412404,1.815
-0.0013574797320628166,1.816
-0.001963763058147513,1.817
-0.0025024744365859165,1.818
-0.0029196238686676735,1.819
-0.0031722040355012544,1.82
-0.003192636178908196,1.821
-0.0028864166210478275,1.822
-0.002177638383495138,1.823
-0.0010669521624772846,1.824
0.00033446344184328967,1.825
0.0018097226394691017,1.826
0.0030825671810388354,1.827
0.003888097094247719,1.828
0.004037922231011811,1.829
0.0034728317716796173,1.83
0.0022936098503196414,1.831
0.000749841751174365,1.832
