VaMe,time
4.0871108988550575e-05,0.001
0.004636166188414733,0.002
0.008945096162563048,0.003
0.012574048586288966,0.004
0.015021669471195273,0.005
0.01582036986725972,0.006
0.014712459863304354,0.007
0.01178316356418234,0.008
0.0075033093159688835,0.009
0.002653018630037507,0.01
-0.0018892872582345563,0.011
-0.005427147030437009,0.012
-0.00763681035992213,0.013
-0.008560154120970144,0.014
-0.008457377063767828,0.015
-0.007657528396497833,0.016
-0.006476569860832735,0.017
-0.005174191457138218,0.018
-0.003900496624525105,0.019
-0.00267154862240282,0.02
-0.0014535173308668293,0.021
-0.00029414748876574075,0.022
0.00066176422854733,0.023
0.0012984343060801625,0.024
0.0016576218400856082,0.025
0.0019514539736972592,0.026
0.002449070950291769,0.027
0.0033131233793152757,0.028
0.004484249444381518,0.029
0.005670516146421217,0.03
0.006472771263806788,0.031
0.00660255007140229,0.032
0.006038363681973014,0.033
0.005007549770214168,0.034
0.0038305623967003406,0.035
0.0027497503550802716,0.036
0.0018332405506245265,0.037
0.000980318948046255,0.038
2.4220004960647942e-05,0.039
-0.0011325729855841062,0.04
-0.002450482379425807,0.041
-0.003786459195084498,0.042
-0.004977645285990931,0.043
-0.005896434930530775,0.044
-0.006447962915817921,0.045
-0.006543622577368669,0.046
-0.006102466975001056,0.047
-0.005090627120891334,0.048
-0.0035578484690952194,0.049
-0.001663782030584256,0.05
0.0002887791019303974,0.051
0.00186331399600835,0.052
0.002616732916002123,0.053
0.002305800813420947,0.054
0.0010112153643850284,0.055
-0.0009079994142865417,0.056
-0.0029518095754895936,0.057
-0.004612688655832738,0.058
-0.00548655311492459,0.059
-0.005376219249845558,0.06
-0.004357858852728665,0.061
-0.0027388383442150206,0.062
-0.0009158332134740842,0.063
0.0007707622258577054,0.064
0.0021194185571280634,0.065
0.003071542919771049,0.066
0.0036653821531498227,0.067
0.004006965649223818,0.068
0.0042821321989755185,0.069
0.004746030268117912,0.07
0.005635486724688606,0.071
0.007039583937019801,0.072
0.008801897133258857,0.073
0.010512643256234697,0.074
0.011607509405561416,0.075
0.011534843044723133,0.076
0.009941710733429282,0.077
0.006837231184331255,0.078
0.002664503326352193,0.079
-0.0018103426075470608,0.08
-0.005790379800758468,0.081
-0.008753976698153672,0.082
-0.010587691050108414,0.083
-0.011502520686389382,0.084
-0.011819331212554752,0.085
-0.011758744522518431,0.086
-0.01135300277153503,0.087
-0.010495148943401408,0.088
-0.009042876010106778,0.089
-0.006917816548674208,0.09
-0.00419087865186871,0.091
-0.0011236715446789512,0.092
0.0018682489426572533,0.093
0.0043252668053570835,0.094
0.005881620307946704,0.095
0.006362231605343847,0.096
0.005811393070780393,0.097
0.00447221876329706,0.098
0.002726071121588158,0.099
0.0010119408463104935,0.1
-0.00025014003446893,0.101
-0.0007348115655235891,0.102
-0.00029166987909845705,0.103
0.0009867739849056206,0.104
0.0027559695926152442,0.105
0.004515084225346517,0.106
0.005795562104433009,0.107
0.0063492663193976465,0.108
0.006208647929063237,0.109
0.005568892707131611,0.11
0.004599147717973385,0.111
0.0033505671704780454,0.112
0.0018028029385886673,0.113
-4.303132201453344e-05,0.114
-0.002118816381864245,0.115
-0.004315305018321533,0.116
-0.006519643690953431,0.117
-0.00859081143962947,0.118
-0.010295737894281001,0.119
-0.011295070476982421,0.12
-0.011225013153797809,0.121
-0.009838541460519858,0.122
-0.007122973267252235,0.123
-0.0033462561400191978,0.124
0.0009629268294826108,0.125
0.005091748459303231,0.126
0.008278178931979335,0.127
0.009904355859407089,0.128
0.009706387242857347,0.129
0.007890085241956162,0.13
0.005051996236742672,0.131
0.0019408052070170323,0.132
-0.0007780491680486417,0.133
-0.0026322838139754665,0.134
-0.0033458052102096868,0.135
-0.002817516950795214,0.136
-0.0011194929367178297,0.137
0.0015063939926253404,0.138
0.004688306319106845,0.139
0.007984782993211877,0.14
0.010921063774760084,0.141
0.012996681031396078,0.142
0.013696365566694003,0.143
0.012536687941597539,0.144
0.009187124890331124,0.145
0.0036738994581894035,0.146
-0.0034387820268400476,0.147
-0.011057682607590717,0.148
-0.017820897661454133,0.149
-0.022492737473390055,0.15
-0.024299886215945924,0.151
-0.023086894285555007,0.152
-0.019292460491520547,0.153
-0.013800427374741818,0.154
-0.007686992060623377,0.155
-0.0019138186811656125,0.156
0.002914290252119973,0.157
0.006648524363209239,0.158
0.009526579165561171,0.159
0.011938475335394888,0.16
0.014121276639533884,0.161
0.01592052813811774,0.162
0.016726871268090332,0.163
0.015689243017678853,0.164
0.012218060945630882,0.165
0.006517126242567325,0.166
-0.0002822270352013824,0.167
-0.006534812208691619,0.168
-0.010766436545392994,0.169
-0.012226600981503397,0.17
-0.011048744367030893,0.171
-0.0080031907615262,0.172
-0.0040626599141148885,0.173
-5.95088070985587e-05,0.174
0.00343066650010741,0.175
0.006037484784231595,0.176
0.007524804007870717,0.177
0.007785254347022253,0.178
0.00685701163690041,0.179
0.004899140819999189,0.18
0.0021540087574998127,0.181
-0.001049630752190929,0.182
-0.004290746870466409,0.183
-0.00711902826057025,0.184
-0.009163319287505274,0.185
-0.010205787510152735,0.186
-0.010190345914612294,0.187
-0.009186461548446007,0.188
-0.007349638550962134,0.189
-0.004920768970557125,0.19
-0.0022546309217828316,0.191
0.00020916908259520112,0.192
0.002079615361781933,0.193
0.0031904925540615033,0.194
0.0037231981588006623,0.195
0.004174586218405714,0.196
0.005112415606275898,0.197
0.006819321287089344,0.198
0.009067700598651501,0.199
0.011197566264398145,0.2
0.012433586881280696,0.201
0.012225012514058392,0.202
0.010417912615816453,0.203
0.007217987950010827,0.204
0.0030556826868730585,0.205
-0.0015266356404500508,0.206
-0.0059521935753686995,0.207
-0.00969339597186673,0.208
-0.012354322202471724,0.209
-0.013700690286268096,0.21
-0.01362735207764975,0.211
-0.012116970378613364,0.212
-0.009238466603126836,0.213
-0.00519276348739132,0.214
-0.0003930246964149283,0.215
0.004479748736548879,0.216
0.008539268226171721,0.217
0.010906585416597295,0.218
0.011017130428801694,0.219
0.008889817968545932,0.22
0.005187167624338002,0.221
0.0009924319480327816,0.222
-0.0025928259037304685,0.223
-0.004814238816788849,0.224
-0.0054169167119397805,0.225
-0.004586618895363191,0.226
-0.002801158347923447,0.227
-0.0006681673577990441,0.228
0.001220767063114502,0.229
0.002396019431233772,0.23
0.0026003348999359076,0.231
0.0018607734177836777,0.232
0.0004639098419683573,0.233
-0.001163599727547377,0.234
-0.0025785519025125006,0.235
-0.0034340051008061923,0.236
-0.003596813767378148,0.237
-0.00319668550271748,0.238
-0.002540184332840062,0.239
-0.0019399676149145994,0.24
-0.0015723091721299466,0.241
-0.0014375242229301849,0.242
-0.001412373494570937,0.243
-0.0013322742131300646,0.244
-0.0010590388201261217,0.245
-0.0005353689748470318,0.246
0.00017043128600528098,0.247
0.000868622956495028,0.248
0.0013300046443578738,0.249
0.001407806668263493,0.25
0.0011260398571512694,0.251
0.0006870251124713502,0.252
0.0003939329977413521,0.253
0.0005120366890863043,0.254
0.001150799246531188,0.255
0.00225767746205587,0.256
0.003682865359592521,0.257
0.005197393270166301,0.258
0.006458087879174691,0.259
0.00702289831567918,0.26
0.006483618454678845,0.261
0.00468606002776102,0.262
0.0019243653933590124,0.263
-0.0010375927894387513,0.264
-0.003187270151561845,0.265
-0.0036522816665069337,0.266
-0.002078771949722692,0.267
0.0011737317647274072,0.268
0.0050983542701238055,0.269
0.008326586112129872,0.27
0.0095171992138963,0.271
0.007760666618645492,0.272
0.0029419590120977365,0.273
-0.004055460262571385,0.274
-0.011448438923161317,0.275
-0.017019441696775762,0.276
-0.01885240342240279,0.277
-0.01607375338391661,0.278
-0.009292056184635376,0.279
-0.0005361034480954619,0.28
0.007373317912578333,0.281
0.011882876248161731,0.282
0.011728954878298897,0.283
0.007339738989317359,0.284
0.00043938273757709314,0.285
-0.006796093654086579,0.286
-0.012524266930737419,0.287
-0.01566324184336476,0.288
-0.015952883585607536,0.289
-0.013787436889701993,0.29
-0.009941930611842202,0.291
-0.005277200613843582,0.292
-0.0004934391607726758,0.293
0.004007675500627053,0.294
0.00810396814479198,0.295
0.011796341523500743,0.296
0.015015201063459079,0.297
0.017484201499281402,0.298
0.018702671337782042,0.299
0.01809193946587067,0.3
0.015289494223179238,0.301
0.010447107338572594,0.302
0.004288602852568998,0.303
-0.002169178035715725,0.304
-0.00798464813828392,0.305
-0.012453276766482065,0.306
-0.01509601692624852,0.307
-0.015673449728614848,0.308
-0.014253283432093538,0.309
-0.011216859088714826,0.31
-0.007154685962836558,0.311
-0.002720978469120723,0.312
0.001463127912899486,0.313
0.004860662724547134,0.314
0.007079084054019709,0.315
0.007948920042307732,0.316
0.007586134117126895,0.317
0.006381190456746886,0.318
0.004868354462025376,0.319
0.0034967197823400635,0.32
0.002442060836771136,0.321
0.0016195502088276257,0.322
0.0008711341653575823,0.323
0.00016012107397799609,0.324
-0.0003637644338065221,0.325
-0.0004736410992191916,0.326
-7.373518817565146e-05,0.327
0.0006463014704726775,0.328
0.0012434074126768603,0.329
0.0012415577013455133,0.33
0.00039760676771360954,0.331
-0.0011486446689637898,0.332
-0.0029139848588196904,0.333
-0.0042675669430139096,0.334
-0.0046873405228595585,0.335
-0.003970063983289687,0.336
-0.0023128149685151473,0.337
-0.00024086495030946478,0.338
0.0015887712589141084,0.339
0.002638719148214779,0.34
0.002700427248369991,0.341
0.001958641451809874,0.342
0.0008629889328063548,0.343
-0.0001276425161502433,0.344
-0.0007714025662768836,0.345
-0.0011010644359146623,0.346
-0.0013228446979984573,0.347
-0.0016969969548075179,0.348
-0.002481942774654235,0.349
-0.00389172348443262,0.35
-0.006005870027308165,0.351
-0.008663306866980205,0.352
-0.01142441550294813,0.353
-0.013636787305926587,0.354
-0.014586066930461848,0.355
-0.01368942541834711,0.356
-0.010643176453691967,0.357
-0.005460235336518046,0.358
0.0015409527588822185,0.359
0.009701238302713104,0.36
0.017987533160241,0.361
0.025122293831755977,0.362
0.029895530718078208,0.363
0.03146076895386658,0.364
0.029472037548545823,0.365
0.02411861130614938,0.366
0.016109886614833435,0.367
0.00654700969637006,0.368
-0.0033381725528271945,0.369
-0.012461496098683819,0.37
-0.020047001893954898,0.371
-0.025611069787334056,0.372
-0.028808432137075252,0.373
-0.029281865233980738,0.374
-0.026667081304188416,0.375
-0.020774290186238442,0.376
-0.011830368637342993,0.377
-0.0006426862365378032,0.378
0.011373504311422039,0.379
0.022309671520193215,0.38
0.03005873797969427,0.381
0.0327960904693655,0.382
0.02952685124259804,0.383
0.020519829019814827,0.384
0.00743098558578875,0.385
-0.007050514051116747,0.386
-0.01995568692394298,0.387
-0.028861008808596666,0.388
-0.032472858702750636,0.389
-0.030791901073384333,0.39
-0.024855399636793906,0.391
-0.016256467473980647,0.392
-0.00667464679423459,0.393
0.0024655215251227817,0.394
0.010180895354513544,0.395
0.01596325401978465,0.396
0.019696250168974732,0.397
0.0215219246488126,0.398
0.02170354078711809,0.399
0.02051396960809932,0.4
0.018181934997332807,0.401
0.014884733801989708,0.402
0.010739979924128595,0.403
0.0058040523745165615,0.404
0.0001380885818795351,0.405
-0.0060676815768965385,0.406
-0.01241374569724608,0.407
-0.018299382726013433,0.408
-0.022975372666956893,0.409
-0.025650686626601506,0.41
-0.025687191856641898,0.411
-0.022805791504324623,0.412
-0.017191296840925387,0.413
-0.009480097522569902,0.414
-0.0006575466234576968,0.415
0.008137489129229077,0.416
0.01586367911228282,0.417
0.02174070736357955,0.418
0.025206734941566996,0.419
0.025791172988073634,0.42
0.02317660719759748,0.421
0.017498683547971544,0.422
0.009593380167975896,0.423
0.0008956961791164554,0.424
-0.006998724590495026,0.425
-0.012836288699799863,0.426
-0.015996430880403922,0.427
-0.01647469571848076,0.428
-0.014666585653212537,0.429
-0.01115888857973224,0.43
-0.006631967484813072,0.431
-0.001812133136667349,0.432
0.0026063699817298275,0.433
0.006059291507366187,0.434
0.008164800198537393,0.435
0.008723672247308644,0.436
0.007713284601658606,0.437
0.005283385956307296,0.438
0.0017586240754029533,0.439
-0.0023192703243828747,0.44
-0.006133732185990371,0.441
-0.00865715148308202,0.442
-0.008956224714943645,0.443
-0.006626803634421923,0.444
-0.0020798037162880374,0.445
0.0034841453743003356,0.446
0.008398756438382763,0.447
0.011075860968288817,0.448
0.010584092491452297,0.449
0.00697241609421413,0.45
0.0011905992454092477,0.451
-0.00526381296652642,0.452
-0.010762978078584666,0.453
-0.013933232502794088,0.454
-0.013967310561712501,0.455
-0.01080609122671131,0.456
-0.005147197864462555,0.457
0.0017373796640365313,0.458
0.008335791139512815,0.459
0.0132520267265658,0.46
0.01546813857393805,0.461
0.014498327206403667,0.462
0.010478211027616703,0.463
0.004210503429630812,0.464
-0.002900462945066553,0.465
-0.009137269706072846,0.466
-0.012979636103523668,0.467
-0.01362542777541477,0.468
-0.011248454158132288,0.469
-0.0068814725415876415,0.47
-0.001992776398127801,0.471
0.0020655232472778814,0.472
0.004483754375085409,0.473
0.005104718575201132,0.474
0.004254157052107157,0.475
0.0024845024681259217,0.476
0.00037889420929485874,0.477
-0.0015581726425961519,0.478
-0.002960525274960722,0.479
-0.00362637773925424,0.48
-0.0035104392126316004,0.481
-0.0026817525121086037,0.482
-0.001234446771004108,0.483
0.0007857771891020529,0.484
0.0033242229703369253,0.485
0.006156811965158865,0.486
0.008819057159109025,0.487
0.010752965289682469,0.488
0.011542451037624593,0.489
0.011022928584411592,0.49
0.009257658989599796,0.491
0.006497740277165973,0.492
0.0031696577762742213,0.493
-0.0001423923827301329,0.494
-0.002780444977459318,0.495
-0.00419352137068408,0.496
-0.004159649696777845,0.497
-0.002924082563952902,0.498
-0.0011614361359474463,0.499
0.0002184299541592553,0.5
0.000338204881454684,0.501
-0.0013729751367764346,0.502
-0.004942027972604612,0.503
-0.009710953338330854,0.504
-0.01439156938985966,0.505
-0.017396582379356935,0.506
-0.017392956921426835,0.507
-0.013854439692999841,0.508
-0.0073602726298449845,0.509
0.0005092143018471711,0.51
0.007675973775990963,0.511
0.012291901440052502,0.512
0.013398064199550808,0.513
0.011207094818486736,0.514
0.006852390202791737,0.515
0.0017749553844190976,0.516
-0.002836333762788321,0.517
-0.006251673616732695,0.518
-0.008108705287031292,0.519
-0.008284970152491501,0.52
-0.006881972316170866,0.521
-0.004240553946641606,0.522
-0.0008793974944459982,0.523
0.0026127959424604155,0.524
0.005649573966778001,0.525
0.007696894521664315,0.526
0.008373119303052576,0.527
0.007565248295314743,0.528
0.005444635497876827,0.529
0.0023776659572141627,0.53
-0.0011510001648397097,0.531
-0.004531043250916603,0.532
-0.007003106060327018,0.533
-0.007760249930696617,0.534
-0.0062063687097482475,0.535
-0.0022366618276553757,0.536
0.0036187805683152033,0.537
0.010252392578299395,0.538
0.016216558963822163,0.539
0.02009205043620416,0.54
0.02088227098779357,0.541
0.018268121107456514,0.542
0.012660672370111297,0.543
0.0051137568277570015,0.544
-0.0028877338567196895,0.545
-0.009775870481252018,0.546
-0.014289352758225442,0.547
-0.015759886884539255,0.548
-0.014238328760828074,0.549
-0.010471592254500737,0.55
-0.005736586911954551,0.551
-0.0015457605503857897,0.552
0.0007488965336649416,0.553
0.0003700766910630389,0.554
-0.0026206523611155465,0.555
-0.00733738896274155,0.556
-0.012363234744477404,0.557
-0.01621081260681954,0.558
-0.01777323886775671,0.559
-0.01660006430465465,0.56
-0.01291836630581321,0.561
-0.007437470127031467,0.562
-0.0010433156740032718,0.563
0.005497073967744394,0.564
0.011682456032171456,0.565
0.017185691590444113,0.566
0.021618753582387303,0.567
0.02440563829209011,0.568
0.02491686209278653,0.569
0.022762489088603045,0.57
0.018013778901931246,0.571
0.011239765869959326,0.572
0.0033994580506565737,0.573
-0.004378297530008629,0.574
-0.011085873859944787,0.575
-0.016064011086075133,0.576
-0.019048882447488966,0.577
-0.020034859595131512,0.578
-0.01907465930646524,0.579
-0.016189567570273088,0.58
-0.011469756378581145,0.581
-0.005307855346482361,0.582
0.0014198365839082547,0.583
0.007414168842757317,0.584
0.011277112967637358,0.585
0.011999855409444628,0.586
0.00943736336493092,0.587
0.004510097778629824,0.588
-0.001029104124246205,0.589
-0.005206377550465559,0.59
-0.006566047898654592,0.591
-0.0046823350581394335,0.592
-0.0002046530564415971,0.593
0.005500659039042592,0.594
0.010846422367493913,0.595
0.014464502974752363,0.596
0.015525365356557786,0.597
0.013879743537549828,0.598
0.009998510384550807,0.599
0.004780906158704797,0.6
-0.0006931555636423165,0.601
-0.005457480900568095,0.602
-0.008929949315790811,0.603
-0.010993283781322371,0.604
-0.011870446802905643,0.605
-0.011947910212493673,0.606
-0.011631056248201151,0.607
-0.011226048610264681,0.608
-0.010877509735295492,0.609
-0.010596960698061642,0.61
-0.010328694839407921,0.611
-0.009974903784836142,0.612
-0.009347610757893105,0.613
-0.008071198386824399,0.614
-0.00557879785989395,0.615
-0.0013259695654903895,0.616
0.004900481718642068,0.617
0.012788636215863118,0.618
0.021459234503275047,0.619
0.029517153447669888,0.62
0.03526673221574043,0.621
0.037198162163948924,0.622
0.03453518674468289,0.623
0.027453654662190633,0.624
0.016916056518967663,0.625
0.004340473785508977,0.626
-0.008729191557525958,0.627
-0.02084195033893076,0.628
-0.030709897709591993,0.629
-0.037215551575365394,0.63
-0.03950278790577525,0.631
-0.03720413398811167,0.632
-0.030671085571396407,0.633
-0.021016990463721748,0.634
-0.009874304369424677,0.635
0.001043637838941217,0.636
0.010334438125490534,0.637
0.017078242791844795,0.638
0.02082503632057264,0.639
0.02156159521569413,0.64
0.019679547249142056,0.641
0.015831657276986693,0.642
0.010739076472490318,0.643
0.005095074204255732,0.644
-0.00047065662445561175,0.645
-0.0054597871041253574,0.646
-0.009543092445970411,0.647
-0.012461102611110627,0.648
-0.013873622800990389,0.649
-0.013361098125346456,0.65
-0.010625900635017518,0.651
-0.005763851044011836,0.652
0.0005267245707962341,0.653
0.006919667766003448,0.654
0.011764186679658204,0.655
0.013698305405077093,0.656
0.012268102028072544,0.657
0.008170660665282936,0.658
0.0029571059768085705,0.659
-0.0016384418993232812,0.66
-0.00437511922466367,0.661
-0.004882101420458604,0.662
-0.0036328046663193785,0.663
-0.0015782963800095614,0.664
0.0003495293582312721,0.665
0.001624438568121695,0.666
0.002263763836587829,0.667
0.00264862043881684,0.668
0.0031217793838576474,0.669
0.0036639610424458987,0.67
0.00390589866802818,0.671
0.003483960550058501,0.672
0.0024405472864757883,0.673
0.0012954498538369713,0.674
0.0007428399936973189,0.675
0.001241688197568349,0.676
0.002739506426030352,0.677
0.004610206677368576,0.678
0.0058282042215107585,0.679
0.005366803197221792,0.68
0.002686619441817602,0.681
-0.001960425837518169,0.682
-0.007651413696459298,0.683
-0.01324545884531023,0.684
-0.017783724747025925,0.685
-0.020602514046123514,0.686
-0.02126223233101423,0.687
-0.019499019575775108,0.688
-0.015304440465467846,0.689
-0.009065842403947463,0.69
-0.001599371659182748,0.691
0.00600718194135554,0.692
0.012687890330098647,0.693
0.01769080853953206,0.694
0.020708774043904317,0.695
0.021785368885674707,0.696
0.021088160837177926,0.697
0.018731638817790334,0.698
0.014774724458146283,0.699
0.009351012879164159,0.7
0.0027863165222082303,0.701
-0.004393126453788469,0.702
-0.011509980395403173,0.703
-0.017748130275331793,0.704
-0.022177647513471253,0.705
-0.02390873447450806,0.706
-0.022370850642272923,0.707
-0.017588816708471715,0.708
-0.010305959436496955,0.709
-0.001872349672450727,0.71
0.0060727719258241684,0.711
0.01203852331959051,0.712
0.01515643794851813,0.713
0.015508521501753606,0.714
0.01404660386234724,0.715
0.01207751245437452,0.716
0.010619560806692624,0.717
0.009979091550188082,0.718
0.009729630458743966,0.719
0.009051944756056118,0.72
0.007194827844827726,0.721
0.0038160774566429307,0.722
-0.0009017459194090586,0.723
-0.0063571137804324645,0.724
-0.01177230755982503,0.725
-0.016446739691630338,0.726
-0.01988306717511646,0.727
-0.02171139624385468,0.728
-0.021527596205584518,0.729
-0.01888552710322334,0.73
-0.013544719228784427,0.731
-0.005805410551695411,0.732
0.0033613111505494506,0.733
0.012529209491210488,0.734
0.020235540829326826,0.735
0.02535057711605208,0.736
0.027284515214395122,0.737
0.026055208154451007,0.738
0.022210814114315334,0.739
0.016569626352735737,0.74
0.009885335191791599,0.741
0.002668190661580973,0.742
-0.0047347640599028585,0.743
-0.01189574730162979,0.744
-0.01807910530742842,0.745
-0.022221579273800657,0.746
-0.023221447675545966,0.747
-0.020439171841322757,0.748
-0.01415450681254756,0.749
-0.005729428692481244,0.75
0.002641304126495411,0.751
0.008572492464099293,0.752
0.010339373652394197,0.753
0.0075259109670545235,0.754
0.0010927306611218796,0.755
-0.007093626079172148,0.756
-0.014884559386580756,0.757
-0.020295616118627832,0.758
-0.021748933748906928,0.759
-0.01830313418702415,0.76
-0.009979090111796093,0.761
0.0019596197913153333,0.762
0.015064326664895523,0.763
0.02629007097210124,0.764
0.0329554572989931,0.765
0.03356246646472957,0.766
0.028061656518676772,0.767
0.017668811685587735,0.768
0.004576187404898953,0.769
-0.008375623944837297,0.77
-0.0182175088717307,0.771
-0.02255478558247608,0.772
-0.020216763844450054,0.773
-0.011666725727685514,0.774
0.0009105146479338777,0.775
0.014000017830383668,0.776
0.023736998469235264,0.777
0.027209714264081884,0.778
0.023456434223026994,0.779
0.013668961371160611,0.78
0.0005911392396649216,0.781
-0.012514218669307527,0.782
-0.022801971541598735,0.783
-0.028376230394829158,0.784
-0.02847074539449249,0.785
-0.023454493594325526,0.786
-0.014756409736923506,0.787
-0.004627313893040104,0.788
0.004403751337186638,0.789
0.010289718722708657,0.79
0.01208961978161848,0.791
0.010124842771731622,0.792
0.00563601403464186,0.793
0.0001991521984848325,0.794
-0.004819768640505632,0.795
-0.008599687000320783,0.796
-0.010901370769517938,0.797
-0.011831660672447125,0.798
-0.01147640328115096,0.799
-0.009649811134007312,0.8
-0.0059727948711652545,0.801
-0.0002100993930081557,0.802
0.007414859431138128,0.803
0.016100099987561473,0.804
0.024530884246628106,0.805
0.031074363754013797,0.806
0.034064364821535485,0.807
0.032181989197687104,0.808
0.02491981291226364,0.809
0.012958170051292559,0.81
-0.0018352640421724267,0.811
-0.01687569971598678,0.812
-0.029527770641007225,0.813
-0.037670634415078764,0.814
-0.04010133225911374,0.815
-0.03675154205234151,0.816
-0.028651925744627216,0.817
-0.01764508811695959,0.818
-0.005903529171083849,0.819
0.004619884368077046,0.82
0.012596345988638624,0.821
0.01744871065361478,0.822
0.0192705841373247,0.823
0.01866467461294169,0.824
0.016532333361683887,0.825
0.013793578079251632,0.826
0.011099591193186252,0.827
0.008699548488830358,0.828
0.006561194362367263,0.829
0.004645406703342995,0.83
0.003075247024502229,0.831
0.0020170137618082586,0.832
0.0014300573469825755,0.833
0.0010205787375104148,0.834
0.000467035185957029,0.835
-0.00033529881051608956,0.836
-0.0012553228499614048,0.837
-0.002121687628560665,0.838
-0.002891769339399175,0.839
-0.0036460931412379168,0.84
-0.004534781248910972,0.841
-0.005751655833637581,0.842
-0.007410668174763323,0.843
-0.009350877280386234,0.844
-0.011091722720185727,0.845
-0.011988980749412442,0.846
-0.011452625785974708,0.847
-0.00915890958792621,0.848
-0.005220235290923124,0.849
-0.00020731604635672781,0.85
0.0050161164935379286,0.851
0.009558460740907236,0.852
0.012719761128175801,0.853
0.014079576103663517,0.854
0.013487728927806966,0.855
0.010994542806083776,0.856
0.006756430186510836,0.857
0.0010417248907828851,0.858
-0.00562442177517638,0.859
-0.012360807498518624,0.86
-0.018022410110181384,0.861
-0.021426676529391092,0.862
-0.021648726182307475,0.863
-0.018340724806694474,0.864
-0.011949896484623062,0.865
-0.0037005498716634715,0.866
0.004706032722807531,0.867
0.011591282919277782,0.868
0.015812231573919484,0.869
0.017062060000903476,0.87
0.015851251500950857,0.871
0.013281710767810876,0.872
0.010722893296976272,0.873
0.00936910865518856,0.874
0.009752939816092855,0.875
0.011462849994819625,0.876
0.013294703696445828,0.877
0.013851730895445141,0.878
0.012266885364053908,0.879
0.0085671917263649,0.88
0.0034858673036374664,0.881
-0.002034993352526511,0.882
-0.007250381548777022,0.883
-0.01173323696209757,0.884
-0.015291034973951635,0.885
-0.017840523718391534,0.886
-0.019334675789040134,0.887
-0.01974402317842378,0.888
-0.019047019317683645,0.889
-0.01719285465511511,0.89
-0.014068140306715427,0.891
-0.009548680628397045,0.892
-0.0036694709789705424,0.893
0.0031641833491833616,0.894
0.010081221681987523,0.895
0.015867502476801555,0.896
0.019277454847996166,0.897
0.01941268980506788,0.898
0.016024427829553094,0.899
0.009642811845626353,0.9
0.0014814842770694498,0.901
-0.006889564119401177,0.902
-0.014001510032074302,0.903
-0.018839797912222123,0.904
-0.0209192221753087,0.905
-0.02017753952841571,0.906
-0.016865589765720564,0.907
-0.01147458734730947,0.908
-0.0046699972634483035,0.909
0.0028038824975600797,0.91
0.010228701665060706,0.911
0.01695763692485009,0.912
0.02242783361640713,0.913
0.026259519325045978,0.914
0.028447186925996445,0.915
0.029395089458774292,0.916
0.029561401986526743,0.917
0.02890076640100566,0.918
0.0266336259022979,0.919
0.02162307036844227,0.92
0.013028739667774446,0.921
0.0007790853972599636,0.922
-0.01420257397982627,0.923
-0.029982755792376463,0.924
-0.04391424444759063,0.925
-0.0532757709128325,0.926
-0.0560815246534011,0.927
-0.051728662312654376,0.928
-0.04119479715812487,0.929
-0.026711687966124033,0.93
-0.011082224202432494,0.931
0.0030776451095648693,0.932
0.013930671469361881,0.933
0.020695673772741428,0.934
0.02358859980414895,0.935
0.023508781065055856,0.936
0.0216233984161986,0.937
0.019006660207391744,0.938
0.016418166280651077,0.939
0.014239024800038177,0.94
0.012503667258702564,0.941
0.01098087329024348,0.942
0.009337874351555633,0.943
0.007338991106236387,0.944
0.0049520035420386925,0.945
0.0023518719408787032,0.946
-0.00012466030697804334,0.947
-0.002100948125780868,0.948
-0.003355319107407761,0.949
-0.003962308841296708,0.95
-0.00426183259211541,0.951
-0.004676742613200017,0.952
-0.0054927763916219514,0.953
-0.0066870442456128,0.954
-0.00787503464174716,0.955
-0.008435137207304513,0.956
-0.007759220970833163,0.957
-0.005486050120149755,0.958
-0.0016079815592320477,0.959
0.0035397639546648845,0.96
0.009285968591386516,0.961
0.014565684588033364,0.962
0.017930283490137144,0.963
0.017786916847144417,0.964
0.01294171711778282,0.965
0.003376140323343053,0.966
-0.009221357459813728,0.967
-0.021766303586160198,0.968
-0.03088492183367849,0.969
-0.03415048170164756,0.97
-0.030827753636930792,0.971
-0.021933198276387154,0.972
-0.009734067130327347,0.973
0.0030976415511070063,0.974
0.014300221831688569,0.975
0.022390748132387298,0.976
0.026597106619474006,0.977
0.02675369753492787,0.978
0.02335146868359554,0.979
0.017518213023747876,0.98
0.010715670443369496,0.981
0.004267413591845181,0.982
-0.0010030697545822535,0.983
-0.004897703853242,0.984
-0.007761402282826639,0.985
-0.010195712565832168,0.986
-0.012650992975795505,0.987
-0.015123070577942776,0.988
-0.01712232911279172,0.989
-0.01793341995626306,0.99
-0.01702759768261031,0.991
-0.014345619772482499,0.992
-0.010232031066916145,0.993
-0.005108430710644711,0.994
0.0007818300417418407,0.995
0.007320894588274364,0.996
0.014222159932925558,0.997
0.02076020893065725,0.998
0.025762744275356637,0.999
0.027917647051261346,1.0
0.02626120929186722,1.001
0.02060667668337336,1.002
0.011704031204881657,1.003
0.001084241900188902,1.004
-0.009312060343976783,1.005
-0.017561364726346625,1.006
-0.022136707019189048,1.007
-0.02223002471833898,1.008
-0.017986156451487753,1.009
-0.010549602453009956,1.01
-0.0018276741006656091,1.011
0.006032827090444472,1.012
0.011312846118178127,1.013
0.013237124371347777,1.014
0.012035715963808936,1.015
0.008551178517318332,1.016
0.0037276521425254673,1.017
-0.0016760910560209433,1.018
-0.007065322152140154,1.019
-0.01183691620892548,1.02
-0.015244666262739175,1.021
-0.016417966141121048,1.022
-0.014604360143765758,1.023
-0.009579379712012486,1.024
-0.0019888505328080203,1.025
0.006622062773878695,1.026
0.01418619053758507,1.027
0.018782531819341062,1.028
0.01929109461853817,1.029
0.015744276274157767,1.03
0.009256500206154315,1.031
0.0015644856124991668,1.032
-0.005596008384342407,1.033
-0.010946209703460306,1.034
-0.0138157011897017,1.035
-0.014098341095760133,1.036
-0.012141351060449326,1.037
-0.008592490549965694,1.038
-0.0042236958897633615,1.039
0.00019853769192398194,1.04
0.003979944233135209,1.041
0.006565251865067157,1.042
0.007624315085312739,1.043
0.007100677248464919,1.044
0.005184298116629337,1.045
0.0022473679022290767,1.046
-0.0011929599963511996,1.047
-0.004494634788978947,1.048
-0.006959025977459226,1.049
-0.007982153011498655,1.05
-0.007292792750716345,1.051
-0.00517602479347497,1.052
-0.0024533402777679775,1.053
-0.0001515332782589936,1.054
0.0009159678020279427,1.055
0.00042955548696140434,1.056
-0.0013195660531414855,1.057
-0.003446502465696407,1.058
-0.004684515119054014,1.059
-0.00379879113903601,1.06
-1.1259032260615664e-05,1.061
0.006782754187267321,1.062
0.01602836382073736,1.063
0.02659571127172515,1.064
0.03678434467163499,1.065
0.04434463855207644,1.066
0.04684694604299707,1.067
0.04248027052511554,1.068
0.030817705437641063,1.069
0.013056389165421931,1.07
-0.008252679021756977,1.071
-0.02971079000833719,1.072
-0.04773373861324801,1.073
-0.059420928561618826,1.074
-0.06337972051203832,1.075
-0.0600021650250482,1.076
-0.05104616514893359,1.077
-0.038821772816389676,1.078
-0.025404561302745834,1.079
-0.012236414642695448,1.08
-0.00017794534235532399,1.081
0.010249927595400278,1.082
0.018703413156672635,1.083
0.024949760097031492,1.084
0.028777325453979388,1.085
0.02991398640693751,1.086
0.028109057580981492,1.087
0.023422731163577928,1.088
0.016541808677210088,1.089
0.008806682449259964,1.09
0.0018209146816317678,1.091
-0.0031534039153441875,1.092
-0.005677814800543326,1.093
-0.0062269950439611445,1.094
-0.005821974440807108,1.095
-0.00541297510428786,1.096
-0.005337829822511966,1.097
-0.005099286792004675,1.098
-0.0035560646384489095,1.099
0.0005203098100624115,1.1
0.007721215818337896,1.101
0.017451495169353556,1.102
0.02786628487248721,1.103
0.03633436063500272,1.104
0.04025111033062003,1.105
0.037928664409987475,1.106
0.02920232903133745,1.107
0.015483094714899195,1.108
-0.0007480875349741565,1.109
-0.016760676222422315,1.11
-0.03033949313714514,1.111
-0.04019686241525202,1.112
-0.045961400745464516,1.113
-0.04789486196912777,1.114
-0.04654952936477692,1.115
-0.04250703066490219,1.116
-0.036245361127375995,1.117
-0.028085092757895013,1.118
-0.018165007860486148,1.119
-0.006500520509027355,1.12
0.006783613934443566,1.121
0.021071835760087247,1.122
0.034935297790064546,1.123
0.04611565346797329,1.124
0.05194819760206581,1.125
0.05022824124183436,1.126
0.0402721400121354,1.127
0.023589635959218206,1.128
0.0036660241019158234,1.129
-0.015097730461957974,1.13
-0.02879035282916441,1.131
-0.03514595092239742,1.132
-0.0340372904477832,1.133
-0.027222214387804807,1.134
-0.017520054235253747,1.135
-0.007758914668881724,1.136
7.867967387925277e-05,1.137
0.005191450309562286,1.138
0.007766963560140189,1.139
0.00851639936410118,1.14
0.008242308665248365,1.141
0.00762147622555627,1.142
0.00717741828311534,1.143
0.007304121239905954,1.144
0.008194071524957193,1.145
0.00964108424458871,1.146
0.0109795699913041,1.147
0.011378050929940124,1.148
0.010228950211139442,1.149
0.007320462942575074,1.15
0.0028747429334888344,1.151
-0.002441920530348067,1.152
-0.0076514928901747145,1.153
-0.011746463911793088,1.154
-0.01395978331771127,1.155
-0.013948133420663193,1.156
-0.011911866554776177,1.157
-0.008592644765709362,1.158
-0.005074341067560347,1.159
-0.002486060054324986,1.16
-0.0017252169220149615,1.161
-0.0031659014844475737,1.162
-0.006390923117374834,1.163
-0.01014962182411111,1.164
-0.012652541988746643,1.165
-0.01209249042921649,1.166
-0.007157380326671316,1.167
0.0026149432608239694,1.168
0.016626171090797746,1.169
0.033140825204023235,1.17
0.049367150200131445,1.171
0.06167143523558865,1.172
0.06607170253051421,1.173
0.05933411588605291,1.174
0.04044743359295055,1.175
0.011534086802530683,1.176
-0.02245710638285425,1.177
-0.05511050738148023,1.178
-0.08030419890387346,1.179
-0.09366545365951198,1.18
-0.09337853511537357,1.181
-0.08035352872441699,1.182
-0.057802732003553264,1.183
-0.03031298659342974,1.184
-0.002678447967548681,1.185
0.02110737150993825,1.186
0.0384151771524964,1.187
0.048080888473979705,1.188
0.05022258426762344,1.189
0.04601983159657294,1.19
0.03751170914042081,1.191
0.027229815028228237,1.192
0.017588209735397018,1.193
0.01024257355720142,1.194
0.0057256786953330365,1.195
0.0034985900170030147,1.196
0.0023515099157331468,1.197
0.0009554975739004038,1.198
-0.0016768810007421493,1.199
-0.005926929233550735,1.2
-0.011471342388281448,1.201
-0.017324831260341914,1.202
-0.022000707552897274,1.203
-0.023798785251089888,1.204
-0.02127443699895271,1.205
-0.013784977695749961,1.206
-0.001832998738856381,1.207
0.0129630909790864,1.208
0.028219995839547606,1.209
0.041263500345268926,1.21
0.04951635087568723,1.211
0.05079522786814055,1.212
0.043694379518727976,1.213
0.028148458939245034,1.214
0.005959026968812113,1.215
-0.019206120785229208,1.216
-0.04262618310491337,1.217
-0.05981238625603271,1.218
-0.06763157109582202,1.219
-0.06489607829453725,1.22
-0.05243720988863002,1.221
-0.03289178273103501,1.222
-0.010262761991148374,1.223
0.010921318829186797,1.224
0.026774357899087234,1.225
0.035033931628573316,1.226
0.035397410781802544,1.227
0.029239234101516638,1.228
0.018985705807712607,1.229
0.0073717318700323555,1.23
-0.003208653341793226,1.231
-0.011098124905028399,1.232
-0.015494954128421676,1.233
-0.01633825121311088,1.234
-0.014019605330603455,1.235
-0.009095667329386931,1.236
-0.0022339445077804703,1.237
0.005624147349050238,1.238
0.013157371849329922,1.239
0.018841720596277246,1.24
0.021385228255172795,1.241
0.020153741555281497,1.242
0.015301609318750216,1.243
0.007609114404593273,1.244
-0.0016744276763025925,1.245
-0.010848415433717916,1.246
-0.01789333321762531,1.247
-0.020897931755665834,1.248
-0.018614333144383075,1.249
-0.01091623653356966,1.25
0.0009478202045503985,1.251
0.014402011751363962,1.252
0.026026318431240647,1.253
0.03250738300676074,1.254
0.03176576982013613,1.255
0.02372123229045583,1.256
0.010324645235536362,1.257
-0.00509909365625829,1.258
-0.018856776818081292,1.259
-0.02788135418868263,1.26
-0.03049835176405845,1.261
-0.026815464392518657,1.262
-0.01859983771333429,1.263
-0.008607771852389243,1.264
0.00044236864999459315,1.265
0.006755160807471069,1.266
0.00972445505661048,1.267
0.009625324772853067,1.268
0.007144798529454754,1.269
0.003030890808483663,1.27
-0.0020787831489866744,1.271
-0.007639365837363666,1.272
-0.013036515419245553,1.273
-0.017419117154817663,1.274
-0.019667758066369067,1.275
-0.01857486181829744,1.276
-0.013243741392329126,1.277
-0.003586942325971029,1.278
0.009316204206294648,1.279
0.023187454467463064,1.28
0.03491542515893777,1.281
0.04137254124154985,1.282
0.0404942974817279,1.283
0.03206991577164908,1.284
0.01787248753456759,1.285
0.001178668219749994,1.286
-0.01418700709858328,1.287
-0.02503284908620513,1.288
-0.02973200712171393,1.289
-0.028520456157926415,1.29
-0.02312436949612212,1.291
-0.015976874917019903,1.292
-0.009363894330315104,1.293
-0.004802493689504534,1.294
-0.0028397801131218106,1.295
-0.003185700669021409,1.296
-0.004919869170234575,1.297
-0.00665440467885542,1.298
-0.0067668736583496375,1.299
-0.0038181482075200245,1.3
0.0029348174082126457,1.301
0.013119633024523058,1.302
0.025088030639151385,1.303
0.03616561395202436,1.304
0.04331736143803159,1.305
0.04399234243938349,1.306
0.03688433092927232,1.307
0.022458425217315774,1.308
0.003035596733017229,1.309
-0.01775708638222861,1.31
-0.03599648349412688,1.311
-0.04848272747557139,1.312
-0.05342822506706814,1.313
-0.050675210391024794,1.314
-0.04144329857828896,1.315
-0.02780425692755775,1.316
-0.01217149946142315,1.317
0.0031146302185362735,1.318
0.016181638026040154,1.319
0.02592041209807005,1.32
0.03199702594243966,1.321
0.034522636374406016,1.322
0.03357895364379631,1.323
0.029056814885994642,1.324
0.02105988854567688,1.325
0.01046257640785963,1.326
-0.001001610240074561,1.327
-0.011252255119070844,1.328
-0.01860677519277551,1.329
-0.022281655159352497,1.33
-0.02243679861685844,1.331
-0.019891746572371152,1.332
-0.015708444028857904,1.333
-0.010792513097053383,1.334
-0.0056809372570904345,1.335
-0.0006035305720381803,1.336
0.0042746124668918365,1.337
0.008651102004060893,1.338
0.012065574796746368,1.339
0.013991604219564018,1.34
0.013940782200090027,1.341
0.011621634054220654,1.342
0.007168953317547378,1.343
0.001273293841303629,1.344
-0.004935787327445014,1.345
-0.01018731859129707,1.346
-0.013352509562679644,1.347
-0.013584933130678548,1.348
-0.010395120742371306,1.349
-0.0037814316044120465,1.35
0.0056523427923138745,1.351
0.016702350053481897,1.352
0.027626022875113895,1.353
0.03619866407268092,1.354
0.03995619756360825,1.355
0.03682790599029655,1.356
0.02597926070346921,1.357
0.008417381890762344,1.358
-0.012993034023052942,1.359
-0.03419515458218284,1.36
-0.051053167619620324,1.361
-0.060468987804402706,1.362
-0.06110862656248316,1.363
-0.053548236974028295,1.364
-0.03986124754542595,1.365
-0.022823644907246442,1.366
-0.005060614869973014,1.367
0.011479412840108096,1.368
0.025523890082657364,1.369
0.03614626517359397,1.37
0.042534935673314414,1.371
0.04405972247761632,1.372
0.0405424119652278,1.373
0.032576069882125434,1.374
0.021651667371517965,1.375
0.009852884822607502,1.376
-0.0008009243838342376,1.377
-0.008969931183254535,1.378
-0.014207212236245216,1.379
-0.016719207683814505,1.38
-0.016936773628443758,1.381
-0.015245013743187546,1.382
-0.01200605881636917,1.383
-0.0076997695459567845,1.384
-0.0029545318115188133,1.385
0.0015297496733322233,1.386
0.005041205106371764,1.387
0.0069030822646781636,1.388
0.006606623044481841,1.389
0.004019194438106969,1.39
-0.00048033602005165716,1.391
-0.00604395883973128,1.392
-0.01151963342046398,1.393
-0.01565235427244571,1.394
-0.017314239680285424,1.395
-0.015742117572885714,1.396
-0.010701175230249865,1.397
-0.0025346818486800585,1.398
0.007844703548789652,1.399
0.01895590440192731,1.4
0.028773102623255425,1.401
0.03492819334442157,1.402
0.035308977924090976,1.403
0.028981164559443523,1.404
0.016830730452516464,1.405
0.0013832625046460783,1.406
-0.014055079801923139,1.407
-0.026389495652800226,1.408
-0.033448195171682814,1.409
-0.034297946575077,1.41
-0.029243984291166574,1.411
-0.019655562471408112,1.412
-0.0077490240767530425,1.413
0.0037243776590863333,1.414
0.012087709931661587,1.415
0.015566971638946756,1.416
0.013880750411858503,1.417
0.008222667167170952,1.418
0.0007245732230945083,1.419
-0.006229614210628169,1.42
-0.010593939364543796,1.421
-0.011150303475897898,1.422
-0.007848056847369988,1.423
-0.0017692025756269848,1.424
0.0053306376792790315,1.425
0.011631335474486939,1.426
0.015722562986472642,1.427
0.016854222535347994,1.428
0.014995770019191754,1.429
0.010744816789238042,1.43
0.005093781457232376,1.431
-0.000905941222345344,1.432
-0.006450788288754573,1.433
-0.011099506788285238,1.434
-0.014621336519672807,1.435
-0.01669503132160886,1.436
-0.0167333347773435,1.437
-0.014058176843076406,1.438
-0.008389143571308448,1.439
-0.0003190604203215175,1.44
0.008607673000781281,1.441
0.01635503080127468,1.442
0.021147516975192175,1.443
0.022057529728806216,1.444
0.01915044746972867,1.445
0.013256154093233465,1.446
0.005604186624016909,1.447
-0.0025202345996359777,1.448
-0.010035535493298053,1.449
-0.01614756281120874,1.45
-0.020247320907087474,1.451
-0.021799614521548785,1.452
-0.020407728774724576,1.453
-0.01604694898951814,1.454
-0.009264961709484163,1.455
-0.001143014905921262,1.456
0.006986751402987349,1.457
0.013876614721458258,1.458
0.01855318124899612,1.459
0.02035585786692123,1.46
0.01902902904540914,1.461
0.014982877906011613,1.462
0.009458927799291682,1.463
0.004227461203988061,1.464
0.0008416787617933503,1.465
-0.00011354810332080355,1.466
0.0007159353975328394,1.467
0.0018961491145955522,1.468
0.002050293870272284,1.469
0.0004797533131081479,1.47
-0.0027603164226037724,1.471
-0.007150767151368714,1.472
-0.012051939160256073,1.473
-0.016878023146385243,1.474
-0.021048119367176953,1.475
-0.023889328480663188,1.476
-0.024716961002696453,1.477
-0.02310361129747093,1.478
-0.019100220441096005,1.479
-0.013204981497447681,1.48
-0.006140228500211737,1.481
0.0013650884810386425,1.482
0.008649335141130454,1.483
0.015043509199178299,1.484
0.019783065516953108,1.485
0.02214493082989011,1.486
0.02193916717220905,1.487
0.020058434761164676,1.488
0.018532291903119148,1.489
0.01981993983540189,1.49
0.025530450546334404,1.491
0.035061886498398684,1.492
0.044871475820885735,1.493
0.04920526944569327,1.494
0.04256355437777454,1.495
0.022707237473329502,1.496
-0.0077867290406649055,1.497
-0.042247771001488875,1.498
-0.07220854198917132,1.499
-0.09018063348926267,1.5
-0.0919967426914408,1.501
-0.07801152140213397,1.502
-0.05274316131944194,1.503
-0.023108033861976636,1.504
0.003958054642548898,1.505
0.02351378173286718,1.506
0.03357632139987856,1.507
0.03493963125362785,1.508
0.03027337966986918,1.509
0.022999500653166912,1.51
0.016262853498102227,1.511
0.012154504763437619,1.512
0.011296112338764474,1.513
0.012921835766676906,1.514
0.01545964263980495,1.515
0.017295598698622974,1.516
0.01731179279021282,1.517
0.015069104282266115,1.518
0.010754467543129075,1.519
0.005025241093294877,1.52
-0.0011791099924230613,1.521
-0.006851721617144749,1.522
-0.0111709054549765,1.523
-0.013722944677449035,1.524
-0.014565981215596397,1.525
-0.014091529164320249,1.526
-0.012788899203136108,1.527
-0.011068991157236396,1.528
-0.009231808008028015,1.529
-0.007538488640520145,1.53
-0.006250042971358523,1.531
-0.005496597751010086,1.532
-0.005028909612879601,1.533
-0.00414640273361044,1.534
-0.002015221685656286,1.535
0.0017934617314670236,1.536
0.0069273738270920265,1.537
0.012290649637219668,1.538
0.01644773753700677,1.539
0.018133650181309212,1.54
0.016663177762212385,1.541
0.012152390078211592,1.542
0.0054932142981081915,1.543
-0.001870017283659001,1.544
-0.008213882329137877,1.545
-0.01181323369455462,1.546
-0.01129126705914041,1.547
-0.006073809395859346,1.548
0.0031463415132539536,1.549
0.014176877951913342,1.55
0.02363827221497609,1.551
0.02796738780414931,1.552
0.024807017598057694,1.553
0.01405661905439719,1.554
-0.002045249368520289,1.555
-0.019791520183742264,1.556
-0.03521882450000149,1.557
-0.04510576523386129,1.558
-0.04761707925897448,1.559
-0.04257745384922076,1.56
-0.0313461320338356,1.561
-0.016393651236412277,1.562
-0.0007078484425299954,1.563
0.012906545060017854,1.564
0.02247183332962313,1.565
0.027181216815175782,1.566
0.027374247558914086,1.567
0.024268911418650743,1.568
0.01951944350431272,1.569
0.01462663175960081,1.57
0.01043786010533087,1.571
0.007057890059297341,1.572
0.0041763391820617305,1.573
0.0014750067737023382,1.574
-0.0011733179463275694,1.575
-0.003688148230372315,1.576
-0.005813364110462191,1.577
-0.00720253411948052,1.578
-0.007591613300215983,1.579
-0.0069736185018936326,1.58
-0.005643794709372831,1.581
-0.004100462069898187,1.582
-0.002884832509783496,1.583
-0.0024096969534833897,1.584
-0.0028035221772610393,1.585
-0.003832633995455877,1.586
-0.004993035094863018,1.587
-0.005777164235835509,1.588
-0.005928267540158216,1.589
-0.005480626784955643,1.59
-0.004590573758398218,1.591
-0.0033151079503091706,1.592
-0.0015020924695594083,1.593
0.0011361466697897957,1.594
0.004834812796867298,1.595
0.009632231586151735,1.596
0.015369159832912177,1.597
0.021734862300130692,1.598
0.028159793265704912,1.599
0.0335554685625614,1.6
0.036190263876694787,1.601
0.034021104714605524,1.602
0.025541718579859485,1.603
0.010746589770762966,1.604
-0.008463699054525249,1.605
-0.02869915148979199,1.606
-0.04601544857917509,1.607
-0.05698785880768251,1.608
-0.059601051909842655,1.609
-0.05368426284355792,1.61
-0.0408354145180716,1.611
-0.023947302657183037,1.612
-0.0064712970069152895,1.613
0.00843583808930442,1.614
0.01863533718112515,1.615
0.023328751229481,1.616
0.02293735013227954,1.617
0.01875139101255582,1.618
0.01259080912881489,1.619
0.006534590566542026,1.62
0.002561972014300416,1.621
0.001996589388262764,1.622
0.0049624020390351565,1.623
0.010249370716782556,1.624
0.015790870377425267,1.625
0.019532943371725238,1.626
0.020202012091473147,1.627
0.01762153957573902,1.628
0.01257437318052058,1.629
0.00635883817303238,1.63
0.00024157589678293614,1.631
-0.0049257669800530455,1.632
-0.008782163470970585,1.633
-0.011301951875452455,1.634
-0.01261087986500268,1.635
-0.012897023485972863,1.636
-0.012372882990139144,1.637
-0.011261719622729602,1.638
-0.009799615753442643,1.639
-0.008182493885271837,1.64
-0.006458363453458578,1.641
-0.004494973074807391,1.642
-0.002135885252510534,1.643
0.0005708348162894274,1.644
0.003304101509372722,1.645
0.005599291079097846,1.646
0.007046720760469027,1.647
0.0074459673842562964,1.648
0.006846691878431799,1.649
0.0054588482647037724,1.65
0.003506093385344561,1.651
0.0011341914227116605,1.652
-0.0015455708758153634,1.653
-0.004302591383340257,1.654
-0.006705272856243498,1.655
-0.008235287393916331,1.656
-0.00847591855931158,1.657
-0.0072005990013610625,1.658
-0.004357448642213727,1.659
-6.683009690952836e-05,1.66
0.005307719380162739,1.661
0.011058824259911237,1.662
0.016080270324409618,1.663
0.018953981938087068,1.664
0.018316064396930665,1.665
0.013515561645155647,1.666
0.005213387926813412,1.667
-0.004576531892830622,1.668
-0.013109515411490172,1.669
-0.01787741962354191,1.67
-0.0175238508363578,1.671
-0.012349727256504186,1.672
-0.004196564603004573,1.673
0.004183749438658446,1.674
0.0099651587941231,1.675
0.01106592131108931,1.676
0.0068145605815929525,1.677
-0.0017675598994417925,1.678
-0.012267743904750487,1.679
-0.021674748134549924,1.68
-0.02734780541801646,1.681
-0.02779916078212266,1.682
-0.02302786635638484,1.683
-0.014378316346087749,1.684
-0.004031408537661614,1.685
0.005763754430991029,1.686
0.013504793772761052,1.687
0.01891879887618779,1.688
0.022800422301021216,1.689
0.02625063530385639,1.69
0.029748863894831442,1.691
0.032604311902134406,1.692
0.03315771810706658,1.693
0.02971053876602345,1.694
0.02160635202240917,1.695
0.009766023346230656,1.696
-0.003515955709440211,1.697
-0.015311409821898908,1.698
-0.023043319272384698,1.699
-0.025369402957616204,1.7
-0.022665441240287455,1.701
-0.01693096324075196,1.702
-0.011072302800019423,1.703
-0.007727519713270181,1.704
-0.008112900370953713,1.705
-0.01155068031943017,1.706
-0.01596070090224263,1.707
-0.018925786482771892,1.708
-0.018673490137656425,1.709
-0.014562287490910809,1.71
-0.007062362797770371,1.711
0.0025480572423360708,1.712
0.012568221999239263,1.713
0.02123279652883204,1.714
0.026975902695288125,1.715
0.028610437978893243,1.716
0.025538508528101835,1.717
0.018001546199022833,1.718
0.007158143821919666,1.719
-0.005131324592037189,1.72
-0.016680938014017176,1.721
-0.025381371808098577,1.722
-0.02960997751011966,1.723
-0.02859828713540392,1.724
-0.022615125036327385,1.725
-0.012856680563128801,1.726
-0.0010626444326526925,1.727
0.0110053924519547,1.728
0.02197398352443418,1.729
0.03088978278680389,1.73
0.03687595051501697,1.731
0.038821742104070474,1.732
0.03559053308657102,1.733
0.026734384279330514,1.734
0.013125302244818868,1.735
-0.003008320267372495,1.736
-0.018661345449585233,1.737
-0.030977192208497394,1.738
-0.03810958024512226,1.739
-0.03962284373064915,1.74
-0.0363038133020251,1.741
-0.029585230282928074,1.742
-0.020928622870643673,1.743
-0.011451309638311329,1.744
-0.001925994631055895,1.745
0.006939061658444899,1.746
0.01425611604136493,1.747
0.019054391403715797,1.748
0.020684170986048737,1.749
0.019184401542551355,1.75
0.015350144260552173,1.751
0.010511272728595129,1.752
0.006159072369890429,1.753
0.0035429819315640062,1.754
0.0033371156277969107,1.755
0.005459717451006409,1.756
0.009087164264669462,1.757
0.012873638553437485,1.758
0.015340871690088817,1.759
0.0153011272178281,1.76
0.012158861184078856,1.761
0.006030937786513552,1.762
-0.002314366872114809,1.763
-0.011658130225015157,1.764
-0.020586930944877613,1.765
-0.027735502830392635,1.766
-0.03197731363533914,1.767
-0.03255975540398001,1.768
-0.02920796126131175,1.769
-0.022198785446312222,1.77
-0.012385909430740165,1.771
-0.0011337211754906058,1.772
0.009892328614931268,1.773
0.019027628549000582,1.774
0.02489022606006801,1.775
0.02663579108185765,1.776
0.024171469035162024,1.777
0.01820562995776676,1.778
0.010084564667952212,1.779
0.0014956264659297584,1.78
-0.0058728713730374854,1.781
-0.010670953970945734,1.782
-0.012180823670998103,1.783
-0.010487782847574102,1.784
-0.006479268647263222,1.785
-0.0016269783588071583,1.786
0.002489980028684926,1.787
0.0047850772557304615,1.788
0.0050299450647892765,1.789
0.0037390960290979236,1.79
0.0017395990816041992,1.791
-0.00024202843800748714,1.792
-0.0018026619452487227,1.793
-0.0028619845419314664,1.794
-0.003502284040038121,1.795
-0.0037894447380945858,1.796
-0.00369696075255969,1.797
-0.003148982939872444,1.798
-0.0021058972802407063,1.799
-0.0006093398050767687,1.8
0.0012319672123993362,1.801
0.0032658538732132777,1.802
0.005300014001541145,1.803
0.007099603699565489,1.804
0.008385063142241076,1.805
0.008826498265539332,1.806
0.008055550571446435,1.807
0.005760771632658709,1.808
0.0018942401319574063,1.809
-0.0031204957263904812,1.81
-0.008352883614650801,1.811
-0.01257561955977156,1.812
-0.01464463063659821,1.813
-0.013896227367599382,1.814
-0.010406709768725342,1.815
-0.005017806925438476,1.816
0.0009108479336321317,1.817
0.0059887037095454985,1.818
0.009295547684305594,1.819
0.01058133439456055,1.82
0.010089271315977484,1.821
0.008232185846619168,1.822
0.005386933986103887,1.823
0.0018771303060928753,1.824
-0.001945015815721518,1.825
-0.005627105623528879,1.826
-0.008625487235935198,1.827
-0.010394963363083867,1.828
-0.010496296479950436,1.829
-0.008692901393883743,1.83
-0.005059561002128077,1.831
-6.734702579331288e-05,1.832
0.005440114240907985,1.833
0.01042053261766255,1.834
0.013913458883962915,1.835
0.015275330462540213,1.836
0.014250663534892903,1.837
0.010926187186569247,1.838
0.005640367823059394,1.839
-0.0011117843993177629,1.84
-0.008695790261858334,1.841
-0.016247882221077103,1.842
-0.02258025906859887,1.843
-0.026230224777842384,1.844
-0.025764971541386374,1.845
-0.02030410337336214,1.846
-0.010028035048709031,1.847
0.0035896896415428367,1.848
0.017964994937876972,1.849
0.029977306431971603,1.85
0.036752389354367775,1.851
0.036440609289922925,1.852
0.02884914855954238,1.853
0.01569897726247358,1.854
0.00020727011560472933,1.855
-0.013939232420395582,1.856
-0.02370480635023642,1.857
-0.027433916052145464,1.858
-0.025047466336362807,1.859
-0.017839143457853517,1.86
-0.008055105044882119,1.861
0.0016839337986128851,1.862
0.009076491009723778,1.863
0.012754457598492148,1.864
0.012561672362477521,1.865
0.009372660057206893,1.866
0.004576728917609013,1.867
-0.00046117372839598865,1.868
-0.004730667143014839,1.869
-0.0076666408957639974,1.87
-0.009081227324765177,1.871
-0.009040824949968098,1.872
-0.00775707196908654,1.873
-0.005524276163872396,1.874
-0.002698770018409003,1.875
0.00032309872514235574,1.876
0.0031360523764891093,1.877
0.005341200040292426,1.878
0.006587991331603676,1.879
0.006696073312284899,1.88
0.005773412714126288,1.881
0.004199579702321724,1.882
0.002474847961060267,1.883
0.001037713881577673,1.884
0.0001506577637274909,1.885
-0.00011450649345676773,1.886
0.00016282103044772993,1.887
0.0008051221908487535,1.888
0.0015982614499921912,1.889
0.0023355606037218667,1.89
0.0028207720048703576,1.891
0.0028741263116222656,1.892
0.002380006711305764,1.893
0.0013264859855763808,1.894
-0.0002122755361366601,1.895
-0.002117893184953121,1.896
-0.00423498814280304,1.897
-0.00633330857823684,1.898
-0.00807298728080706,1.899
-0.009036849491058698,1.9
-0.008847187557479444,1.901
-0.0073170514988493045,1.902
-0.004564207693395815,1.903
-0.001045217364340123,1.904
0.0025073170002485293,1.905
0.005266409711814366,1.906
0.006578294075819784,1.907
0.006181646321233573,1.908
0.004291120588588094,1.909
0.001568838642396674,1.91
-0.0010201217573626723,1.911
-0.002492391976699884,1.912
-0.002201174336290722,1.913
-0.0001320217699459314,1.914
0.00300476940696007,1.915
0.0060182703759910266,1.916
0.007756513097556341,1.917
0.007590818776955302,1.918
0.005595636009210453,1.919
0.002410909531946262,1.92
-0.0010754725641001427,1.921
-0.004060989930386437,1.922
-0.006026978835921416,1.923
-0.006763061650042984,1.924
-0.006299413647069464,1.925
-0.00483461451022406,1.926
-0.0027022058138344747,1.927
-0.0003807166579384748,1.928
0.0015082270681577637,1.929
0.0023303664913599397,1.93
0.0017130492471861794,1.931
-0.0002356398221537928,1.932
-0.0029590760042794493,1.933
-0.005693514139120026,1.934
-0.0076956343082331576,1.935
-0.008321583497325561,1.936
-0.007058343750987748,1.937
-0.0036195031211781878,1.938
0.0019468586221303204,1.939
0.009163792922044578,1.94
0.017002302180691063,1.941
0.023851139752881223,1.942
0.02781002647997273,1.943
0.027311777519153563,1.944
0.0217756277980451,1.945
0.011940665336120149,1.946
-0.0003011302584816335,1.947
-0.012490784405264108,1.948
-0.022331128373997325,1.949
-0.028285992620185572,1.95
-0.029865388727853874,1.951
-0.02753054384364565,1.952
-0.02233379088562418,1.953
-0.015528130080273548,1.954
-0.008320401320693708,1.955
-0.0017685312071142574,1.956
0.0032780342544399483,1.957
0.006271975365373526,1.958
0.007085843635382275,1.959
0.006071632741873576,1.96
0.003993648428049386,1.961
0.0018309066352457531,1.962
0.000508931000970597,1.963
0.0006456171091796139,1.964
0.002382123400608717,1.965
0.00536564780204589,1.966
0.008895355852899346,1.967
0.012133886473969395,1.968
0.014284985495858049,1.969
0.014752273214921008,1.97
0.013321873557680587,1.971
0.010280909580025515,1.972
0.006321063217949452,1.973
0.0022422236841429526,1.974
-0.0013416727143144493,1.975
-0.004131620392434492,1.976
-0.00609710428251815,1.977
-0.0073285757475204955,1.978
-0.007904446722917752,1.979
-0.007853900305877013,1.98
-0.007205979882148026,1.981
-0.006076552670428468,1.982
-0.00471792707241663,1.983
-0.0034745826319435556,1.984
-0.002684313780959539,1.985
-0.002593401272126704,1.986
-0.003291536043639699,1.987
-0.004649714134424302,1.988
-0.00629421702997267,1.989
-0.007654705605276864,1.99
-0.008079636825183355,1.991
-0.007006184015488645,1.992
-0.004162131076738722,1.993
0.0002782692065895148,1.994
0.005685101613414477,1.995
0.011110417191041184,1.996
0.01547215796605353,1.997
0.017759195496107903,1.998
0.01730012854808645,1.999
0.014013361084622526,2.0
0.008465896360720636,2.001
0.0016993453841526824,2.002
-0.005056185186557882,2.003
-0.010655643613168292,2.004
-0.014238502349718634,2.005
-0.015324564209120019,2.006
-0.01382809449455278,2.007
-0.010039746602641366,2.008
-0.004576176993589899,2.009
0.001715557872975134,2.01
0.00787557057481305,2.011
0.01295303240823895,2.012
0.01614195393219989,2.013
0.016929702067672473,2.014
0.015203756466750849,2.015
0.01125372125318365,2.016
0.0056947102918181326,2.017
-0.0006078167265684058,2.018
-0.00662373480467196,2.019
-0.0113520288763505,2.02
-0.014111156513964176,2.021
-0.01475475093700582,2.022
-0.013677549670241254,2.023
-0.011622273150098839,2.024
-0.009375958351846738,2.025
-0.007473353975345224,2.026
-0.0060108084426733184,2.027
-0.004648324794488236,2.028
-0.002849540510073657,2.029
-0.000265386840567906,2.03
0.0029546568749947992,2.031
0.00611514241121668,2.032
0.008286010304385506,2.033
0.008832545179718767,2.034
0.007788590793393954,2.035
0.005784901101741682,2.036
0.003625835378674739,2.037
0.0018742370498813375,2.038
0.0006839360177936822,2.039
-0.00012019783696561007,2.04
-0.0008206269191582808,2.041
-0.0015836228894436065,2.042
-0.0023494282784657563,2.043
-0.0028699310176910865,2.044
-0.0028413212669459393,2.045
-0.0020404571410169727,2.046
-0.00039693820103840034,2.047
0.0020073098590454603,2.048
0.004945398715221574,2.049
0.008007674330679861,2.05
0.01058772090353066,2.051
0.011986100497592304,2.052
0.011623840170996954,2.053
0.009290287480600729,2.054
0.005287050376015721,2.055
0.00034105819018296507,2.056
-0.004642222261864604,2.057
-0.008812322123489934,2.058
-0.01152653906997266,2.059
-0.012422050183239074,2.06
-0.01141957973158004,2.061
-0.008722493547078434,2.062
-0.004852453119981542,2.063
-0.0006302111132566341,2.064
0.0029906240270478404,2.065
0.0051815990639823,2.066
0.005485940742928177,2.067
0.003967323998090959,2.068
0.0011825630865189769,2.069
-0.0020125557892546864,2.07
-0.0047380015652574705,2.071
-0.006349688018727381,2.072
-0.0065796858943205465,2.073
-0.005532998241995106,2.074
-0.0036252162978556157,2.075
-0.0014889421853540588,2.076
0.00019183317087388154,2.077
0.0009057834383069754,2.078
0.0005003741631617098,2.079
-0.0007811089199876053,2.08
-0.0024236163694935364,2.081
-0.0038265551530896496,2.082
-0.004460105235917824,2.083
-0.003963279314544997,2.084
-0.0021844465672591234,2.085
0.0007824104180349894,2.086
0.004502713825763091,2.087
0.00817031270050971,2.088
0.01085441054612602,2.089
0.01195316894105273,2.09
0.01149088474412737,2.091
0.010020159684060873,2.092
0.008258911871926547,2.093
0.0067497738072318575,2.094
0.005699502016421613,2.095
0.004996133277842194,2.096
0.004326236674580729,2.097
0.0033016318935970277,2.098
0.001573146722803154,2.099
-0.0010236690359300773,2.1
-0.004320102636330692,2.101
-0.0077897008630788914,2.102
-0.01071293638435894,2.103
-0.012444957515377027,2.104
-0.012637629715995188,2.105
-0.011339903960746212,2.106
-0.008972364594807701,2.107
-0.006185975873003887,2.108
-0.0036353355718104162,2.109
-0.001754996999548279,2.11
-0.000679396886225921,2.111
-0.0003524771050581068,2.112
-0.0006886722762291495,2.113
-0.0016070723780162565,2.114
-0.002899751506089356,2.115
-0.004095655491544724,2.116
-0.004526762745274827,2.117
-0.003592169692480447,2.118
-0.0010468290997500851,2.119
0.002819306183839565,2.12
0.007191834203636688,2.121
0.010972482374850975,2.122
0.013184245161279962,2.123
0.013366244002878645,2.124
0.011748600153368835,2.125
0.009089820685582685,2.126
0.006275526321963913,2.127
0.003931965501072726,2.128
0.002259608759471683,2.129
0.0011361787138394982,2.13
0.00035093129131489524,2.131
-0.00024849697008332564,2.132
-0.0007566847319389083,2.133
-0.0012539415157131477,2.134
-0.0018140519533048002,2.135
-0.002488594617326123,2.136
-0.003301762072898221,2.137
-0.004248490276478344,2.138
-0.005273971644791825,2.139
-0.006251753878241117,2.14
-0.007001960939441962,2.141
-0.007356323182992088,2.142
-0.007223237440047403,2.143
-0.006598695355597094,2.144
-0.00553053691961746,2.145
-0.004099682976230965,2.146
-0.0024402984903892895,2.147
-0.0007467887205365275,2.148
0.0007815686771599609,2.149
0.002029969367308842,2.15
0.0030071472772279484,2.151
0.003792468516259195,2.152
0.004424236666196222,2.153
0.004795679677206199,2.154
0.004632315703965043,2.155
0.0035968933046532556,2.156
0.0014791290603947316,2.157
-0.0016345052996613052,2.158
-0.0052748104541900515,2.159
-0.008615479142756677,2.16
-0.010641721220658672,2.161
-0.010442040669018993,2.162
-0.0075279065448635414,2.163
-0.0020686861791864505,2.164
0.005059521677193288,2.165
0.012476607989937437,2.166
0.018693628824065545,2.167
0.022517971439873607,2.168
0.02330530977285671,2.169
0.021012480518308917,2.17
0.016110621265818897,2.171
0.009447765252543134,2.172
0.002092305934826499,2.173
-0.004859622090093224,2.174
-0.01049255447513761,2.175
-0.014237346016779093,2.176
-0.015950428958017276,2.177
-0.01587955903213865,2.178
-0.014521283175775945,2.179
-0.012443013842742328,2.18
-0.010155743325737081,2.181
-0.008054332689037274,2.182
-0.0063849347080559265,2.183
-0.005206207093582295,2.184
-0.00436119405989737,2.185
-0.003506807417541271,2.186
-0.002220135289406622,2.187
-0.00015767096299532126,2.188
0.0027915228102045886,2.189
0.006422651599274896,2.19
0.01020757819368879,2.191
0.013341773948965121,2.192
0.014883691828604563,2.193
0.014024955774080469,2.194
0.010411154656916366,2.195
0.0043443648115446196,2.196
-0.00323715367268153,2.197
-0.010972508599545003,2.198
-0.017371575148652566,2.199
-0.021072905230252775,2.2
-0.021051687527847647,2.201
-0.01684191144185488,2.202
-0.008770425233511677,2.203
0.0019163225715797096,2.204
0.01319526074061885,2.205
0.02271780421876898,2.206
0.028406240119746577,2.207
0.028985456683662984,2.208
0.024335123530781353,2.209
0.015594592137662766,2.21
0.004916353165642696,2.211
-0.00516495870517561,2.212
-0.012526253367889,2.213
-0.016044302658964376,2.214
-0.015770225347492253,2.215
-0.012706026258316822,2.216
-0.008316293787290818,2.217
-0.0039907600352090955,2.218
-0.0006726812759821011,2.219
0.0012493599128766124,2.22
0.0018299827384359803,2.221
0.0013710632366754395,2.222
0.0002616872487826558,2.223
-0.0011111777662357678,2.224
-0.0024144055723299297,2.225
-0.003421908741005831,2.226
-0.004057682262508744,2.227
-0.004388776179064959,2.228
-0.004553306622833836,2.229
-0.004650489959803617,2.23
-0.004663494681088339,2.231
-0.00446802231376956,2.232
-0.0038862399943649416,2.233
-0.0027212118487643985,2.234
-0.0007966073544247041,2.235
0.001950688261145521,2.236
0.005372287351000953,2.237
0.00907171092170774,2.238
0.012427229137822099,2.239
0.01468907025572121,2.24
0.015205586090134884,2.241
0.013686724808153439,2.242
0.010269327902194045,2.243
0.005342748295514819,2.244
-0.0006220416763750185,2.245
-0.0070520113664299285,2.246
-0.01315378888462632,2.247
-0.01790925091640463,2.248
-0.020267614346641517,2.249
-0.01945460096931184,2.25
-0.015248725177916988,2.251
-0.008117153728482315,2.252
0.0007994192988910372,2.253
0.009846176570520532,2.254
0.017177540350415254,2.255
0.021227690711755773,2.256
0.021188975235622326,2.257
0.017281000475408,2.258
0.010690049407072383,2.259
0.0031819821054115947,2.26
-0.0034949157616461536,2.261
-0.00814503779919566,2.262
-0.0103446089382342,2.263
-0.010334552036463262,2.264
-0.008769229951013095,2.265
-0.006466692137181419,2.266
-0.004195185353291271,2.267
-0.0025197391459302124,2.268
-0.0017298127896855334,2.269
-0.0018256809458031377,2.27
-0.002543471445838078,2.271
-0.0034460878956249657,2.272
-0.004095418271874596,2.273
-0.00423065687996655,2.274
-0.0038507726865347467,2.275
-0.003158857778347766,2.276
-0.0024032396568374106,2.277
-0.0017211327376584148,2.278
-0.0010678129595647872,2.279
-0.00023569773805887857,2.28
0.001057602440514626,2.281
0.003040909925348673,2.282
0.005762239294141277,2.283
0.009004918587511674,2.284
0.012263843639852662,2.285
0.014790780687397724,2.286
0.01578243201504154,2.287
0.014723796347107552,2.288
0.01164201453292671,2.289
0.007020369183383328,2.29
0.0014895925342277227,2.291
-0.004389153779929264,2.292
-0.010114001871733608,2.293
-0.015117771434297005,2.294
-0.018721175540812762,2.295
-0.020237507319151422,2.296
-0.019174888015304217,2.297
-0.015451218264620281,2.298
-0.009523388623555437,2.299
-0.0023528009505921583,2.3
0.004802233969093124,2.301
0.010701647855414713,2.302
0.014432082383138915,2.303
0.015604745648052112,2.304
0.014388853914817758,2.305
0.011384403967533945,2.306
0.007382573107700812,2.307
0.003111965498332105,2.308
-0.0009003940738110082,2.309
-0.004308269318184857,2.31
-0.006854693860828683,2.311
-0.008326576392510346,2.312
-0.008597174889518243,2.313
-0.007703825688985528,2.314
-0.005857201895803714,2.315
-0.003357291840440503,2.316
-0.0005273914247492427,2.317
0.0022698316739688516,2.318
0.004624872546576743,2.319
0.006154764558066051,2.32
0.006625466227400538,2.321
0.00606342467304383,2.322
0.004779158305979028,2.323
0.0032513326327412878,2.324
0.001911548636547399,2.325
0.0009427939401785235,2.326
0.00021508643948542428,2.327
-0.0006092240582278365,2.328
-0.0018736921550525033,2.329
-0.0037307036965833,2.33
-0.00604626225782894,2.331
-0.00844410575051567,2.332
-0.010428298833171324,2.333
-0.01150853141902157,2.334
-0.011304776170173744,2.335
-0.009633197731207663,2.336
-0.006568236860639258,2.337
-0.0024536317468383233,2.338
0.002169092409535042,2.339
0.006695001443130663,2.34
0.01057587722766395,2.341
0.013372074533770976,2.342
0.014767070412812845,2.343
0.014596881377490328,2.344
0.012906196495147303,2.345
0.00999817762907222,2.346
0.006407589475446749,2.347
0.0027785738237467907,2.348
-0.0002990474903807059,2.349
-0.0024413157785400357,2.35
-0.00355788906523306,2.351
-0.003834981682386059,2.352
-0.003626285574894117,2.353
-0.0033223255711240913,2.354
-0.003260879170134252,2.355
-0.0036757209906539074,2.356
-0.00466576145901936,2.357
-0.0061894699740985305,2.358
-0.008067062682086585,2.359
-0.009963102900933664,2.36
-0.01138334438350507,2.361
-0.01174776419739333,2.362
-0.01055475982075532,2.363
-0.007591207564106832,2.364
-0.0030764310415518723,2.365
0.002366540460658473,2.366
0.007898986955578157,2.367
0.012701797427327481,2.368
0.01615151275667166,2.369
0.017885494766358773,2.37
0.017768195107304048,2.371
0.015831586210544334,2.372
0.012257033164787167,2.373
0.0073908115740056925,2.374
0.0017289697829494628,2.375
-0.0041741072825406764,2.376
-0.009819787428951756,2.377
-0.014785226168629054,2.378
-0.018636644610882037,2.379
-0.02086756096416406,2.38
-0.020960663963944123,2.381
-0.01853892513450621,2.382
-0.013531927202928225,2.383
-0.006301790781776086,2.384
0.002319360907365098,2.385
0.011095735785423512,2.386
0.018561132187433434,2.387
0.02332626987918637,2.388
0.024471705534285675,2.389
0.021852699460093092,2.39
0.016160327038174653,2.391
0.008705141224799186,2.392
0.0010154021728567772,2.393
-0.005574141679008835,2.394
-0.010193693620748947,2.395
-0.012528566028580213,2.396
-0.012765414413364337,2.397
-0.011443010295657228,2.398
-0.00925192963101937,2.399
-0.006837743501980352,2.4
-0.004674619940551428,2.401
-0.0030361720167315525,2.402
-0.0019985847747474306,2.403
-0.0014289843270389332,2.404
-0.0010160034838380154,2.405
-0.0003936578723217626,2.406
0.0006907399763181355,2.407
0.0022741042050175328,2.408
0.0041973478032719955,2.409
0.006200407164052158,2.41
0.008005185633366661,2.411
0.00934173317120821,2.412
0.009947696073174014,2.413
0.009596991606398,2.414
0.008166798536466801,2.415
0.0056958985003656626,2.416
0.002397846885769328,2.417
-0.0013517478594207279,2.418
-0.005047869940314354,2.419
-0.008140350370137902,2.42
-0.010156294584156561,2.421
-0.01080691305899728,2.422
-0.010051454547539288,2.423
-0.00812656004156624,2.424
-0.0055344510078806875,2.425
-0.0029370702575391683,2.426
-0.0009523978533331067,2.427
4.995323771012687e-05,2.428
5.132563794261706e-05,2.429
-0.0006724957640142334,2.43
-0.001743986402375479,2.431
-0.0028725949770872098,2.432
-0.0038971710663839847,2.433
-0.004678559163973483,2.434
-0.004964342805153728,2.435
-0.004374451359618083,2.436
-0.0025702975700452736,2.437
0.0005017453901822362,2.438
0.004493004916705236,2.439
0.00874598052530335,2.44
0.012506886100637169,2.441
0.015117875289193925,2.442
0.016127830116254405,2.443
0.015337279274349757,2.444
0.012795962662952217,2.445
0.008777213465763175,2.446
0.003775425248463599,2.447
-0.0014899151042705738,2.448
-0.006156706506229018,2.449
-0.009417448281412477,2.45
-0.010744902373940624,2.451
-0.010052416674076909,2.452
-0.007730362800229585,2.453
-0.004520017726598181,2.454
-0.0012635212286642133,2.455
0.001343441285228249,2.456
0.0028901355855674546,2.457
0.003269118634840504,2.458
0.0026188495365817104,2.459
0.0012260891830957257,2.46
-0.0005740822443349641,2.461
-0.0024477146224256793,2.462
-0.004065456048929384,2.463
-0.00512385175242553,2.464
-0.005410499230462098,2.465
-0.004874574744836178,2.466
-0.00364766821019737,2.467
-0.001999284263428679,2.468
-0.000260151934472924,2.469
0.0012515134487614999,2.47
0.002290280931644327,2.471
0.002737395578327255,2.472
0.0026375896677520456,2.473
0.0021622234181171217,2.474
0.0014863656382277683,2.475
0.0006901650252976977,2.476
-0.00022580494419712136,2.477
-0.001263320074845162,2.478
-0.0023661352823167643,2.479
-0.003388459140214877,2.48
-0.004089130817212443,2.481
-0.004174572979212188,2.482
-0.0034064438157073323,2.483
-0.0017435488186699915,2.484
0.0005643780383959276,2.485
0.003032869614041884,2.486
0.005144688267905226,2.487
0.006535627447877041,2.488
0.0070363831420707295,2.489
0.006626613548761382,2.49
0.005411452563125434,2.491
0.003616358669616992,2.492
0.0015464927773825405,2.493
-0.0004827805970901259,2.494
-0.002216068038493732,2.495
-0.0034960704046575544,2.496
-0.004239870229451171,2.497
-0.004382353509397243,2.498
-0.0038383411891778985,2.499
-0.002511531430040996,2.5
-0.0003701893753608347,2.501
0.002427175952509812,2.502
0.005431328689616369,2.503
0.007907289637984972,2.504
0.008991668546989108,2.505
0.00801465800525772,2.506
0.004879820759743774,2.507
0.00023875118461125084,2.508
-0.004717421470502465,2.509
-0.008744327252480729,2.51
-0.011027015618109218,2.511
-0.01138919043409279,2.512
-0.010167044693834126,2.513
-0.007929708236592451,2.514
-0.005236155149173059,2.515
-0.0025066553062080433,2.516
-1.5854195286895386e-05,2.517
0.002058750540456554,2.518
0.0036031922895059174,2.519
0.0045522497738220225,2.52
0.004896283649870457,2.521
0.004713352928940802,2.522
0.00416982176721229,2.523
0.0034533297471406577,2.524
0.0026833675809240626,2.525
0.001865157375611501,2.526
0.000927047822014995,2.527
-0.0001822071659073946,2.528
-0.001419896866661575,2.529
-0.002655022126868412,2.53
-0.003709637199279307,2.531
-0.00437573160325287,2.532
-0.004439479262276319,2.533
-0.0037454939418781756,2.534
-0.0022566175382596576,2.535
-7.547894288379186e-05,2.536
0.0025515287099888884,2.537
0.005238344632951049,2.538
0.007499508441802892,2.539
0.008848847047256886,2.54
0.008953853534977733,2.541
0.007783176982334047,2.542
0.005634952337239407,2.543
0.0030130268522262672,2.544
0.0004374763090325949,2.545
-0.0017051659153427315,2.546
-0.003223137213993549,2.547
-0.004111192637489778,2.548
-0.004514545772861644,2.549
-0.004663296339334916,2.55
-0.00476393166508526,2.551
-0.004893546182872711,2.552
-0.004969165332919511,2.553
-0.004821756885081306,2.554
-0.004326557785394872,2.555
-0.0034915254667397823,2.556
-0.002453970946514189,2.557
-0.0014098505267947077,2.558
-0.0005275087499385151,2.559
9.47861149504414e-05,2.56
0.00041729609681877023,2.561
0.00044421600356487614,2.562
0.00022952509966146735,2.563
-0.00011003340624102986,2.564
-0.0003931960201998181,2.565
-0.0004028994664959974,2.566
6.114081194708407e-05,2.567
0.0011113351493666317,2.568
0.0026861967077561146,2.569
0.004503169872219498,2.57
0.00609663830129727,2.571
0.006947279184580333,2.572
0.006683990972144744,2.573
0.005252662493399619,2.574
0.0029297343324265,2.575
0.00019741836002523352,2.576
-0.00241625003226463,2.577
-0.004462078638181934,2.578
-0.005640030227017685,2.579
-0.005832020180183141,2.58
-0.005102069385419595,2.581
-0.0036530395505470084,2.582
-0.0017670220262127098,2.583
0.00023693863866382315,2.584
0.0020302380242761863,2.585
0.0033005309403038143,2.586
0.0037965411763447275,2.587
0.0034055137936586013,2.588
0.0022180390653058963,2.589
0.0005156659792120325,2.59
-0.0013110289527853219,2.591
-0.0028570162672864564,2.592
-0.0037766824817109567,2.593
-0.0038459527628685705,2.594
-0.00303111724032108,2.595
-0.0015279413814425695,2.596
0.00028947375323262845,2.597
0.001992240164843507,2.598
0.0032249387098187312,2.599
0.0038010264963017695,2.6
0.003742086320274679,2.601
0.0032380393549886134,2.602
0.0025404827005679645,2.603
0.0018458519096341587,2.604
0.0012296531782488111,2.605
0.0006575551460722858,2.606
5.616692071562941e-05,2.607
-0.0006107554338174577,2.608
-0.0013064611254431598,2.609
-0.0019238862408617506,2.61
-0.0023182952556860853,2.611
-0.002380204431146874,2.612
-0.002121171759428932,2.613
-0.0016898253601639278,2.614
-0.001290336710074054,2.615
-0.0010748478291112173,2.616
-0.0010754043571299754,2.617
-0.0011928342608479579,2.618
-0.0012405383845801512,2.619
-0.001030025890546126,2.62
-0.0004697500931368783,2.621
0.0003782285245193302,2.622
0.0013300688350896118,2.623
0.002174755523184834,2.624
0.002740948075899928,2.625
0.0028846837238973447,2.626
0.002452532215852024,2.627
0.0013029025921315347,2.628
-0.0005939665881040062,2.629
-0.0030427317044523336,2.63
-0.005607875739303708,2.631
-0.007731087934429318,2.632
-0.008887804074786768,2.633
-0.008697753848173779,2.634
-0.007005223953332302,2.635
-0.003950026975287028,2.636
1.439821527666768e-05,2.637
0.004207014028205958,2.638
0.007897740867235204,2.639
0.01049367990641618,2.64
0.011658631043499876,2.641
0.011361424677153,2.642
0.009852163060025643,2.643
0.007552386820623648,2.644
0.00490506812642636,2.645
0.0022733468767074704,2.646
-7.746530045715433e-05,2.647
-0.0019579164538054226,2.648
-0.0032352905966186165,2.649
-0.003839188844716697,2.65
-0.0038149893625386453,2.651
-0.0033830582835503898,2.652
-0.002904484910218443,2.653
-0.0027242525021964462,2.654
-0.002992961515434345,2.655
-0.0036072886082533957,2.656
-0.0042866003373306545,2.657
-0.004698205019373332,2.658
-0.004576378850362072,2.659
-0.003811597223964737,2.66
-0.002479873371106386,2.661
-0.0008060160881653849,2.662
0.0009095321650015512,2.663
0.002362515562804188,2.664
0.003301079107937902,2.665
0.003577791729526118,2.666
0.003192642038060354,2.667
0.0022973330960254566,2.668
0.001157434118956386,2.669
8.894977523958319e-05,2.67
-0.0006326006848539819,2.671
-0.0008741466630174588,2.672
-0.0006884501189033939,2.673
-0.0002548643846406717,2.674
0.0002346152672792125,2.675
0.0006729787003867258,2.676
0.0010632356183799868,2.677
0.001444193539060389,2.678
0.0017882225525214376,2.679
0.001970020604577097,2.68
0.001810874874377702,2.681
0.0011478561089666383,2.682
-9.541066839906421e-05,2.683
-0.0018382428316523552,2.684
-0.0037937945579236574,2.685
-0.005498323851584039,2.686
-0.00645591651343841,2.687
-0.006324614015919511,2.688
-0.005027627205245873,2.689
-0.0027515887262598666,2.69
0.00014332940398323677,2.691
0.003228819363079592,2.692
0.006059711283739319,2.693
0.008192002284699714,2.694
0.009236722765716647,2.695
0.008971591749278775,2.696
0.007452419247888653,2.697
0.005031989398013292,2.698
0.0022466200226926736,2.699
-0.0003732871576315063,2.7
-0.002455124159866234,2.701
-0.003823877964103569,2.702
-0.004464005689611914,2.703
-0.0044815956008018385,2.704
-0.004069658371639678,2.705
-0.003441425618986416,2.706
-0.002758764344189939,2.707
-0.0021105419397781542,2.708
-0.0015437241996519805,2.709
-0.0010988891665528917,2.71
-0.0008132861146159999,2.711
-0.0006994029801373224,2.712
-0.0007254815114321898,2.713
-0.0008220720049937864,2.714
-0.0009116803015083505,2.715
-0.0009257846462798586,2.716
-0.0008049588712915622,2.717
-0.0005047810666007934,2.718
-8.206318437607484e-06,2.719
0.0006577842307505598,2.72
0.0014086888133520636,2.721
0.0021071721583642176,2.722
0.0025994556945490876,2.723
0.0027791061602230934,2.724
0.0026253877740220434,2.725
0.0021837264146433466,2.726
0.0015236858896298603,2.727
0.0007139818238639758,2.728
-0.00017268359837661535,2.729
-0.0010361861914351966,2.73
-0.0017408981243440783,2.731
-0.002157540599698354,2.732
-0.002237694972662917,2.733
-0.0020501187154795954,2.734
-0.0017512339146487806,2.735
-0.0015237880670079921,2.736
-0.0015019054930224358,2.737
-0.0016989336767337256,2.738
-0.001989540002014367,2.739
-0.0021669238181864147,2.74
-0.0020311363197183475,2.741
-0.0014545692716475076,2.742
-0.00040070759127610684,2.743
0.0010860241334115115,2.744
0.0028830373766104435,2.745
0.004772943341479594,2.746
0.006428976065589812,2.747
0.007457669417838189,2.748
0.0075359893861006505,2.749
0.006569705298072767,2.75
0.004743232503988234,2.751
0.0024306432314919555,2.752
5.037564510406004e-05,2.753
-0.002042415399182089,2.754
-0.0035938127195973527,2.755
-0.004457479359662603,2.756
-0.004597229525321216,2.757
-0.004073101148240081,2.758
-0.003025527194304636,2.759
-0.0016773927408674817,2.76
-0.0003285969492387903,2.761
0.0006858751561127584,2.762
0.0010723639545789194,2.763
0.0006671780963555992,2.764
-0.0004889577429173721,2.765
-0.0021344540496731025,2.766
-0.0038714856404821842,2.767
-0.005307110647729043,2.768
-0.0061493195796533656,2.769
-0.006238706348843942,2.77
-0.005570894221803658,2.771
-0.004314718256000404,2.772
-0.0027631883351869457,2.773
-0.0012063925311872256,2.774
0.0001797385186866653,2.775
0.0013506716310745215,2.776
0.0023391117591852026,2.777
0.0031890661013708782,2.778
0.003919032613210591,2.779
0.004534518288658665,2.78
0.00506604460105067,2.781
0.005572116358818379,2.782
0.006079069970646783,2.783
0.006506847641804779,2.784
0.006659143423329966,2.785
0.006297199652838075,2.786
0.00525773767270638,2.787
0.00355625404859385,2.788
0.0014171420622764027,2.789
-0.0007859095570893412,2.79
-0.002653092056226959,2.791
-0.0038906755933907633,2.792
-0.004390729832336221,2.793
-0.0042417790603893725,2.794
-0.003681118741802804,2.795
-0.003004244464008883,2.796
-0.0024674924353619144,2.797
-0.002216210911586289,2.798
-0.002252603878421461,2.799
-0.002453539811497808,2.8
-0.0026297438688016412,2.801
-0.0025943148056171428,2.802
-0.0022197363228786265,2.803
-0.0014790800648459123,2.804
-0.00046773711983918753,2.805
0.0006079114670089292,2.806
0.0014904943091223752,2.807
0.001960860213815602,2.808
0.0019201569784163851,2.809
0.001440887568004715,2.81
0.0007549106944168456,2.811
0.00015998911111319807,2.812
-0.00011166022929652533,2.813
1.4037481921407795e-05,2.814
0.00043607613892560206,2.815
0.000931525288420613,2.816
0.001249092365426925,2.817
0.001194260459017186,2.818
0.0006912709223602524,2.819
-0.00016879255549847534,2.82
-0.0011287727919008326,2.821
-0.001859907862040481,2.822
-0.002110880358988434,2.823
-0.001806975201172724,2.824
-0.0010513121559529127,2.825
-5.731695791158149e-05,2.826
0.0009456582828505683,2.827
0.001783384537779021,2.828
0.0023457306800468087,2.829
0.002562473369230469,2.83
0.0023991282329318977,2.831
0.0018685836851199513,2.832
0.00103469781815794,2.833
1.0270360936705159e-05,2.834
-0.00105159203691706,2.835
-0.001979218915930381,2.836
-0.0026168302732019677,2.837
-0.0028552206514807516,2.838
-0.0026381609386885154,2.839
-0.0019673766439769233,2.84
-0.0009269199436433587,2.841
0.00031124447164823454,2.842
0.001521647943299133,2.843
0.002470567919891489,2.844
0.0029508791739879707,2.845
0.0028142189679159625,2.846
0.002023902383852855,2.847
0.0007057809503563705,2.848
-0.0008750262540633239,2.849
-0.0024052478359448937,2.85
-0.003600972159238679,2.851
-0.004241137727356525,2.852
-0.004184614901190714,2.853
-0.003396767800848739,2.854
-0.0019741705059414523,2.855
-0.00012669736289448342,2.856
0.0018861679635959396,2.857
0.0038097965189216845,2.858
0.005410572530423045,2.859
0.006482885077062781,2.86
0.006864049293228021,2.861
0.00645004873836649,2.862
0.0052180290647860054,2.863
0.003253366014633716,2.864
0.0007538086999716524,2.865
-0.0019987110150179754,2.866
-0.004671239367455437,2.867
-0.006905997299685302,2.868
-0.008367181820093455,2.869
-0.008818250216906933,2.87
-0.00818735911337372,2.871
-0.006579937403867239,2.872
-0.004244783565090019,2.873
-0.0015180913648707556,2.874
0.0012437943153829124,2.875
0.00372843613607581,2.876
0.0056947390031939745,2.877
0.006958598638778033,2.878
0.007388545704808004,2.879
0.006936571030954804,2.88
0.005674863360905019,2.881
0.003819209958775395,2.882
0.0017125212509347901,2.883
-0.0002587167038932171,2.884
-0.0017724440004521832,2.885
-0.0026469698326973125,2.886
-0.002891132141359025,2.887
-0.0027164128152448457,2.888
-0.0024530084177756552,2.889
-0.002395304348914691,2.89
-0.0026819715033466764,2.891
-0.0032615693068074017,2.892
-0.003922451827899574,2.893
-0.004365662855171233,2.894
-0.0043160819084526415,2.895
-0.0036244743348156695,2.896
-0.0022969871002399295,2.897
-0.00047329736041368356,2.898
0.001588669377420871,2.899
0.0035316680873398033,2.9
0.004973359499674759,2.901
0.0056421080799089265,2.902
0.005495936490795518,2.903
0.0047272678586034724,2.904
0.003655791152289025,2.905
0.0025977824184769387,2.906
0.0017738046454746114,2.907
0.0012624318640417525,2.908
0.0009959570089637694,2.909
0.0008062414810974929,2.91
0.0005066488259785793,2.911
-3.723306509786458e-05,2.912
-0.0008626346968896423,2.913
-0.0018734799950141984,2.914
-0.0028321017381958643,2.915
-0.0034216909035096757,2.916
-0.0033782901723251064,2.917
-0.0026241578002186845,2.918
-0.0013234204008900994,2.919
0.00016225434282046938,2.92
0.0013943617810130615,2.921
0.0020153845623459145,2.922
0.0018811178721135334,2.923
0.0011035984979809405,2.924
-1.221647962622837e-05,2.925
-0.0011020205477555688,2.926
-0.0018847561900998194,2.927
-0.0022407806289639312,2.928
-0.0021844618349339835,2.929
-0.001784640094834392,2.93
-0.0011285830140457356,2.931
-0.00035215545585999417,2.932
0.0003379179374108248,2.933
0.0007172797563739279,2.934
0.0006407887853170292,2.935
0.00010701669445186657,2.936
-0.0007424705685742759,2.937
-0.001672088369064266,2.938
-0.002421196157246949,2.939
-0.002776043091941619,2.94
-0.00262617078979973,2.941
-0.001984682312381272,2.942
-0.0009662839544802755,2.943
0.00025396322240966236,2.944
