VaMe,time
9.825625031352971e-05,0.001
-0.00482506842326669,0.002
-0.009209867059791977,0.003
-0.0124779820909877,0.004
-0.014045893877863834,0.005
-0.013519227222425661,0.006
-0.01089898283387685,0.007
-0.006623800947888017,0.008
-0.0013969328817021417,0.009
0.004049796119040185,0.01
0.009091528894887943,0.011
0.01324149877354974,0.012
0.016125096603888556,0.013
0.01743652029411618,0.014
0.016946509162866875,0.015
0.014600955940278512,0.016
0.01065333488379433,0.017
0.0057007955153315195,0.018
0.0005541375144577054,0.019
-0.0039927055021490385,0.02
-0.007371562410941789,0.021
-0.009348088350491668,0.022
-0.01002189664457914,0.023
-0.009742919518979407,0.024
-0.00897059751624109,0.025
-0.008111713634409297,0.026
-0.0073868248103673316,0.027
-0.006784120571445289,0.028
-0.00612762707872186,0.029
-0.0052183468625551024,0.03
-0.003967666401923607,0.031
-0.002455971533150588,0.032
-0.0008946166077638365,0.033
0.00046551111460689976,0.034
0.0014115216647947709,0.035
0.001811977015241344,0.036
0.0016380820628843617,0.037
0.0009676202254652116,0.038
-2.8044992491252534e-05,0.039
-0.0011178657704999481,0.04
-0.002063412273492291,0.041
-0.0026600642270714404,0.042
-0.0027383723559566784,0.043
-0.0021489516484072906,0.044
-0.0007829370381997148,0.045
0.0013535022476333467,0.046
0.004051448323392926,0.047
0.006884133357838375,0.048
0.009313591214601966,0.049
0.010853544193499582,0.05
0.011177472798554407,0.051
0.010162525048396813,0.052
0.007931110763792593,0.053
0.004864890537328075,0.054
0.0015101108458953872,0.055
-0.0016038616981744929,0.056
-0.004101587758503618,0.057
-0.005778911771391256,0.058
-0.00658227754935807,0.059
-0.006636798217522605,0.06
-0.0062526648729427595,0.061
-0.005797766228748772,0.062
-0.005476994879189396,0.063
-0.005188039516832012,0.064
-0.004578866624344571,0.065
-0.003280101184979837,0.066
-0.0011550089506944356,0.067
0.0016005240451236883,0.068
0.004531654412420705,0.069
0.007047913124441642,0.07
0.008526964249913865,0.071
0.008450417713367027,0.072
0.0065674396085893295,0.073
0.0030048789636059085,0.074
-0.001704037871689808,0.075
-0.006686252372940024,0.076
-0.010934577026554251,0.077
-0.013601292364942385,0.078
-0.014221326512197355,0.079
-0.012776185182438962,0.08
-0.009641663315350083,0.081
-0.005478283296891899,0.082
-0.0010564843531729155,0.083
0.0029913853141408436,0.084
0.00640486389961442,0.085
0.009371105228860683,0.086
0.012361502480317267,0.087
0.015780539955033826,0.088
0.019589847504830216,0.089
0.02309019670584009,0.09
0.02497906690210075,0.091
0.023736302900421984,0.092
0.01829484253821051,0.093
0.008703755652208654,0.094
-0.0036653637621244456,0.095
-0.01652665868968427,0.096
-0.02742402447802295,0.097
-0.03442038844935011,0.098
-0.03650446654346684,0.099
-0.03368049017923272,0.1
-0.02680886132286386,0.101
-0.01729623147910303,0.102
-0.006739583391138086,0.103
0.0033920399754634226,0.104
0.011962869766584285,0.105
0.018222953279429067,0.106
0.021764574886781688,0.107
0.022486948112348262,0.108
0.020626529477708586,0.109
0.0167915972291393,0.11
0.011874348638432853,0.111
0.006806672084246521,0.112
0.002253562744328154,0.113
-0.001579151779980329,0.114
-0.004871821371912269,0.115
-0.007900435388309599,0.116
-0.010736262777338456,0.117
-0.013102050654701696,0.118
-0.014439483130378147,0.119
-0.014153278661105762,0.12
-0.011914901297121019,0.121
-0.007871967535146168,0.122
-0.0026588355694283344,0.123
0.002785440722424179,0.124
0.007495148194908736,0.125
0.010744661116842564,0.126
0.012220368067171463,0.127
0.012038048381836402,0.128
0.010616454981649908,0.129
0.008507110226890041,0.13
0.00626547910530914,0.131
0.004358903277147703,0.132
0.0030786892771979355,0.133
0.002452826664975322,0.134
0.002201270432324325,0.135
0.0018031655004583772,0.136
0.0007034326035426402,0.137
-0.001410133951693473,0.138
-0.004419598268728125,0.139
-0.0078070275745396045,0.14
-0.010865195285505324,0.141
-0.012941902743067295,0.142
-0.013610240585758914,0.143
-0.012746913616261934,0.144
-0.01052610976439932,0.145
-0.007339306190641874,0.146
-0.0036676685528225523,0.147
6.073867529641041e-05,0.148
0.00356014861890895,0.149
0.006663320074475697,0.15
0.009229925753389183,0.151
0.011090295093617933,0.152
0.012070887070149831,0.153
0.012058032029264231,0.154
0.011047322116662412,0.155
0.009165051264348512,0.156
0.006650342126536726,0.157
0.0037878182532744085,0.158
0.0008189826404640328,0.159
-0.002099180052692761,0.16
-0.004857339817868216,0.161
-0.007329604122120948,0.162
-0.009340204789671088,0.163
-0.010675618524297381,0.164
-0.011128868064022234,0.165
-0.010561525194173861,0.166
-0.00897774423071659,0.167
-0.00656974930680706,0.168
-0.0036674320956380842,0.169
-0.0006022854368115877,0.17
0.0024061740140511063,0.171
0.005249252353810793,0.172
0.007835702706888555,0.173
0.009993484225088433,0.174
0.011423074617320046,0.175
0.01174841274086756,0.176
0.010683351852384502,0.177
0.008210444437531371,0.178
0.004618735535589357,0.179
0.0003785239528152023,0.18
-0.004013360635569172,0.181
-0.008098265498565115,0.182
-0.011448102310520165,0.183
-0.013670665012682765,0.184
-0.014460287828518076,0.185
-0.013647692249060718,0.186
-0.01119886105865196,0.187
-0.007190730745231625,0.188
-0.0018520263097410975,0.189
0.004299564185983346,0.19
0.010344226920365185,0.191
0.015063779462174553,0.192
0.017318950220377584,0.193
0.016525026848951418,0.194
0.012950195234131006,0.195
0.007654956537338071,0.196
0.0020894137574652572,0.197
-0.0024361196363574065,0.198
-0.005132447525351543,0.199
-0.005835867193142161,0.2
-0.004899252365465562,0.201
-0.0029956214947231673,0.202
-0.0009147217969053915,0.203
0.0006176885976398598,0.204
0.0010868189880593288,0.205
0.00028945427324015844,0.206
-0.0016258037726708222,0.207
-0.004196378308431431,0.208
-0.006759538224176728,0.209
-0.008596029510037377,0.21
-0.009078535986313746,0.211
-0.007832535081148504,0.212
-0.004873843457029578,0.213
-0.0006896439671276837,0.214
0.003760998900669756,0.215
0.007256820458122294,0.216
0.008818493824671739,0.217
0.008244753468012907,0.218
0.006231572350528585,0.219
0.003950890153934996,0.22
0.0024071509488313484,0.221
0.0019758029227399682,0.222
0.0023432846594226404,0.223
0.002811226112997827,0.224
0.0027163262279235553,0.225
0.0017088942590550472,0.226
-0.00020905238879782414,0.227
-0.0028119575776945436,0.228
-0.005801047461365861,0.229
-0.008886721474183344,0.23
-0.011778246012460972,0.231
-0.014115216586517612,0.232
-0.015417782139491904,0.233
-0.015120397718560124,0.234
-0.012725275770421374,0.235
-0.00803592327794102,0.236
-0.0013547194621672748,0.237
0.00644572837925115,0.238
0.014023903497926498,0.239
0.019878486212053615,0.24
0.022799249356873705,0.241
0.022243718522770295,0.242
0.01845680021558652,0.243
0.012335596661801826,0.244
0.005156471174602024,0.245
-0.0017242663901315437,0.246
-0.007134571511749816,0.247
-0.010280420504096398,0.248
-0.010857088313841183,0.249
-0.009085026905401803,0.25
-0.005657384055657186,0.251
-0.0015744396809006494,0.252
0.002134683049822887,0.253
0.004722401099504981,0.254
0.0059111613497322205,0.255
0.00586343315636967,0.256
0.004967294158828438,0.257
0.003569509119665226,0.258
0.0018221826337003132,0.259
-0.0002657913298107384,0.26
-0.002651410708830701,0.261
-0.005125323931474394,0.262
-0.007309299417480573,0.263
-0.008770380911453206,0.264
-0.009210703821930278,0.265
-0.00864677817463281,0.266
-0.007463933238506876,0.267
-0.006278801882145413,0.268
-0.005636718755060407,0.269
-0.005676792740858309,0.27
-0.005974170624103228,0.271
-0.005718062232901272,0.272
-0.004156573436251372,0.273
-0.0010260183521789955,0.274
0.0032892242535315784,0.275
0.007912044486694443,0.276
0.011813623085730734,0.277
0.014167930617180002,0.278
0.014618044280399608,0.279
0.013404012509149334,0.28
0.011257696914870385,0.281
0.009045730563573209,0.282
0.007365256783610575,0.283
0.006322249667235976,0.284
0.005554886732643803,0.285
0.0044593091367570005,0.286
0.0025106625669988314,0.287
-0.0004941339582876029,0.288
-0.004405790637670953,0.289
-0.008851279937925867,0.29
-0.013342285744547988,0.291
-0.017292358555866413,0.292
-0.020032390916822906,0.293
-0.02091918536453376,0.294
-0.019525482579910033,0.295
-0.015830028160363732,0.296
-0.010313183702576374,0.297
-0.0038713707300567987,0.298
0.002440720733204864,0.299
0.007705740385208571,0.3
0.011333225084281816,0.301
0.0131124361112887,0.302
0.013201021632176152,0.303
0.012075735192840942,0.304
0.010397447138604217,0.305
0.008805064391347803,0.306
0.007739383751447931,0.307
0.0073731014096708935,0.308
0.007626583889558505,0.309
0.008208049265662584,0.31
0.008672247144359884,0.311
0.008530824262389321,0.312
0.007402295270876226,0.313
0.0051435512969698035,0.314
0.0019026094489045368,0.315
-0.0019482247167555715,0.316
-0.005967042345288348,0.317
-0.009773264989971612,0.318
-0.013070512797486718,0.319
-0.01557653990141505,0.32
-0.01694336953689135,0.321
-0.01678139641041755,0.322
-0.014859645656535109,0.323
-0.011372135287839555,0.324
-0.0069983983137257,0.325
-0.0026242448616287965,0.326
0.0010764917185902467,0.327
0.0038897750566119537,0.328
0.0059989535580945025,0.329
0.0076793685723713315,0.33
0.008989136170456885,0.331
0.009716759745220686,0.332
0.009630469135786903,0.333
0.00878100202433971,0.334
0.007540688067964487,0.335
0.006353561976950468,0.336
0.005425423517743342,0.337
0.004530199684376622,0.338
0.003046065443599795,0.339
0.000306563096168739,0.34
-0.003874649959159857,0.341
-0.008887587209516882,0.342
-0.013480036547758973,0.343
-0.016270946205209205,0.344
-0.01628965848102142,0.345
-0.013273128310158876,0.346
-0.007661077034451959,0.347
-0.0003982387589024371,0.348
0.00729407419276725,0.349
0.0141138816757232,0.35
0.018879213460879445,0.351
0.020713206062639964,0.352
0.01918119305725437,0.353
0.014410149301893873,0.354
0.007165205564961663,0.355
-0.001225438992601379,0.356
-0.009161171226975826,0.357
-0.015186618211730125,0.358
-0.018364570765979974,0.359
-0.01848732244455373,0.36
-0.016073833893960852,0.361
-0.01214139358998452,0.362
-0.007805522958510355,0.363
-0.003861963196044346,0.364
-0.0005544982366642437,0.365
0.0023699237590095925,0.366
0.005378166376031242,0.367
0.00878642100303588,0.368
0.012487067790534715,0.369
0.01591568886005416,0.37
0.018277770095266748,0.371
0.01889188906403788,0.372
0.01746118362463731,0.373
0.014156557094990859,0.374
0.00950586367301439,0.375
0.004171732642904488,0.376
-0.0012540027795065402,0.377
-0.006316340493622504,0.378
-0.010626320254655111,0.379
-0.01379941011658068,0.38
-0.01550747731647982,0.381
-0.015623935973502673,0.382
-0.01437790165533207,0.383
-0.012387093075459849,0.384
-0.010465367953012514,0.385
-0.009257511499274196,0.386
-0.008904243927711447,0.387
-0.008942427196369878,0.388
-0.008512811529989785,0.389
-0.006781059627939894,0.39
-0.0033529668998304703,0.391
0.001534982439891035,0.392
0.007103657912219448,0.393
0.012275779954051477,0.394
0.0159503073491303,0.395
0.017280920859535333,0.396
0.015947078672024818,0.397
0.012319809156178902,0.398
0.007392396531370658,0.399
0.00246910959175637,0.4
-0.0012474657585116848,0.401
-0.003022738801721438,0.402
-0.002812865673290608,0.403
-0.0012624724472311759,0.404
0.0005644838316143284,0.405
0.0016583712481494878,0.406
0.0015459255321899064,0.407
0.0005182477008674112,0.408
-0.0005536825779187917,0.409
-0.0007227780277703462,0.41
0.0004939298503170452,0.411
0.0027996386681518972,0.412
0.0051697268055188005,0.413
0.0062773569089093996,0.414
0.005091932875206169,0.415
0.0013254589095514687,0.416
-0.004469660205378833,0.417
-0.011117496711668484,0.418
-0.01719316571678477,0.419
-0.021407328078133416,0.42
-0.02290191560924196,0.421
-0.021372549023517512,0.422
-0.016978444770792283,0.423
-0.010129385138821195,0.424
-0.0013506742666891563,0.425
0.008627876943331664,0.426
0.018676532667134548,0.427
0.02725485806433027,0.428
0.03270742598902519,0.429
0.03374483629223569,0.43
0.029868194664060755,0.431
0.02151892775603448,0.432
0.009973684972656443,0.433
-0.0028491869769024297,0.434
-0.01462811861067852,0.435
-0.022997346104261844,0.436
-0.026086814173423012,0.437
-0.023136150325361936,0.438
-0.014905026831887493,0.439
-0.0036670605112848215,0.44
0.007275954433776323,0.441
0.01452799571557105,0.442
0.0157271318950281,0.443
0.010353856349538162,0.444
-0.0001743270328448273,0.445
-0.013056258621548458,0.446
-0.024953586382837647,0.447
-0.032818261271173425,0.448
-0.0345303992187151,0.449
-0.029275792440571144,0.45
-0.017663846339880277,0.451
-0.0016259893651451131,0.452
0.01586923434983942,0.453
0.031289561394820455,0.454
0.04125217146033586,0.455
0.04344037482526952,0.456
0.03742904199293041,0.457
0.024956065932385717,0.458
0.009393877210990732,0.459
-0.005357253939438799,0.46
-0.016081941265114703,0.461
-0.021136020036961967,0.462
-0.020682154508867966,0.463
-0.016230252059765138,0.464
-0.009829271244361976,0.465
-0.0033593263652482645,0.466
0.001851610246171455,0.467
0.005127970438513596,0.468
0.0063865965270704286,0.469
0.005978459353845654,0.47
0.004481861302397449,0.471
0.002512801635922263,0.472
0.000583455474078484,0.473
-0.0010053756240930851,0.474
-0.002224092755110289,0.475
-0.0032399981445685854,0.476
-0.00418996862599314,0.477
-0.004967595109430469,0.478
-0.005221614075264368,0.479
-0.004571988773215662,0.48
-0.002888951675736712,0.481
-0.0004676874330987331,0.482
0.002009856050748369,0.483
0.003719512244313244,0.484
0.0040341494616995795,0.485
0.0028120097084756127,0.486
0.0004959928494668788,0.487
-0.0020363843889245285,0.488
-0.0037960415138723557,0.489
-0.0040279568918834335,0.49
-0.0024833704908984824,0.491
0.00044100250504436583,0.492
0.003798758582568816,0.493
0.006438946886400282,0.494
0.00743993706087155,0.495
0.00643659401137263,0.496
0.0037203020209999015,0.497
8.265810911722076e-05,0.498
-0.0035189896568879886,0.499
-0.006295210860007582,0.5
-0.0077938504724189405,0.501
-0.00788268371004056,0.502
-0.006648107463511846,0.503
-0.004337357633422919,0.504
-0.0013541807491449333,0.505
0.001792036152045824,0.506
0.004590413920677717,0.507
0.006597596731254479,0.508
0.007469093348221567,0.509
0.007033092560217748,0.51
0.005402452221941348,0.511
0.002991080896275808,0.512
0.00035093018877475104,0.513
-0.0020443600806613936,0.514
-0.003860320806686609,0.515
-0.0047996450577594794,0.516
-0.004552409380444337,0.517
-0.0029449921897779954,0.518
-0.00018211839789278,0.519
0.0030350418457335587,0.52
0.005658412094387768,0.521
0.006717187915924174,0.522
0.0057880541694892585,0.523
0.0031652072917765944,0.524
-0.00036314131301087653,0.525
-0.003917171383394835,0.526
-0.006835553044923257,0.527
-0.008765844916273441,0.528
-0.009589110773837556,0.529
-0.009303058461217184,0.53
-0.007953110680745619,0.531
-0.005633466499928312,0.532
-0.002518178844352866,0.533
0.0011283011037413273,0.534
0.004950030118377121,0.535
0.008471925066648742,0.536
0.011102631923043385,0.537
0.012273072463880121,0.538
0.01168293178484001,0.539
0.009476255623541143,0.54
0.0062134959514921475,0.541
0.0026635891344249725,0.542
-0.0004747935389515972,0.543
-0.0027869838640572878,0.544
-0.00420376356179822,0.545
-0.004951107144086159,0.546
-0.005452021692223206,0.547
-0.006130768482674342,0.548
-0.007112009569361581,0.549
-0.008032503151882432,0.55
-0.008187437341171267,0.551
-0.00695939834926566,0.552
-0.004245086770391769,0.553
-0.0005990396805635571,0.554
0.0029802992380069822,0.555
0.005522160144252272,0.556
0.006585907001701832,0.557
0.006458686954720941,0.558
0.005893215038559418,0.559
0.005597298167195557,0.56
0.0058113773134436586,0.561
0.006174491743808736,0.562
0.005903901354950043,0.563
0.004190631540404112,0.564
0.0006468561006505394,0.565
-0.004390151970102524,0.566
-0.00986940107178826,0.567
-0.014369016278963765,0.568
-0.016589926164918358,0.569
-0.015774373391643955,0.57
-0.011908982326082057,0.571
-0.005690748955555304,0.572
0.0016572030404873785,0.573
0.008616425950370987,0.574
0.013646543674067924,0.575
0.015575051251136732,0.576
0.014077255530988807,0.577
0.009989046301912106,0.578
0.005096810100970995,0.579
0.0013485006564460254,0.58
-6.0311758685781475e-05,0.581
0.0008523401322531404,0.582
0.003058078055917884,0.583
0.005168576732659488,0.584
0.006101334592471674,0.585
0.005425298293078237,0.586
0.0033218419064740376,0.587
0.00030273504978281567,0.588
-0.003095312885887837,0.589
-0.006488696748576628,0.59
-0.009674403877324383,0.591
-0.012546448351615398,0.592
-0.014964926150679172,0.593
-0.01665837192577533,0.594
-0.01722179055319951,0.595
-0.016227409830343792,0.596
-0.013425834503314084,0.597
-0.008942856359005725,0.598
-0.0033298879918598067,0.599
0.0025777456082466056,0.6
0.007921110919358659,0.601
0.012102581078489726,0.602
0.014983953840640971,0.603
0.016834490188367877,0.604
0.017994167908100073,0.605
0.018530502168900273,0.606
0.018199996118824092,0.607
0.016695538798367156,0.608
0.01391708648590063,0.609
0.010053161235131506,0.61
0.005484325483171527,0.611
0.0006510018569841162,0.612
-0.004036411836048992,0.613
-0.008245355928199558,0.614
-0.011747806632298657,0.615
-0.014433072461263475,0.616
-0.016273022799854778,0.617
-0.017237590503474124,0.618
-0.01724637913661495,0.619
-0.016228160596027174,0.62
-0.014234789768565926,0.621
-0.01147619495814819,0.622
-0.008198241453899168,0.623
-0.004482774330834049,0.624
-0.00019944836039649687,0.625
0.004745301873345714,0.626
0.01004442328519986,0.627
0.014871582483454892,0.628
0.0181762691946926,0.629
0.019179430981497877,0.63
0.01765386027684177,0.631
0.013839815123902626,0.632
0.008244008723031564,0.633
0.001560080448347882,0.634
-0.005308434690192864,0.635
-0.011262917221634562,0.636
-0.015137421787367827,0.637
-0.01589987071308836,0.638
-0.012911476697941288,0.639
-0.006257447549653152,0.64
0.0030032044505710473,0.641
0.012910188519632286,0.642
0.02106653317029087,0.643
0.025332571282749017,0.644
0.02447172321005829,0.645
0.018484501263854092,0.646
0.00848197527473187,0.647
-0.003788298672642021,0.648
-0.016391122218578146,0.649
-0.027396173327410216,0.65
-0.03499550857585073,0.651
-0.03778775620140231,0.652
-0.03516761986192605,0.653
-0.02754846103464108,0.654
-0.01622769613571425,0.655
-0.0030116304154349186,0.656
0.010127783128375398,0.657
0.021286938097115654,0.658
0.028857778079084753,0.659
0.03180054450031059,0.66
0.029925683422335824,0.661
0.024063959880122016,0.662
0.01592627300496438,0.663
0.007594197686090434,0.664
0.0008400050590709301,0.665
-0.0034216127248532548,0.666
-0.005298136458199819,0.667
-0.005642092023014509,0.668
-0.005520737774067588,0.669
-0.005717423065990405,0.67
-0.006473669679241765,0.671
-0.007533498545499511,0.672
-0.008388777324092666,0.673
-0.008557867401965999,0.674
-0.007824506784556505,0.675
-0.006380503851549718,0.676
-0.004756348732358397,0.677
-0.0035352967930020037,0.678
-0.0030017813803865606,0.679
-0.0029101777011665856,0.68
-0.002500386783373506,0.681
-0.0008048624148548993,0.682
0.0028232163422799777,0.683
0.008207140973681507,0.684
0.01418883467605585,0.685
0.01899412336314571,0.686
0.02095019405915316,0.687
0.019095739907104867,0.688
0.013398041156797788,0.689
0.004677841658894276,0.69
-0.00559354789655905,0.691
-0.01560773888709379,0.692
-0.02361449023271872,0.693
-0.02828400787132904,0.694
-0.02892761571167055,0.695
-0.025542588313199492,0.696
-0.01874669846779695,0.697
-0.00965254909248756,0.698
0.00032981314408603817,0.699
0.009731602501133644,0.7
0.017253743579647905,0.701
0.021965878530690396,0.702
0.023465325303116003,0.703
0.021951690731806684,0.704
0.01816856025377021,0.705
0.013227505226392463,0.706
0.008331327127173629,0.707
0.004408387257370326,0.708
0.0017929959823444165,0.709
0.00016990047517666872,0.71
-0.0011352955554589182,0.711
-0.0027169644008063648,0.712
-0.004823019085895767,0.713
-0.007346888628259412,0.714
-0.009927171456755198,0.715
-0.012092821914495053,0.716
-0.013453314176885436,0.717
-0.013825568569723458,0.718
-0.013212422788205058,0.719
-0.011693918725559528,0.72
-0.009352420767991351,0.721
-0.006267870813927456,0.722
-0.002542289450740461,0.723
0.0016611366593074792,0.724
0.006061063585545741,0.725
0.010202005683063096,0.726
0.01345779911352265,0.727
0.015156179528048359,0.728
0.014805538026109188,0.729
0.012347527144925253,0.73
0.00831404369039206,0.731
0.0037280681195478813,0.732
-0.00025166015209697896,0.733
-0.0027043855628372205,0.734
-0.0031491861976117967,0.735
-0.0016366107597262285,0.736
0.0011559803560801567,0.737
0.003934780229370027,0.738
0.005123742968439105,0.739
0.0034773370551529083,0.74
-0.0013674573530324957,0.741
-0.008683693755914537,0.742
-0.016823906206348934,0.743
-0.023656646989446535,0.744
-0.027142347326777082,0.745
-0.025909318237039982,0.746
-0.019673701704515913,0.747
-0.009342632643362233,0.748
0.003258514961939508,0.749
0.015892634000461488,0.75
0.026448435873037475,0.751
0.03334599173071826,0.752
0.03571921701750784,0.753
0.033471576410130224,0.754
0.027308312647907607,0.755
0.01860488505878312,0.756
0.008965953211738986,0.757
-0.0003156179267563167,0.758
-0.008500225926744317,0.759
-0.015251622113573381,0.76
-0.020370973854198653,0.761
-0.023645104901680893,0.762
-0.024823740826232777,0.763
-0.023688887530114347,0.764
-0.020199626218476527,0.765
-0.014680653849942923,0.766
-0.007961135391813794,0.767
-0.0013245596507984766,0.768
0.003802170933315552,0.769
0.00635486821061748,0.77
0.006074827755566539,0.771
0.0035898407718593936,0.772
0.00014067414913596627,0.773
-0.0028451009892752686,0.774
-0.004244541633927701,0.775
-0.0036791006230761946,0.776
-0.0016371016181288046,0.777
0.0008549298094372224,0.778
0.002830868727685432,0.779
0.003916253866361978,0.78
0.004500562792511003,0.781
0.005416409974011768,0.782
0.007297078255800017,0.783
0.010056607003294315,0.784
0.012832656150392193,0.785
0.014399045294209498,0.786
0.013807219943808919,0.787
0.010903948395956181,0.788
0.00646675293966528,0.789
0.001919169916383094,0.79
-0.0012282901718992162,0.791
-0.0019430816820591266,0.792
-2.148691358001861e-05,0.793
0.003829914449479116,0.794
0.008165902576020774,0.795
0.011197823705219878,0.796
0.011330770733690747,0.797
0.007696301029363212,0.798
0.0005119302927499073,0.799
-0.008880714496533163,0.8
-0.018378911606245572,0.801
-0.025785626816816995,0.802
-0.029509156146883743,0.803
-0.02903163873272164,0.804
-0.02499575011089412,0.805
-0.018885647947823447,0.806
-0.012418576815202172,0.807
-0.00690725636085179,0.808
-0.002914539187520595,0.809
-0.00031870540398928866,0.81
0.0014103305802805608,0.811
0.002981375588606554,0.812
0.005130580561149216,0.813
0.00839703916153358,0.814
0.012832665883011296,0.815
0.017883270351708322,0.816
0.022549372806146366,0.817
0.0256678683543694,0.818
0.0261510926185188,0.819
0.023210901291487413,0.82
0.016607279753438495,0.821
0.0068067761459708834,0.822
-0.0050365904891388055,0.823
-0.01722955503025863,0.824
-0.027740455064395975,0.825
-0.034426235143746445,0.826
-0.03533192101192086,0.827
-0.02911624766027808,0.828
-0.015555551509213011,0.829
0.004027528033814598,0.83
0.026583490977692893,0.831
0.0475745767879016,0.832
0.061832035044963936,0.833
0.06504237800490424,0.834
0.05532325397099749,0.835
0.03404422871080055,0.836
0.005493218268072085,0.837
-0.024385915934914706,0.838
-0.04966723793839829,0.839
-0.06590918461782314,0.84
-0.07096673397768229,0.841
-0.06511315103488388,0.842
-0.05066721990502009,0.843
-0.0312788480830698,0.844
-0.010974825782378494,0.845
0.006794714675541623,0.846
0.019770466643568217,0.847
0.027041890775215637,0.848
0.028879724701017236,0.849
0.026372415675667473,0.85
0.020981543276246697,0.851
0.014162644922775863,0.852
0.007147875666627319,0.853
0.0009273881749512079,0.854
-0.003666872051285587,0.855
-0.005979997202136669,0.856
-0.0057239714801592765,0.857
-0.0032204417502628277,0.858
0.0005143725172957655,0.859
0.004024083880811316,0.86
0.005995056796207689,0.861
0.005920420304399048,0.862
0.004438371623561862,0.863
0.003069557729787312,0.864
0.003484178686712741,0.865
0.006673955775673159,0.866
0.012365374888642675,0.867
0.01891769168294642,0.868
0.023812696462751727,0.869
0.02458711480600468,0.87
0.019814990978009046,0.871
0.009688811550103447,0.872
-0.00402647544078658,0.873
-0.018550878567952865,0.874
-0.03092264265145186,0.875
-0.038845040016576536,0.876
-0.041197851204357865,0.877
-0.03802373029788672,0.878
-0.030175473843892794,0.879
-0.018975809225628703,0.88
-0.006038363200281206,0.881
0.00688219134225121,0.882
0.018103424540997826,0.883
0.026182211137014716,0.884
0.03000312590349771,0.885
0.02893383402971025,0.886
0.02306893686722094,0.887
0.013383390778277847,0.888
0.001652400145500566,0.889
-0.009884098749506269,0.89
-0.019007175790260875,0.891
-0.023958137447441245,0.892
-0.023729792322950635,0.893
-0.018223008323963202,0.894
-0.008288321719003178,0.895
0.004316236112143661,0.896
0.01709332627833091,0.897
0.02726083811969383,0.898
0.0325180390142376,0.899
0.03181166499732397,0.9
0.025638891520288466,0.901
0.015715454615516246,0.902
0.004294365605824884,0.903
-0.006484955997193467,0.904
-0.015025676810630762,0.905
-0.020436025122725514,0.906
-0.022490708315388297,0.907
-0.02150300283568306,0.908
-0.01818629250613696,0.909
-0.013538211844094785,0.91
-0.00872308738090934,0.911
-0.004876552969510882,0.912
-0.0027834567864572207,0.913
-0.002562610446433577,0.914
-0.003632003127971601,0.915
-0.005037620717561171,0.916
-0.0059122973714707755,0.917
-0.0057828880210111355,0.918
-0.004649889016620118,0.919
-0.0029022734734338545,0.92
-0.001093108654680879,0.921
0.0003712477492132978,0.922
0.0014655340471651794,0.923
0.002592840776564035,0.924
0.004478013178641886,0.925
0.007967085906427255,0.926
0.013737335207306026,0.927
0.021897583770298955,0.928
0.03152238265456769,0.929
0.040354785786562784,0.93
0.045125232838878204,0.931
0.042748512701687336,0.932
0.03186700114305081,0.933
0.013687761142432371,0.934
-0.008354458510251826,0.935
-0.029738724765240122,0.936
-0.04622605312757476,0.937
-0.054944050178809406,0.938
-0.054867893805726,0.939
-0.04674420486826757,0.94
-0.03272427896482745,0.941
-0.015880015073764072,0.942
0.000430452688620894,0.943
0.013334703348588687,0.944
0.0211024647563045,0.945
0.023408814950570657,0.946
0.02114699820851667,0.947
0.015948171133651202,0.948
0.009617168955382071,0.949
0.0036524035225994284,0.95
-0.0010098010433702454,0.951
-0.003982287659642861,0.952
-0.005270771069234829,0.953
-0.005172246188578174,0.954
-0.004288485854945245,0.955
-0.003481994286769685,0.956
-0.003573379746077654,0.957
-0.004877748190729641,0.958
-0.006952402472181012,0.959
-0.008765973383059043,0.96
-0.00912259403370611,0.961
-0.007083641564844033,0.962
-0.002297534254120391,0.963
0.0047717915387530205,0.964
0.012826149738946153,0.965
0.020084565677987783,0.966
0.024941270662038,0.967
0.026545220743827532,0.968
0.02494157450929009,0.969
0.020781083515189293,0.97
0.014878732337002184,0.971
0.007899917652216567,0.972
0.0002788771701487473,0.973
-0.007678367180221818,0.974
-0.015560664575639123,0.975
-0.022573997274628,0.976
-0.027457136028514746,0.977
-0.028788722027250923,0.978
-0.025592082645752773,0.979
-0.017930264917487747,0.98
-0.007181013178193166,0.981
0.004183010150382582,0.982
0.013296874371380761,0.983
0.017855710214340847,0.984
0.016904051559914663,0.985
0.01111437809505443,0.986
0.0024670290378417553,0.987
-0.006505780271008261,0.988
-0.01356434858209134,0.989
-0.01732342049450076,0.99
-0.017370429046828686,0.991
-0.014036558950843006,0.992
-0.008064102575877002,0.993
-0.0003880868077711808,0.994
0.007942373533568116,0.995
0.01578449253662297,0.996
0.021948434750306608,0.997
0.025365162050316054,0.998
0.02535305058843197,0.999
0.021846135688296794,1.0
0.01547428075130433,1.001
0.007448829871774731,1.002
-0.0007202747158964276,1.003
-0.0076068590651407995,1.004
-0.012260448758079062,1.005
-0.014475858112815434,1.006
-0.014782635440018732,1.007
-0.014094314547191003,1.008
-0.01321420047438832,1.009
-0.01253319378130339,1.01
-0.012049050184734672,1.011
-0.011544672227675228,1.012
-0.010748422913043119,1.013
-0.009437561383607585,1.014
-0.007468886767091965,1.015
-0.004767289348080573,1.016
-0.0013965688539567505,1.017
0.002295016936648825,1.018
0.005688080021539202,1.019
0.008197510516936889,1.02
0.009659728763420883,1.021
0.010471041458013605,1.022
0.011341648236999438,1.023
0.012807331184925056,1.024
0.014835065346122544,1.025
0.016834505636469117,1.026
0.01807486953975277,1.027
0.01814807349352026,1.028
0.01710840942235036,1.029
0.01520121245777632,1.03
0.012403862228246064,1.031
0.0082615273302768,1.032
0.002293557698098517,1.033
-0.0054159107546065165,1.034
-0.013989116367406022,1.035
-0.02193858713162444,1.036
-0.027512329304890098,1.037
-0.02911912609411467,1.038
-0.02588718770132721,1.039
-0.018197484134680905,1.04
-0.007889034181906285,1.041
0.0020548715972024526,1.042
0.008429577081685524,1.043
0.009133521049624768,1.044
0.004161681980101987,1.045
-0.004419470160627418,1.046
-0.01340893432075034,1.047
-0.019674178268459644,1.048
-0.021113950928666463,1.049
-0.017135206844268856,1.05
-0.008593128414923887,1.051
0.002599786568036341,1.052
0.01391541406346608,1.053
0.022716518279881713,1.054
0.026976164817037157,1.055
0.02596764569121102,1.056
0.02047620432208761,1.057
0.01244487341362876,1.058
0.004305511826758035,1.059
-0.0017475298876731223,1.06
-0.004381376290435862,1.061
-0.0035017302450032844,1.062
-0.00023463469739833177,1.063
0.0035504435420365566,1.064
0.006029796419443875,1.065
0.006126772143155566,1.066
0.0037377617978377195,1.067
-0.0005431913669910933,1.068
-0.005881048169730771,1.069
-0.011515076465785307,1.07
-0.016868795252220098,1.071
-0.02151363547720249,1.072
-0.02498819397626611,1.073
-0.02653724413734937,1.074
-0.02497697288157818,1.075
-0.018881645354617185,1.076
-0.007131493156057088,1.077
0.010284098453573972,1.078
0.03145391983907981,1.079
0.052219619474350304,1.08
0.0669835161602148,1.081
0.07073660218089037,1.082
0.06124190408324001,1.083
0.039989809197178254,1.084
0.011586162880482594,1.085
-0.017790587703731407,1.086
-0.04214793228282712,1.087
-0.057198951403581735,1.088
-0.061307203948271764,1.089
-0.055567751810676365,1.09
-0.04304928225654807,1.091
-0.02761015150089866,1.092
-0.012783555921540624,1.093
-0.001082615246656867,1.094
0.0062599335318118225,1.095
0.009317572388922038,1.096
0.009253055240123861,1.097
0.007744496022537096,1.098
0.006270941225451132,1.099
0.00567262190472089,1.1
0.006110253789203092,1.101
0.00726220788384562,1.102
0.008618387656269787,1.103
0.009742149739567106,1.104
0.010347685154345507,1.105
0.010201700855256027,1.106
0.009044466327174358,1.107
0.00668552169085307,1.108
0.003220154422166036,1.109
-0.00083400905658586,1.11
-0.004622596233509595,1.111
-0.007241373121471594,1.112
-0.008053062946833918,1.113
-0.006848499209182506,1.114
-0.0038747421880546925,1.115
0.00014284824134780472,1.116
0.0040615350548728205,1.117
0.006658342327187364,1.118
0.0071611756387671465,1.119
0.005572364576998547,1.12
0.0025097731821278175,1.121
-0.0012615228796081094,1.122
-0.005194526916938064,1.123
-0.008999972153316892,1.124
-0.012458422110695968,1.125
-0.015206184736952193,1.126
-0.016602424108686637,1.127
-0.015752267379334398,1.128
-0.01181913021577306,1.129
-0.004577611027734462,1.13
0.005144256028580734,1.131
0.015420295525196612,1.132
0.023598379024422036,1.133
0.02703055502918393,1.134
0.02409540368861755,1.135
0.01519066922071545,1.136
0.003083311176763842,1.137
-0.007715660173598955,1.138
-0.012310662835583656,1.139
-0.0071258244838776985,1.14
0.008395104535449876,1.141
0.030631962627640705,1.142
0.0520166496893377,1.143
0.06341893579054543,1.144
0.05815049037359549,1.145
0.03522622134693999,1.146
-0.00017038403599202686,1.147
-0.03881851391085264,1.148
-0.07077295175039118,1.149
-0.08856998301598133,1.15
-0.08924828925040802,1.151
-0.07464126885839135,1.152
-0.05021553308681039,1.153
-0.023130931652768482,1.154
-0.00010745283875385184,1.155
0.014390064241845217,1.156
0.019091093203998297,1.157
0.01573251907007562,1.158
0.008031940281492993,1.159
0.0003183846204401895,1.16
-0.003785450788851426,1.161
-0.002322459216265665,1.162
0.004638512641329283,1.163
0.015243160521225046,1.164
0.026469485686636887,1.165
0.03495061341632274,1.166
0.03797067777020986,1.167
0.03445427730058419,1.168
0.025450651558428315,1.169
0.013715991030032747,1.17
0.0025780676997757502,1.171
-0.0052586565010887395,1.172
-0.008392594480152527,1.173
-0.006840384353282605,1.174
-0.0018405024052308178,1.175
0.004553969931848508,1.176
0.010116433391071173,1.177
0.013175587646809091,1.178
0.013065530549564774,1.179
0.01007182502408678,1.18
0.005003950245875788,1.181
-0.0013043721895554642,1.182
-0.008259829168165719,1.183
-0.01544536578460671,1.184
-0.022446597522576675,1.185
-0.028777599976554512,1.186
-0.03385683612296875,1.187
-0.03692174244841403,1.188
-0.03700039172161725,1.189
-0.0331613762606604,1.19
-0.02498152386204021,1.191
-0.012923592725445776,1.192
0.00160054374182402,1.193
0.0165352110844373,1.194
0.029755263627221768,1.195
0.039647216128360606,1.196
0.045408754250252,1.197
0.04693076837559436,1.198
0.044342943339645204,1.199
0.03757050126036948,1.2
0.026409513643267598,1.201
0.011215908905810116,1.202
-0.006439365695133558,1.203
-0.02383896945306524,1.204
-0.037891629642718305,1.205
-0.046121828391204406,1.206
-0.04743560062232581,1.207
-0.042366502657969936,1.208
-0.03270973282713842,1.209
-0.020731761590020756,1.21
-0.008309158404436147,1.211
0.0036519333162727953,1.212
0.015234781527827876,1.213
0.02685920246921504,1.214
0.03821095844891495,1.215
0.04739234130317861,1.216
0.05111474367949591,1.217
0.04626449385855712,1.218
0.03192139271046191,1.219
0.010342531616471152,1.22
-0.013673371126135649,1.221
-0.03453018090559325,1.222
-0.04777949026135283,1.223
-0.0514613770897561,1.224
-0.046379631453281445,1.225
-0.03531125171408773,1.226
-0.021661837246872498,1.227
-0.008305883746256192,1.228
0.0029479392034561696,1.229
0.011313702546066165,1.23
0.016712340117928274,1.231
0.019449061469488816,1.232
0.01999758578726135,1.233
0.0188719645452063,1.234
0.016537972428985637,1.235
0.013370773422335981,1.236
0.009680153587180352,1.237
0.005811848801329585,1.238
0.002246864784113047,1.239
-0.0004515421206640368,1.24
-0.0018346631547442721,1.241
-0.0017491624069022806,1.242
-0.00041402187538106726,1.243
0.0015900329863528476,1.244
0.003413597009494374,1.245
0.004171108292010704,1.246
0.0033054931714520375,1.247
0.0009054229491984819,1.248
-0.0022867505826258145,1.249
-0.005278576921065724,1.25
-0.007360932188226763,1.251
-0.008339364132166446,1.252
-0.008407503297761354,1.253
-0.007983736625575312,1.254
-0.007681380910633967,1.255
-0.008203693556059375,1.256
-0.010005400815162524,1.257
-0.012950940405043002,1.258
-0.01625287860176879,1.259
-0.018693162062228437,1.26
-0.018965063631328258,1.261
-0.01599117531927589,1.262
-0.009168680767694712,1.263
0.0014395645002878046,1.264
0.014956297447125986,1.265
0.02962409304983431,1.266
0.04295377965583957,1.267
0.05222616973967223,1.268
0.0553220449258036,1.269
0.05153040878643348,1.27
0.04176013107436765,1.271
0.027970913000651812,1.272
0.012315509312238364,1.273
-0.003434940098197277,1.274
-0.017985583377588845,1.275
-0.03027187103881464,1.276
-0.039252973441324855,1.277
-0.04405590411414056,1.278
-0.044375811284265064,1.279
-0.04075464524062182,1.28
-0.034456520069046946,1.281
-0.026996689727577895,1.282
-0.019669631614239538,1.283
-0.013322953329985728,1.284
-0.008306941732719689,1.285
-0.004513905948963243,1.286
-0.0015459242894618243,1.287
0.0010323937033726428,1.288
0.003478794107183832,1.289
0.005770869377966612,1.29
0.007648116415240352,1.291
0.008801222296351548,1.292
0.009128310760026005,1.293
0.00889155051586596,1.294
0.008653144707371314,1.295
0.009014668540773483,1.296
0.010304537955158772,1.297
0.012410614104367078,1.298
0.014860442819354768,1.299
0.0170484048132131,1.3
0.01843524071959015,1.301
0.018669038295256027,1.302
0.017663619930159146,1.303
0.015608802352197986,1.304
0.012846973821629203,1.305
0.009651909431938482,1.306
0.006134333062681862,1.307
0.0024526796835188268,1.308
-0.0008951638073820504,1.309
-0.00309774932903239,1.31
-0.0034582401058213816,1.311
-0.0019863540594863716,1.312
0.00022148274440364032,1.313
0.0012262881404412806,1.314
-0.0007967668555621588,1.315
-0.006473123456858413,1.316
-0.01478523466933092,1.317
-0.023477768846972072,1.318
-0.029989938047157674,1.319
-0.03244398010921457,1.32
-0.03027654446625979,1.321
-0.024301913239643876,1.322
-0.016267373742385873,1.323
-0.00817116287594021,1.324
-0.0016170437600009308,1.325
0.002627675958777996,1.326
0.004741651634715078,1.327
0.005589301447000636,1.328
0.006238243053199507,1.329
0.007478478770713669,1.33
0.009504729534727363,1.331
0.011869194184823049,1.332
0.013744298561403684,1.333
0.014351104871062488,1.334
0.013322384144586785,1.335
0.01089118175170082,1.336
0.007829796542833901,1.337
0.005080992829939845,1.338
0.0032913342885478904,1.339
0.0026085849880898497,1.34
0.0028081624348253,1.341
0.0034935121717362995,1.342
0.004205876669187683,1.343
0.0045010074014906025,1.344
0.00404119440359302,1.345
0.0026796442392961733,1.346
0.0005003412041446493,1.347
-0.002235532367191943,1.348
-0.005206507885724695,1.349
-0.008110944530494733,1.35
-0.010668273181482233,1.351
-0.0125948675378521,1.352
-0.013634454818530864,1.353
-0.013583266613224282,1.354
-0.012202146796470068,1.355
-0.009156879637168961,1.356
-0.004214246305679614,1.357
0.0023810508418797035,1.358
0.009674133911275784,1.359
0.01614586434726574,1.36
0.020202219138529424,1.361
0.020777236197118295,1.362
0.01776195395142623,1.363
0.012020776529483216,1.364
0.00496897503174752,1.365
-0.001996282671311916,1.366
-0.007843998466043488,1.367
-0.011942599870775119,1.368
-0.01394207572108634,1.369
-0.013700298346335545,1.37
-0.011341070721222474,1.371
-0.007377810405808689,1.372
-0.0027470213295846583,1.373
0.0013678173549317664,1.374
0.003898858948641934,1.375
0.004261398152574304,1.376
0.002539330781214396,1.377
-0.0005696211709949093,1.378
-0.0040119220555450245,1.379
-0.006744772813618444,1.38
-0.008056362986030245,1.381
-0.007706374518892814,1.382
-0.005879287105831975,1.383
-0.0030441844046565137,1.384
0.0001831377914786263,1.385
0.0031573294657650424,1.386
0.005346177201856086,1.387
0.0064965292022308024,1.388
0.006743654568352745,1.389
0.006565983400799703,1.39
0.00656650458634903,1.391
0.007221105463386007,1.392
0.008737404010136285,1.393
0.011003613370459025,1.394
0.013541437849100902,1.395
0.015481797588555925,1.396
0.01572825102309897,1.397
0.013402314835326395,1.398
0.008328402904398758,1.399
0.001162154574176485,1.4
-0.006913632919667679,1.401
-0.01462300934865052,1.402
-0.020871367705547667,1.403
-0.02482285509607052,1.404
-0.025927261117539756,1.405
-0.024039413197996642,1.406
-0.019585221178872236,1.407
-0.013558644342917776,1.408
-0.00723069661862877,1.409
-0.0017184835201033062,1.41
0.002330456093437998,1.411
0.004812182876927372,1.412
0.00605064449295855,1.413
0.006586432976783556,1.414
0.006920926657179259,1.415
0.007293688783528534,1.416
0.007579645191282551,1.417
0.007364285005371853,1.418
0.006237076777437051,1.419
0.004183274040699858,1.42
0.0017540660118050004,1.421
-0.00020386908096571059,1.422
-0.0010863187979392726,1.423
-0.0008971973783988646,1.424
-0.0001510603265708129,1.425
0.0005768131884316208,1.426
0.001091313247066038,1.427
0.0017502918988613859,1.428
0.00332809273114156,1.429
0.006624714828882166,1.43
0.01196061677844,1.431
0.0187952298562308,1.432
0.025641602472741196,1.433
0.030318930682014338,1.434
0.03055453990615758,1.435
0.02482883079738084,1.436
0.013109739518077009,1.437
-0.0029319538841483706,1.438
-0.02036330958279387,1.439
-0.03586798338874717,1.44
-0.04669548631303862,1.441
-0.05134339837241286,1.442
-0.049750332245612414,1.443
-0.04304653073667152,1.444
-0.03310144337822946,1.445
-0.021976156798484532,1.446
-0.011327101006072907,1.447
-0.0020082096756024706,1.448
0.005907392886615386,1.449
0.012805152967743729,1.45
0.01917798028102377,1.451
0.02533588998190337,1.452
0.03114975677428612,1.453
0.0359267307759139,1.454
0.038570870303645206,1.455
0.038060636733003014,1.456
0.03407204210805819,1.457
0.027333566313533227,1.458
0.01935489389422235,1.459
0.011646468599306589,1.46
0.004928717055448581,1.461
-0.0011413347655059717,1.462
-0.007488935833403846,1.463
-0.014731466338765365,1.464
-0.022576715458947707,1.465
-0.029883230815813518,1.466
-0.03519820615635229,1.467
-0.03735936668446862,1.468
-0.03585225777850417,1.469
-0.030851935597717366,1.47
-0.023076867578722793,1.471
-0.013605285108150424,1.472
-0.003687894465096931,1.473
0.0054782477166795875,1.474
0.012973085042574661,1.475
0.018238645270683272,1.476
0.02098607312819544,1.477
0.0210926640468561,1.478
0.018637961118874898,1.479
0.014013001833377062,1.48
0.007991978260551197,1.481
0.0017359481134000575,1.482
-0.0033406829971406008,1.483
-0.005918203203718604,1.484
-0.005222802216013957,1.485
-0.0013449163123246983,1.486
0.004696778788201889,1.487
0.011161286890389312,1.488
0.01606201405512199,1.489
0.01780740332370539,1.49
0.01574794096103689,1.491
0.010354348639652806,1.492
0.002925932208107396,1.493
-0.004965210651735815,1.494
-0.011941032753797154,1.495
-0.01702784054819718,1.496
-0.01968903212120396,1.497
-0.019808447352913032,1.498
-0.017649564784351954,1.499
-0.013752012159530386,1.5
-0.008780976720257084,1.501
-0.0033936493330914467,1.502
0.001840599322015972,1.503
0.006463714102620537,1.504
0.010102203059796755,1.505
0.012431702446971971,1.506
0.013203834862931998,1.507
0.012347457144609627,1.508
0.010064153515036586,1.509
0.0068180768136861265,1.51
0.003202872040912226,1.511
-0.00023201267241591668,1.512
-0.003099165938227163,1.513
-0.005201422167288255,1.514
-0.006498836610075817,1.515
-0.0070539481666599055,1.516
-0.006988199188924314,1.517
-0.006460565846453037,1.518
-0.005616365154076576,1.519
-0.004477107112995681,1.52
-0.0029017358702960925,1.521
-0.0007529644629631016,1.522
0.001849116229896402,1.523
0.004413380423891069,1.524
0.006196910810105583,1.525
0.006544794545324417,1.526
0.00531016074944805,1.527
0.0030416882121038526,1.528
0.0007373082467584302,1.529
-0.0006633934248315714,1.53
-0.0007056048699441914,1.531
0.0004216845680437448,1.532
0.001996304244451567,1.533
0.003072952232135426,1.534
0.002880653072470553,1.535
0.0011423356545202613,1.536
-0.001838277860087488,1.537
-0.005346472589709511,1.538
-0.00855741515889024,1.539
-0.010787739683777582,1.54
-0.011587852619733073,1.541
-0.01072110346643812,1.542
-0.008156586294611756,1.543
-0.004120186543670546,1.544
0.0008442549292694515,1.545
0.005870322486560969,1.546
0.009907244090876637,1.547
0.012027416060184053,1.548
0.01177694440973929,1.549
0.009398424319142742,1.55
0.005815201149855253,1.551
0.002351155832530296,1.552
0.00027174987688160097,1.553
0.00031956224541305827,1.554
0.0024362365454768816,1.555
0.005763053863574657,1.556
0.008890801974021364,1.557
0.010301515863697342,1.558
0.008913726889414716,1.559
0.004548997601008015,1.56
-0.0019403813974819804,1.561
-0.008992732538376689,1.562
-0.014878504065321374,1.563
-0.018161959939330088,1.564
-0.01802144677687964,1.565
-0.014465637905097374,1.566
-0.008356778071366675,1.567
-0.0011330558810636745,1.568
0.005673270487821475,1.569
0.010842238582361559,1.57
0.013584492064787968,1.571
0.013452678269935752,1.572
0.010299012186065727,1.573
0.004374789743653528,1.574
-0.0035258826398440082,1.575
-0.01203121148467428,1.576
-0.019380868530304508,1.577
-0.023798235064649675,1.578
-0.02390371333719767,1.579
-0.01908775735162664,1.58
-0.009771781249324936,1.581
0.0025663492337937707,1.582
0.015632747386671624,1.583
0.026736594433527137,1.584
0.03336436149989547,1.585
0.03389142026482019,1.586
0.028185343340252238,1.587
0.017738308342520697,1.588
0.005181274625188159,1.589
-0.006617815995873213,1.59
-0.015427352559610434,1.591
-0.020101403524433237,1.592
-0.020552536965768142,1.593
-0.017488930104271636,1.594
-0.012117590109364798,1.595
-0.005847102370555299,1.596
2.422141116685118e-06,1.597
0.004432012282031597,1.598
0.0068945181889674525,1.599
0.007327877279862346,1.6
0.006123178128702379,1.601
0.004002885999170486,1.602
0.0017806576553798937,1.603
9.40902825250474e-05,1.604
-0.0007625925022232924,1.605
-0.0008573070416634968,1.606
-0.0005038885743242164,1.607
-9.671179496601824e-05,1.608
-4.669272852616161e-06,1.609
-0.0005298455069911833,1.61
-0.0018712034046478433,1.611
-0.004072177658775634,1.612
-0.006946861300123923,1.613
-0.009989332117710801,1.614
-0.01234625751113673,1.615
-0.012967669796289388,1.616
-0.01095335332295076,1.617
-0.005969380584638203,1.618
0.0014543782949442581,1.619
0.009899354572367288,1.62
0.017403380674394148,1.621
0.02213876236239283,1.622
0.02311272445902401,1.623
0.02046204955671243,1.624
0.015183881266881465,1.625
0.008570996503138733,1.626
0.0017803239768165813,1.627
-0.004285653007022009,1.628
-0.008930221783432777,1.629
-0.011658703776250097,1.63
-0.012279160431396867,1.631
-0.011006702327204784,1.632
-0.008451394668408623,1.633
-0.005471334034917612,1.634
-0.002958803822366287,1.635
-0.0016225255144484958,1.636
-0.0017873658979873292,1.637
-0.003239653148961597,1.638
-0.0052151248945980595,1.639
-0.006637317090060547,1.64
-0.006543955129568026,1.641
-0.00446630216892673,1.642
-0.0005971884535057303,1.643
0.004258132626792066,1.644
0.008931875786092598,1.645
0.012304705380871656,1.646
0.013673280675081648,1.647
0.012829576150826765,1.648
0.00989861930002611,1.649
0.005195000683085819,1.65
-0.0007963759128904108,1.651
-0.007398760528595413,1.652
-0.013741807104394347,1.653
-0.018773195515895846,1.654
-0.021349878121882982,1.655
-0.020498968984828395,1.656
-0.0157892141530648,1.657
-0.007657407115180597,1.658
0.002495091502533118,1.659
0.012612069963332011,1.66
0.020650732592959922,1.661
0.025244220990523366,1.662
0.026001116557143995,1.663
0.023389891094208488,1.664
0.01838163761612244,1.665
0.012076301495488473,1.666
0.005438227200216429,1.667
-0.0008418269783502107,1.668
-0.006334922707901593,1.669
-0.010760833574799532,1.67
-0.013914158501499456,1.671
-0.015671382811602637,1.672
-0.01599406301188005,1.673
-0.014884131075883456,1.674
-0.012355278958670682,1.675
-0.00850221112185756,1.676
-0.003653189791773206,1.677
0.001535617546687504,1.678
0.006181285767131244,1.679
0.0094558077133563,1.68
0.010878594853791921,1.681
0.010417764429119925,1.682
0.008358075866991103,1.683
0.005099497121509202,1.684
0.0010557296241458958,1.685
-0.003320251447936229,1.686
-0.007455685848797524,1.687
-0.010649542349901476,1.688
-0.012236290813948149,1.689
-0.011849477388082192,1.69
-0.009581640139595993,1.691
-0.0059299957271365875,1.692
-0.0016010273044104483,1.693
0.00270617519210703,1.694
0.006449617150582145,1.695
0.009247630906263358,1.696
0.010776382547306179,1.697
0.01076367216541041,1.698
0.009173722680044615,1.699
0.006366348349399911,1.7
0.0029831152755465185,1.701
-0.0003549938829767672,1.702
-0.003272813650347845,1.703
-0.005652594296897273,1.704
-0.007470907044936116,1.705
-0.00862015525186479,1.706
-0.008868762580804873,1.707
-0.007975899535399632,1.708
-0.0058543947415870224,1.709
-0.002665456656061763,1.71
0.0011879700749176138,1.711
0.005149436309867806,1.712
0.008650198914274829,1.713
0.011225678439503988,1.714
0.012541181719790372,1.715
0.012375271791074078,1.716
0.010642488046597719,1.717
0.007449640577394407,1.718
0.0031354617337051006,1.719
-0.001718783740364185,1.72
-0.00631853025462138,1.721
-0.009764664454410404,1.722
-0.011233876543460895,1.723
-0.010152937973274663,1.724
-0.006331845792433231,1.725
-0.00011721848508599255,1.726
0.007428400450024541,1.727
0.014505442686275155,1.728
0.018936150153781865,1.729
0.018893953369048172,1.73
0.013699266636456221,1.731
0.004237805185949582,1.732
-0.007297702419332386,1.733
-0.01820806728769864,1.734
-0.026160436004704166,1.735
-0.029748232989886686,1.736
-0.02864223490615091,1.737
-0.023450104138438774,1.738
-0.015439799324873436,1.739
-0.006216832853316061,1.74
0.0025976078833762004,1.741
0.009666477116881273,1.742
0.014167790376255252,1.743
0.015876242672849036,1.744
0.015086479601306144,1.745
0.012457288189465928,1.746
0.008839973910799433,1.747
0.005095472689367907,1.748
0.0019270362911351338,1.749
-0.00022284656778174842,1.75
-0.0012013429604731723,1.751
-0.001089585813647244,1.752
-8.165937157186593e-05,1.753
0.0015983438527441666,1.754
0.003663591208776878,1.755
0.005693304260051111,1.756
0.007177520731778835,1.757
0.007692535741764784,1.758
0.007067677046852925,1.759
0.0054301675678489454,1.76
0.003123689338108122,1.761
0.0005671776604197968,1.762
-0.0018768003347722844,1.763
-0.003980568489064895,1.764
-0.005653467101354619,1.765
-0.006881245385084365,1.766
-0.0076614844096018365,1.767
-0.007993146963640353,1.768
-0.007910636328021642,1.769
-0.007497155049188588,1.77
-0.006845337121986559,1.771
-0.005997779320957824,1.772
-0.004906864477709421,1.773
-0.003448558390329498,1.774
-0.0015265129908953962,1.775
0.000782261812978857,1.776
0.003168669696834404,1.777
0.005181730635095023,1.778
0.0064028287312404035,1.779
0.0066073255527688175,1.78
0.0058674692652598915,1.781
0.004557330461907502,1.782
0.003227123155918749,1.783
0.0023804905080323222,1.784
0.0022493820056921445,1.785
0.0026865042494890173,1.786
0.003243595011672534,1.787
0.0033930871962679146,1.788
0.002773882547114492,1.789
0.0013501360330086662,1.79
-0.0005688188833398301,1.791
-0.0024587534406222984,1.792
-0.0038225043423716883,1.793
-0.0044380449739953275,1.794
-0.0044707199439888165,1.795
-0.00436294995466554,1.796
-0.0045770416467064865,1.797
-0.005352665856674854,1.798
-0.006569761646519181,1.799
-0.007731948799131202,1.8
-0.00808479158486524,1.801
-0.006886921976137292,1.802
-0.0037660688067348434,1.803
0.0010126008103527406,1.804
0.00651938579059534,1.805
0.011404359387398236,1.806
0.014332496300056232,1.807
0.014473273910106,1.808
0.011850315808536247,1.809
0.007348023640155445,1.81
0.0023488412951307965,1.811
-0.0018162853250649322,1.812
-0.004360344772485113,1.813
-0.005245499447610028,1.814
-0.005015006558418132,1.815
-0.004392576039265623,1.816
-0.003877465545238754,1.817
-0.0035325027057542015,1.818
-0.0030469590395206013,1.819
-0.001986020805898567,1.82
-6.788792010761581e-05,1.821
0.0026185787645110004,1.822
0.005485766310114698,1.823
0.007518855847176997,1.824
0.007682089643740085,1.825
0.0055244260774178515,1.826
0.001525765534722426,1.827
-0.0031115869701385103,1.828
-0.007019964926290481,1.829
-0.009194539722706292,1.83
-0.009274901223575641,1.831
-0.0075284487592162455,1.832
-0.004620607006401915,1.833
-0.0013162738804839904,1.834
0.0017631483772973181,1.835
0.004235297146315252,1.836
0.0059017289077780595,1.837
0.006658423811373743,1.838
0.006473636557688515,1.839
0.005396772054281909,1.84
0.003521890840275975,1.841
0.0009469028934751394,1.842
-0.002183618424615519,1.843
-0.005591275748099913,1.844
-0.008831387501552107,1.845
-0.011344920921489119,1.846
-0.012579560105900415,1.847
-0.012130981769723258,1.848
-0.009859045918121093,1.849
-0.005975500137599218,1.85
-0.001067844592682276,1.851
0.00401305673493116,1.852
0.008395471298872208,1.853
0.01145146397339088,1.854
0.012973739193971746,1.855
0.01317896053359354,1.856
0.012508393042697314,1.857
0.01135357160918169,1.858
0.009900170625168481,1.859
0.008156616100462307,1.86
0.006087226155241426,1.861
0.003737110789478153,1.862
0.0012869442783479787,1.863
-0.0009820880233617434,1.864
-0.0027964952084435094,1.865
-0.004025115418064018,1.866
-0.004782376085943701,1.867
-0.005415429252199594,1.868
-0.006323366212598585,1.869
-0.00769838649564559,1.87
-0.009375294315920484,1.871
-0.010884613228459001,1.872
-0.01164485771173187,1.873
-0.011185560210627964,1.874
-0.009318039829376686,1.875
-0.006206026956050269,1.876
-0.0023336330654762515,1.877
0.0016085813823484149,1.878
0.004888924827062382,1.879
0.006918654554738098,1.88
0.007396901454444642,1.881
0.006353878441467554,1.882
0.004120785241572697,1.883
0.0012913455439312101,1.884
-0.0013589280243264058,1.885
-0.003055577041175358,1.886
-0.003251916956084907,1.887
-0.0017841048721795368,1.888
0.0010887552681757427,1.889
0.004729484991992536,1.89
0.00823514529206527,1.891
0.010647867948227058,1.892
0.011246860573813846,1.893
0.009794178305780965,1.894
0.006595198111474946,1.895
0.002344933862677894,1.896
-0.0021421089004654277,1.897
-0.006172779665634957,1.898
-0.009281274092057964,1.899
-0.011197389659737565,1.9
-0.011749472098656318,1.901
-0.010781112437303026,1.902
-0.00817140812074617,1.903
-0.003998084447031237,1.904
0.0012656680773573098,1.905
0.006709295017082352,1.906
0.011213417040618253,1.907
0.013884604789643899,1.908
0.01444849107267295,1.909
0.013341611895453825,1.91
0.011442984882460676,1.911
0.009598220649703879,1.912
0.008178866488166524,1.913
0.0069115660692061,1.914
0.0050714343199804775,1.915
0.0019010625415966814,1.916
-0.0030060009098692208,1.917
-0.009532136694022461,1.918
-0.01706383325445386,1.919
-0.0246057537013635,1.92
-0.030912893739814314,1.921
-0.03467591887371213,1.922
-0.03479142422642277,1.923
-0.03065808558225943,1.924
-0.022392972421671233,1.925
-0.01087241239646556,1.926
0.002421649429419311,1.927
0.015649320458451035,1.928
0.02686701133353525,1.929
0.034333837302203615,1.93
0.036920323895245924,1.931
0.03449571162997391,1.932
0.028041196663641948,1.933
0.01933280919130462,1.934
0.010312212110401937,1.935
0.002500165457150994,1.936
-0.003258124569491939,1.937
-0.006737349625757141,1.938
-0.008146910216699693,1.939
-0.007943388166144956,1.94
-0.006692827851719067,1.941
-0.004971745336265873,1.942
-0.0032927881743316807,1.943
-0.0020586634045424356,1.944
-0.001528384769631772,1.945
-0.0017884249689671965,1.946
-0.0027377365916980345,1.947
-0.004105198872015452,1.948
-0.005515180525924957,1.949
-0.00657925702103286,1.95
-0.006975365521698919,1.951
-0.006501927038125323,1.952
-0.0051242042247742,1.953
-0.003014875230137025,1.954
-0.0005522464061442962,1.955
0.0017585044064536905,1.956
0.003434294939284186,1.957
0.004178709091564618,1.958
0.003984527130774294,1.959
0.0031134858632008455,1.96
0.001957812147559173,1.961
0.0008678189701720553,1.962
4.26290099819661e-05,1.963
-0.0004812683848693529,1.964
-0.0007629713430445731,1.965
-0.0008461820270235791,1.966
-0.0006731307408747797,1.967
-0.00010821646751050398,1.968
0.0009287677980416776,1.969
0.00232561945505129,1.97
0.003735528258777854,1.971
0.004649406794486518,1.972
0.004579912080556264,1.973
0.00330310158371547,1.974
0.0009932157080017668,1.975
-0.0018446781790809905,1.976
-0.004558071044405618,1.977
-0.006538497628997283,1.978
-0.007376161139414651,1.979
-0.006949020150185448,1.98
-0.005419428473326054,1.981
-0.0031468136984620708,1.982
-0.0005862097281526112,1.983
0.0017764039393459434,1.984
0.0034873147498349468,1.985
0.004227229321821486,1.986
0.003922321484775021,1.987
0.0027939328993423695,1.988
0.0013120900650344942,1.989
7.136624522703614e-05,1.99
-0.00038406162718209423,1.991
0.0002481483977421957,1.992
0.0018822799460468105,1.993
0.0040200427616250076,1.994
0.005905084572043415,1.995
0.006828903976961198,1.996
0.006429251359381367,1.997
0.004802614277436678,1.998
0.002403422603714005,1.999
-0.00018251355034417248,2.0
-0.0024896905186733835,2.001
-0.004332224168557844,2.002
-0.00576341470181955,2.003
-0.006853452788355865,2.004
-0.007490507483736383,2.005
-0.007399332785999011,2.006
-0.006340299007571633,2.007
-0.004312389584852699,2.008
-0.001618449320292332,2.009
0.0012370453458148867,2.01
0.0037326559267967093,2.011
0.0054849887098619215,2.012
0.006318346724321554,2.013
0.006261028041215761,2.014
0.0054985261478273356,2.015
0.004289231098317705,2.016
0.0028517474422132005,2.017
0.0012861719846626132,2.018
-0.0004046960440925486,2.019
-0.0022384109908833456,2.02
-0.00420536456054751,2.021
-0.006240834037823388,2.022
-0.008184754663749056,2.023
-0.009761055624552144,2.024
-0.010607935918401621,2.025
-0.0103396892069126,2.026
-0.00863508668015537,2.027
-0.0053738209499997035,2.028
-0.000768067003245183,2.029
0.0046047768905787346,2.03
0.009884034744018616,2.031
0.014083758649998524,2.032
0.016306189789490614,2.033
0.01600087614685556,2.034
0.013201411665284192,2.035
0.008595353245235911,2.036
0.003337584747952137,2.037
-0.0013244488085448936,2.038
-0.004459520620337538,2.039
-0.0057361874220117634,2.04
-0.005467280078501574,2.041
-0.004411227763497264,2.042
-0.0034246960254651357,2.043
-0.0031220286869256385,2.044
-0.003702915849763476,2.045
-0.004991156105624426,2.046
-0.006569890136369557,2.047
-0.00789007641646234,2.048
-0.008359131682865714,2.049
-0.0074716119416534995,2.05
-0.004978682337986964,2.051
-0.0010210924329821733,2.052
0.0038722359216791426,2.053
0.008921411305690031,2.054
0.013257901447902657,2.055
0.016054587574319944,2.056
0.016667879322083218,2.057
0.01482518893490239,2.058
0.010786426694855068,2.059
0.00533095321651427,2.06
-0.0004833547440953404,2.061
-0.005653167882489847,2.062
-0.009475425941382096,2.063
-0.011640402053924198,2.064
-0.01221147258084435,2.065
-0.011537460577404813,2.066
-0.010106032814838338,2.067
-0.008365731035622069,2.068
-0.006586864846895867,2.069
-0.004824409536107078,2.07
-0.002994216612976419,2.071
-0.0010046282761464753,2.072
0.0011369430397651138,2.073
0.0032841059440173606,2.074
0.005171196233233562,2.075
0.006466195675482319,2.076
0.0068578142273335915,2.077
0.006179179607430861,2.078
0.0045048454775913896,2.079
0.002148491471393065,2.08
-0.0004233399574195998,2.081
-0.0026981452982676353,2.082
-0.004214156961826223,2.083
-0.004646759477867327,2.084
-0.0038760724643412572,2.085
-0.0020120689496453837,2.086
0.0006154988227957067,2.087
0.0034730093176527773,2.088
0.0058714263389729425,2.089
0.007116221612536418,2.09
0.006758172952663832,2.091
0.004808926771467777,2.092
0.0017580534448063533,2.093
-0.0016120136927310245,2.094
-0.004476882813573068,2.095
-0.006186812274146221,2.096
-0.0064241888173748925,2.097
-0.005272806469477331,2.098
-0.0031613121529365895,2.099
-0.0006864997001086288,2.1
0.001615738762012051,2.101
0.003446194141268033,2.102
0.004779523877368012,2.103
0.0057465957298966416,2.104
0.006444461500659906,2.105
0.0068150204605576465,2.106
0.00666762770102105,2.107
0.00580060528245053,2.108
0.0041266085579432735,2.109
0.0017415972725110592,2.11
-0.0010793868798479023,2.111
-0.003948247668721762,2.112
-0.006455877698957462,2.113
-0.008261820354667068,2.114
-0.009163236912889146,2.115
-0.009124789276412644,2.116
-0.008262875710923314,2.117
-0.006799594582091182,2.118
-0.005026654937684337,2.119
-0.0032892373645250737,2.12
-0.001945366440053742,2.121
-0.0012683245026231251,2.122
-0.0013165851493314533,2.123
-0.0018513605529579806,2.124
-0.0023839072193393047,2.125
-0.0023593546700877996,2.126
-0.001396154079822042,2.127
0.0005460364797067009,2.128
0.003172586043935428,2.129
0.006018094420415091,2.13
0.008639129118710807,2.131
0.010714341044508672,2.132
0.012020226400238043,2.133
0.012369844902033127,2.134
0.011641179755956901,2.135
0.009877329328821521,2.136
0.007317100953952733,2.137
0.004303188616708777,2.138
0.001172239635589853,2.139
-0.0017749943531775254,2.14
-0.004261169214102727,2.141
-0.006049551480653367,2.142
-0.0069979555039815415,2.143
-0.007117563874970837,2.144
-0.006595773781959151,2.145
-0.00576364225490918,2.146
-0.0050147273732321085,2.147
-0.0046911032272424725,2.148
-0.004967213751392215,2.149
-0.005772232872981462,2.15
-0.006785659903075889,2.151
-0.007515843140383748,2.152
-0.0074325705042618505,2.153
-0.0061149577058536506,2.154
-0.0033885843961976333,2.155
0.0005845768575811506,2.156
0.005304216415012137,2.157
0.01001804996366979,2.158
0.0138570571618394,2.159
0.01598885919907475,2.16
0.015801651617455923,2.161
0.013136368975526747,2.162
0.00846539836913978,2.163
0.0028158757214406926,2.164
-0.0025987967550517074,2.165
-0.006821068960569783,2.166
-0.009417562346344622,2.167
-0.010483263634604934,2.168
-0.010450881609140534,2.169
-0.00983059768233117,2.17
-0.008998926941729242,2.171
-0.008117797192193105,2.172
-0.0071681078526435035,2.173
-0.006036276781584232,2.174
-0.004611340227251712,2.175
-0.0028417988817939226,2.176
-0.0007300659375768638,2.177
0.0016951254732385293,2.178
0.004380685555256117,2.179
0.007199069145444303,2.18
0.009863558599496568,2.181
0.011910543497342045,2.182
0.012841821307901636,2.183
0.012361683441075438,2.184
0.010541902538539141,2.185
0.007802415789666457,2.186
0.00472261245500576,2.187
0.0018144809467972758,2.188
-0.0006193479589749347,2.189
-0.002504325897586136,2.19
-0.003903615741740151,2.191
-0.004897129439411514,2.192
-0.005526342371424351,2.193
-0.0058115850739077785,2.194
-0.005776476951819196,2.195
-0.005449490670360935,2.196
-0.004871318873672849,2.197
-0.004110259558671379,2.198
-0.0032541635994984826,2.199
-0.0023850674308987323,2.2
-0.0015688602320458828,2.201
-0.000867501613888296,2.202
-0.0003483270307506982,2.203
-7.347707680373128e-05,2.204
-8.313629923534204e-05,2.205
-0.00037329755965256,2.206
-0.0008539467378377156,2.207
-0.001321359703086402,2.208
-0.00151614877795627,2.209
-0.0012646374325689302,2.21
-0.000591637197376512,2.211
0.00029750550442076876,2.212
0.001154174296162381,2.213
0.0018340461193084255,2.214
0.00234827911970915,2.215
0.0028045705701295544,2.216
0.0033011021693849897,2.217
0.0038481815050245075,2.218
0.004362684868504738,2.219
0.004715868955340508,2.22
0.004782051102458473,2.221
0.004481145685961153,2.222
0.003827015857094941,2.223
0.002942326972600607,2.224
0.0019919261571396127,2.225
0.0010642127828317319,2.226
0.00010018358411453415,2.227
-0.0010635025377387368,2.228
-0.002573141595048297,2.229
-0.004437225250695852,2.23
-0.006449611431782912,2.231
-0.008187455745386351,2.232
-0.009124089561730204,2.233
-0.008832467644540888,2.234
-0.007173870227036653,2.235
-0.004376191114798022,2.236
-0.0009692237529951705,2.237
0.002386156205754761,2.238
0.0050877522077016,2.239
0.00673569515111172,2.24
0.007210864091889817,2.241
0.006665090834945045,2.242
0.005415985209816807,2.243
0.0038108548521255396,2.244
0.002150901172994519,2.245
0.0006903904561055162,2.246
-0.0003677905879106535,2.247
-0.0009277339217267607,2.248
-0.0010429631470789762,2.249
-0.0008862361056530152,2.25
-0.0006835343617318267,2.251
-0.0006649524251686838,2.252
-0.0010335516761702738,2.253
-0.0019215945229743884,2.254
-0.0033245010411260658,2.255
-0.005046235357930377,2.256
-0.00669645142835312,2.257
-0.007768374366877275,2.258
-0.007786693985187167,2.259
-0.006449701372485341,2.26
-0.003706052206908784,2.261
0.0002191089753290341,2.262
0.004820124411924423,2.263
0.009343103550721498,2.264
0.01288897255449092,2.265
0.014593709057077076,2.266
0.013854127190246597,2.267
0.010549350390632744,2.268
0.0051841543808976405,2.269
-0.0011661663338362017,2.27
-0.0071574564679663085,2.271
-0.011563389170015932,2.272
-0.01354918951194184,2.273
-0.01279166401599043,2.274
-0.009494103946918086,2.275
-0.004349419747070509,2.276
0.0015491598457690865,2.277
0.006904972147333067,2.278
0.010522834961007319,2.279
0.011638722893908571,2.28
0.01015128756081252,2.281
0.0066417525292614184,2.282
0.0021591030837871884,2.283
-0.0021182344207213446,2.284
-0.00519017529031084,2.285
-0.006446888352715683,2.286
-0.005769750995000149,2.287
-0.003503187322791189,2.288
-0.00033217802636278395,2.289
0.0028827396744574565,2.29
0.0052966659370903,2.291
0.006274592210193077,2.292
0.00554082180463211,2.293
0.0032376614286650104,2.294
-0.00011974526961877047,2.295
-0.00378226140671961,2.296
-0.00698109456773473,2.297
-0.009140086337535621,2.298
-0.00997660581931457,2.299
-0.009486467950867631,2.3
-0.007897145479698508,2.301
-0.005612242267356835,2.302
-0.003110627127321304,2.303
-0.0008142509201737154,2.304
0.0010136558609288072,2.305
0.002294876751675686,2.306
0.003088781138953017,2.307
0.003518295822249089,2.308
0.0037096259511006507,2.309
0.0037583554397598463,2.31
0.0037271970232455017,2.311
0.003656952890870645,2.312
0.0035586827084011182,2.313
0.003396268592600829,2.314
0.0031131652870698343,2.315
0.0027072711577339694,2.316
0.0022720912752058164,2.317
0.001953335816546423,2.318
0.0018613152010622674,2.319
0.0020062521783545005,2.32
0.002286258520064942,2.321
0.002525367010100894,2.322
0.002555930511795529,2.323
0.0023019551128826868,2.324
0.0017896758876313763,2.325
0.0010795352875972585,2.326
0.0002036464478633985,2.327
-0.0008239034231706134,2.328
-0.001962537003539982,2.329
-0.0031327541365254027,2.33
-0.00422293094636195,2.331
-0.00509170129509171,2.332
-0.005596347594936764,2.333
-0.005649384127590055,2.334
-0.005257593583167285,2.335
-0.00452380647428868,2.336
-0.00361416495863792,2.337
-0.0026946676314810384,2.338
-0.0018702486079912389,2.339
-0.001171219114662961,2.34
-0.0005822777972066404,2.341
-7.043742274548753e-05,2.342
0.0004000746089540509,2.343
0.0008489310457287151,2.344
0.0012656306835079991,2.345
0.00162220568546778,2.346
0.0019022335345045757,2.347
0.0021237235877176065,2.348
0.002351746898868871,2.349
0.0026830138561715917,2.35
0.003185924668414871,2.351
0.003833790329015463,2.352
0.004483758292267186,2.353
0.004910761379301268,2.354
0.0048709651817169485,2.355
0.004173827350856069,2.356
0.0027654340152255125,2.357
0.0008014348014219342,2.358
-0.0013615596070894501,2.359
-0.0032872587328366685,2.36
-0.004628274733700512,2.361
-0.005239853712898448,2.362
-0.005179064708954656,2.363
-0.004617043340631572,2.364
-0.0037360921085279977,2.365
-0.002655717836413366,2.366
-0.0014106801999729298,2.367
8.019817634162594e-06,2.368
0.0015777777203419725,2.369
0.003193391991783713,2.37
0.004668579626970751,2.371
0.005762595814871662,2.372
0.006214685885974408,2.373
0.005817735978259646,2.374
0.004527181330552103,2.375
0.0025199469989576726,2.376
0.00015348449598030293,2.377
-0.002132713460552015,2.378
-0.0039251855792986285,2.379
-0.004935768900357095,2.38
-0.005070662501779982,2.381
-0.004440492280632317,2.382
-0.0033121230765597457,2.383
-0.0020202230288033983,2.384
-0.0008481588066718299,2.385
6.613906584579932e-05,2.386
0.0007234176099445783,2.387
0.001161648811449757,2.388
0.0013457106704162188,2.389
0.0011310065416620775,2.39
0.00032904243515063155,2.391
-0.0011485625533461366,2.392
-0.0031483879321431616,2.393
-0.005238813655483405,2.394
-0.006818160743043831,2.395
-0.007318942259441807,2.396
-0.00640728941538322,2.397
-0.004087998026882269,2.398
-0.000685025408806313,2.399
0.0032600929222341224,2.4
0.007098795584866452,2.401
0.010178618624493584,2.402
0.011957699509368333,2.403
0.012106737436539202,2.404
0.010569699685378676,2.405
0.007600893045552931,2.406
0.003769597383346,2.407
-0.0001409082855598971,2.408
-0.0033645649102324055,2.409
-0.005417409020348666,2.41
-0.006240903835099549,2.411
-0.006133400580438802,2.412
-0.0055331746585042,2.413
-0.0048078769967178974,2.414
-0.004150515498100052,2.415
-0.003583777684333792,2.416
-0.0030290403373604137,2.417
-0.0023918905351075596,2.418
-0.0016268060720591611,2.419
-0.0007662223430261056,2.42
7.934531185192802e-05,2.421
0.0007564075592081278,2.422
0.00114248662992041,2.423
0.0012022537909312698,2.424
0.0009853146422356218,2.425
0.0006114745456515801,2.426
0.0002741530647659725,2.427
0.00022668915339826967,2.428
0.0007210053031904581,2.429
0.0019040396987446994,2.43
0.0037081394168249813,2.431
0.00580323340370049,2.432
0.007660860352437611,2.433
0.008710646175237636,2.434
0.008523370983893042,2.435
0.006959241415449472,2.436
0.004239835140951217,2.437
0.0009049635469384575,2.438
-0.002355099034710815,2.439
-0.004923348744820879,2.44
-0.0064288919122775425,2.441
-0.006808690827051586,2.442
-0.006258197319456335,2.443
-0.00510823237748933,2.444
-0.003699176192424842,2.445
-0.0023117464492318734,2.446
-0.0011512741088639642,2.447
-0.00035128404410836984,2.448
1.885554581203701e-05,2.449
-5.644070316427177e-05,2.45
-0.0005456491720321377,2.451
-0.0013757095160037115,2.452
-0.0024343843384977797,2.453
-0.0035521755240208665,2.454
-0.004491438770393427,2.455
-0.004999945098449917,2.456
-0.004912287799096735,2.457
-0.00421652997840116,2.458
-0.0030388973607266747,2.459
-0.001568367460927816,2.46
1.5952327305480064e-05,2.461
0.001557701825659828,2.462
0.002894723058024839,2.463
0.0038656874947900722,2.464
0.004372864033916897,2.465
0.004439006821721782,2.466
0.004198594237296722,2.467
0.003832607156065785,2.468
0.0035048190023299784,2.469
0.003325766553206346,2.47
0.0033275211373558146,2.471
0.0034528472636545264,2.472
0.0035713801399821924,2.473
0.003524667098058678,2.474
0.003201210834322085,2.475
0.0025932799387239883,2.476
0.001782447491542914,2.477
0.0008876032752868458,2.478
2.9148827350834296e-05,2.479
-0.0006826298736133662,2.48
-0.0011578630018156417,2.481
-0.0013651643610463951,2.482
-0.001376732703449917,2.483
-0.0013537025908410976,2.484
-0.001448931504989734,2.485
-0.001701118192004365,2.486
-0.0020188184147722243,2.487
-0.0022540504056994823,2.488
-0.0022921260132497084,2.489
-0.0021024010916428264,2.49
-0.0017244980391540369,2.491
-0.001218955763771287,2.492
-0.0006443637609501302,2.493
-6.684928949130583e-05,2.494
0.00044716808157288485,2.495
0.00086451421035876,2.496
0.0011940846195093958,2.497
0.0014529087028442827,2.498
0.0016175254295616392,2.499
0.0015830631697908118,2.5
0.0011751542670116147,2.501
0.0002502295799322902,2.502
-0.0011883382093154605,2.503
-0.0029619502281265447,2.504
-0.004770910244029916,2.505
-0.00627679267198612,2.506
-0.007188388871531621,2.507
-0.0073235989830224705,2.508
-0.006631211188558799,2.509
-0.00518670019942566,2.51
-0.003177582772581607,2.511
-0.000879178288536348,2.512
0.001379933999577096,2.513
0.003261341613210473,2.514
0.004489557311712513,2.515
0.0049538957266616526,2.516
0.0047736132991033015,2.517
0.004258450480904703,2.518
0.003769796554884547,2.519
0.0035680058907753952,2.52
0.003734595996709331,2.521
0.004187071260582612,2.522
0.004755233529334634,2.523
0.005265514565623417,2.524
0.0055783557069665,2.525
0.0055845703783098674,2.526
0.005208125109465071,2.527
0.00441772502515571,2.528
0.0032239359303662314,2.529
0.0016756222376291346,2.53
-0.00012632158696669932,2.531
-0.0020168801169258175,2.532
-0.003777141737070726,2.533
-0.005176412420061533,2.534
-0.006045712069039012,2.535
-0.006338888841208522,2.536
-0.006132967995187068,2.537
-0.005570024415597172,2.538
-0.00478364589567116,2.539
-0.0038589749500402325,2.54
-0.0028398453409913317,2.541
-0.0017667805699780356,2.542
-0.0007144468964679472,2.543
0.000213365493563716,2.544
0.000934665464944497,2.545
0.0014305270921369418,2.546
0.0017372022703390265,2.547
0.0019155187205996016,2.548
0.002024879800562425,2.549
0.002097390724832967,2.55
0.002106098616595943,2.551
0.0019517639313916299,2.552
0.0015192182873732729,2.553
0.0007801698282439985,2.554
-0.00015934432800766973,2.555
-0.0011126571864393104,2.556
-0.001910528902273775,2.557
-0.002461916616894732,2.558
-0.0027565309822534636,2.559
-0.002832138108586245,2.56
-0.0027294934207252068,2.561
-0.0024587487134784475,2.562
-0.001997198727278745,2.563
-0.0013220174489982587,2.564
-0.00044801152661206505,2.565
0.0005653767577527954,2.566
0.0016371764074964179,2.567
0.0026919610042614745,2.568
0.0036591305911750378,2.569
0.00445079850944297,2.57
0.004958766362371399,2.571
0.0050781139000095465,2.572
0.004751401638605976,2.573
0.004016008368926989,2.574
0.002995151334578264,2.575
0.0018307808716198956,2.576
0.0006364943264318841,2.577
-0.000505344492712271,2.578
-0.0015325819580591393,2.579
-0.002389787398073496,2.58
-0.003025154204439325,2.581
-0.0034093796437305365,2.582
-0.003562158560760363,2.583
-0.0035605464187704996,2.584
-0.0035215169858138786,2.585
-0.003561119166337995,2.586
-0.003719936387743117,2.587
-0.003893750036231591,2.588
-0.003843215635718668,2.589
-0.0032938066665168554,2.59
-0.002082448033549853,2.591
-0.000267281741621368,2.592
0.0018757036928061274,2.593
0.003956055784150552,2.594
0.005601711570407363,2.595
0.006557086227661479,2.596
0.006716209367091349,2.597
0.006109781330315003,2.598
0.004884127317710753,2.599
0.0032729716167149703,2.6
0.0015464778967952174,2.601
-4.3836926785010245e-05,2.602
-0.0013006027728582625,2.603
-0.002091342063301497,2.604
-0.0023484814042008363,2.605
-0.0020897713239478185,2.606
-0.0014534225206394116,2.607
-0.0006918675423626573,2.608
-9.059763926406224e-05,2.609
0.0001450813509615272,2.61
-4.77300086137128e-05,2.611
-0.0006093751303993184,2.612
-0.0014104928826981803,2.613
-0.00228722109655863,2.614
-0.00306221752887708,2.615
-0.0035648645337449185,2.616
-0.0036486420283324402,2.617
-0.0032225621743426293,2.618
-0.0023031361056741616,2.619
-0.0010410671123717613,2.62
0.0003151138218328233,2.621
0.0014992104750627512,2.622
0.002304196086871089,2.623
0.002616479626903086,2.624
0.0024118341455659623,2.625
0.001755999339227409,2.626
0.0008170011543160915,2.627
-0.00015336604095244716,2.628
-0.0008889563033126052,2.629
-0.001204491985841297,2.63
-0.0010599208938114981,2.631
-0.0005453109356399208,2.632
0.00017891082913014953,2.633
0.0009205389867214222,2.634
0.0014808536801040836,2.635
0.0016976456915321287,2.636
0.0014932220837761748,2.637
0.0008968032058605125,2.638
2.4516926418801404e-05,2.639
-0.0009686414427205329,2.64
-0.0019216314287357366,2.641
-0.0026621934670412284,2.642
-0.0030073270894114697,2.643
-0.0028161483600595313,2.644
-0.0020531160832502914,2.645
-0.0007930569912112761,2.646
0.0008137802045895574,2.647
0.0025501174279943164,2.648
0.004124247320975356,2.649
0.005218982852979032,2.65
0.005590642902989064,2.651
0.0051349025483085255,2.652
0.0038889568853301853,2.653
0.0020152822990610886,2.654
-0.00019823468718211488,2.655
-0.00235540314553216,2.656
-0.004047084092145775,2.657
-0.005004548603250258,2.658
-0.005191383974159355,2.659
-0.004758635269390944,2.66
-0.003923149511890549,2.661
-0.002868761597323782,2.662
-0.001709781138378296,2.663
