VaMe,time
-0.001621711456312028,0.001
0.0020486850454793427,0.002
0.00521732848116717,0.003
0.0073968118551721255,0.004
0.008132788566050583,0.005
0.006979160046363977,0.006
0.003597245598810147,0.007
-0.002009456958863626,0.008
-0.009261725414541953,0.009
-0.016947480943702874,0.01
-0.023450170509322067,0.011
-0.02720601264717684,0.012
-0.02718047418852025,0.013
-0.02315299233706412,0.014
-0.015709392882389542,0.015
-0.006005586295255827,0.016
0.0045145123096334205,0.017
0.014316120154777975,0.018
0.02191581715846041,0.019
0.026089339472721823,0.02
0.026179874343643664,0.021
0.02237876055046211,0.022
0.015783721478975755,0.023
0.008123772812423349,0.024
0.0012431748539847268,0.025
-0.0034089455812531255,0.026
-0.005083508919384798,0.027
-0.003788797256195728,0.028
-0.00018734119019388117,0.029
0.004553884585862543,0.03
0.008938662823230073,0.031
0.011415387935855928,0.032
0.010794775460980004,0.033
0.006698339139470793,0.034
-0.00020926456915961695,0.035
-0.008362545393899816,0.036
-0.01576265375047842,0.037
-0.02058747833830683,0.038
-0.021712550587435066,0.039
-0.018976717665971407,0.04
-0.013152694935204117,0.041
-0.005670112969668461,0.042
0.0017960819978515895,0.043
0.00774594919601705,0.044
0.011181447267167017,0.045
0.011764142389753297,0.046
0.009778395480098352,0.047
0.00594471119380623,0.048
0.0011892615168137722,0.049
-0.003548288272532895,0.05
-0.007441457182350767,0.051
-0.009819299360242728,0.052
-0.010181264822692333,0.053
-0.008300249302108795,0.054
-0.004375943060649732,0.055
0.0009367742543227966,0.056
0.0066721974439680155,0.057
0.01176393829665068,0.058
0.015235167741955059,0.059
0.016355859149458606,0.06
0.01479434668504654,0.061
0.010757713340798742,0.062
0.005008187816317599,0.063
-0.0013456212348889167,0.064
-0.007188705404080718,0.065
-0.01166431365867883,0.066
-0.014272903427658206,0.067
-0.014859548450509498,0.068
-0.013567419021675076,0.069
-0.010787322396690384,0.07
-0.007090133010526859,0.071
-0.0031344972059796704,0.072
0.00044045083239231995,0.073
0.003127173525339751,0.074
0.004636449155034621,0.075
0.004924437235660155,0.076
0.004184730044236982,0.077
0.0028454869016571326,0.078
0.0015161462547331086,0.079
0.000809788126274357,0.08
0.00110359584216693,0.081
0.0023931915755333634,0.082
0.0043350149920452765,0.083
0.006413516447737669,0.084
0.008103869683896455,0.085
0.008996089162195431,0.086
0.008889978986127896,0.087
0.007827734923961485,0.088
0.006051447435001576,0.089
0.003912485841123199,0.09
0.0017617814585225693,0.091
-0.0001345629370743273,0.092
-0.0016100421850750509,0.093
-0.0025648228245931043,0.094
-0.002956380860408538,0.095
-0.0028450086552322795,0.096
-0.0024528152010809983,0.097
-0.0021580570944257364,0.098
-0.0023758474614047668,0.099
-0.00337560864340152,0.1
-0.0051629626781845486,0.101
-0.0074874654170446545,0.102
-0.00991984280258434,0.103
-0.011944665604814718,0.104
-0.013067449485206767,0.105
-0.0129205428740545,0.106
-0.011337698413958241,0.107
-0.008390781573305106,0.108
-0.004380961221226026,0.109
0.0002074487072314177,0.11
0.004760727866720327,0.111
0.008617666328688439,0.112
0.011211488920932482,0.113
0.012230612044895306,0.114
0.011710401858112032,0.115
0.010004963871622115,0.116
0.0076779555852961095,0.117
0.005370333327449754,0.118
0.00365455314416694,0.119
0.0028930490586171385,0.12
0.003149753487317221,0.121
0.00418307450966618,0.122
0.005507524184889338,0.123
0.006500464741897229,0.124
0.006554043332069083,0.125
0.00524304251466201,0.126
0.0024150269322870776,0.127
-0.001816216908505616,0.128
-0.007083146517045381,0.129
-0.012750771211176697,0.13
-0.01793791198889968,0.131
-0.021636910703146595,0.132
-0.02292770787840687,0.133
-0.021193627773220293,0.134
-0.016270848478614965,0.135
-0.00855329246571226,0.136
0.0009492866495593166,0.137
0.010677723650529583,0.138
0.018789528853930797,0.139
0.023620521712191603,0.14
0.024217460060813604,0.141
0.020717872833407484,0.142
0.014343251258240196,0.143
0.006924818759212097,0.144
0.00019738497993718166,0.145
-0.004729368823512094,0.146
-0.007513357707930302,0.147
-0.008409792580904409,0.148
-0.007953633651777663,0.149
-0.006652055032812028,0.15
-0.004808232510018946,0.151
-0.0025311352262120763,0.152
0.00011280619712443027,0.153
0.0029493751595203654,0.154
0.005670939726991959,0.155
0.007927204018204195,0.156
0.009420065597955248,0.157
0.009921538518491735,0.158
0.009260951655012685,0.159
0.007341722548061758,0.16
0.004176591780426447,0.161
-6.031252418789401e-05,0.162
-0.004975988568206175,0.163
-0.009956337865262647,0.164
-0.014258032917064333,0.165
-0.01718647799936617,0.166
-0.018297539307987432,0.167
-0.017501175518729057,0.168
-0.015016126729319325,0.169
-0.011270418145588315,0.17
-0.0068181236131880756,0.171
-0.0022319523814486497,0.172
0.0020304683794921284,0.173
0.005692106906172331,0.174
0.008588508569996304,0.175
0.010540915568743396,0.176
0.011324834210426366,0.177
0.010781168810268842,0.178
0.008964702724156969,0.179
0.00620660028499455,0.18
0.0030579332773639804,0.181
0.00016299650915038453,0.182
-0.0018993836993336703,0.183
-0.0027948464603263163,0.184
-0.0025855513085222648,0.185
-0.0017551770196937596,0.186
-0.0009904346804147201,0.187
-0.000753367816231386,0.188
-0.0009481999822083718,0.189
-0.0009867067964276744,0.19
-0.00019271047849481302,0.191
0.0017779428715550447,0.192
0.004721536492424855,0.193
0.007915398731052707,0.194
0.010369812697623772,0.195
0.011217150416933034,0.196
0.01007277078244589,0.197
0.007183451030464633,0.198
0.0032886249758443263,0.199
-0.0006858797692416112,0.2
-0.003918036343216833,0.201
-0.0058871270328740375,0.202
-0.006480750833701315,0.203
-0.005985412034122153,0.204
-0.004930886756156515,0.205
-0.0038554826955221515,0.206
-0.003117587692529571,0.207
-0.002823694932412999,0.208
-0.0028851600358804925,0.209
-0.003167560987797764,0.21
-0.0036299165594411323,0.211
-0.004358754928431446,0.212
-0.005474796759453364,0.213
-0.0069433414258050705,0.214
-0.008411038077254678,0.215
-0.00924548599369998,0.216
-0.008790307959857425,0.217
-0.006662909578494544,0.218
-0.002941845481926424,0.219
0.0018261714105675664,0.22
0.006791144965178861,0.221
0.011028891548190464,0.222
0.013748653087881082,0.223
0.014482457639005146,0.224
0.013223392125534701,0.225
0.010414472516884515,0.226
0.006769048019387909,0.227
0.003047567563505927,0.228
-9.424190012459217e-05,0.229
-0.0021921049293749774,0.23
-0.0030301979870342483,0.231
-0.002666676811567113,0.232
-0.001419853494873159,0.233
0.00017968786057062487,0.234
0.0014762430970875165,0.235
0.0018430240158131214,0.236
0.0008767283902154083,0.237
-0.001477203854650566,0.238
-0.004932129269508774,0.239
-0.008952429435687274,0.24
-0.012848339351243613,0.241
-0.015822860806459386,0.242
-0.017008608416405318,0.243
-0.015609287205100972,0.244
-0.011184383699369268,0.245
-0.003942962692978371,0.246
0.005141000847647692,0.247
0.014472630990645876,0.248
0.02220421956390982,0.249
0.026708918354836502,0.25
0.027005211916358643,0.251
0.023032562975580196,0.252
0.015704194010824925,0.253
0.006658952581176927,0.254
-0.002227522398446355,0.255
-0.009354831928951783,0.256
-0.013746465179778039,0.257
-0.015174374610804443,0.258
-0.014080910556554731,0.259
-0.011353433773710779,0.26
-0.008028354559340948,0.261
-0.0050152509523861775,0.262
-0.0029180643728324647,0.263
-0.001980291344278973,0.264
-0.0021084990109631004,0.265
-0.0029264976295418476,0.266
-0.003881169290297888,0.267
-0.004412779547321426,0.268
-0.004143473994719095,0.269
-0.003010862148083105,0.27
-0.001261395579797285,0.271
0.0007087313281340865,0.272
0.0025460434230458887,0.273
0.004042790657377741,0.274
0.005133206159099348,0.275
0.00583288312953619,0.276
0.006183944386164981,0.277
0.006243466216276077,0.278
0.006098834251717184,0.279
0.005865336632264417,0.28
0.005645535117129449,0.281
0.00548141630740409,0.282
0.005357312823746417,0.283
0.005271995734078042,0.284
0.0053159950413315515,0.285
0.005662974278870501,0.286
0.006438994517924848,0.287
0.007489364135625022,0.288
0.008149222885924368,0.289
0.007255482670812196,0.29
0.0035768738208476064,0.291
-0.00351488532370032,0.292
-0.013558047515303118,0.293
-0.024949082418499458,0.294
-0.035302697778063066,0.295
-0.04209145324888307,0.296
-0.04334300739572925,0.297
-0.03813915599283043,0.298
-0.02679969218739498,0.299
-0.01081961346048905,0.3
0.007335767857594964,0.301
0.024590411012089926,0.302
0.03784953928413434,0.303
0.04479284459839131,0.304
0.04458702161892881,0.305
0.03809616488332513,0.306
0.027432056098865232,0.307
0.015148791639215752,0.308
0.0035537735179004483,0.309
-0.005644188641816221,0.31
-0.011441208043138286,0.311
-0.01354140514683496,0.312
-0.012275679265959148,0.313
-0.008420562809174435,0.314
-0.0029834076234442463,0.315
0.002953095044343941,0.316
0.008291704866291645,0.317
0.011932411988498858,0.318
0.012844582422523605,0.319
0.01030579308544549,0.32
0.004276317658466536,0.321
-0.004354236089914419,0.322
-0.013905014761883543,0.323
-0.022377278049793888,0.324
-0.028015882510358837,0.325
-0.02973089292603226,0.326
-0.027265092076112853,0.327
-0.021151842397625773,0.328
-0.012554528415450685,0.329
-0.003018767841712953,0.33
0.005835604997554414,0.331
0.012628619272603194,0.332
0.016473791150437084,0.333
0.017109664989518717,0.334
0.01490510027320571,0.335
0.010768507586599278,0.336
0.005944550438206944,0.337
0.0016923666911096964,0.338
-0.0010420548004593853,0.339
-0.0018185640922133502,0.34
-0.000741885008964278,0.341
0.0016038345677188606,0.342
0.004314042866864829,0.343
0.006409738801184708,0.344
0.007115800647438583,0.345
0.006080515180012975,0.346
0.0034373280331986356,0.347
-0.0003086115736647056,0.348
-0.004430797725725942,0.349
-0.008046539573096319,0.35
-0.01020360919877961,0.351
-0.01013850827673376,0.352
-0.007596545174616376,0.353
-0.002970478641333231,0.354
0.0028209421273147255,0.355
0.008621177741378085,0.356
0.01335081274016951,0.357
0.016214646845587023,0.358
0.016742483421678223,0.359
0.014743433845934661,0.36
0.010304304436915828,0.361
0.0038654129125922317,0.362
-0.0037205428221367474,0.363
-0.011270974267210031,0.364
-0.017515672296490755,0.365
-0.02138695781132314,0.366
-0.022230815914417622,0.367
-0.019900336795405378,0.368
-0.014769132579960804,0.369
-0.007687501619136015,0.37
0.00014043115942717922,0.371
0.0073750418316962186,0.372
0.012822387384947773,0.373
0.01569943532736782,0.374
0.01580622664908631,0.375
0.013539477907617562,0.376
0.009726564778906113,0.377
0.005347822714059892,0.378
0.0012476101152184896,0.379
-0.002072609480688589,0.38
-0.004520771313265816,0.381
-0.006338592517679805,0.382
-0.007914600189064367,0.383
-0.00954326660932385,0.384
-0.011208852939428577,0.385
-0.012495984976818043,0.386
-0.012699345087021776,0.387
-0.011103069486460422,0.388
-0.007313669229206717,0.389
-0.0014987253867748912,0.39
0.005572130844685771,0.391
0.01268489244584733,0.392
0.01842470606479576,0.393
0.021409199318819738,0.394
0.02056663720204989,0.395
0.015514290317515585,0.396
0.006903362472174298,0.397
-0.0035359135339019404,0.398
-0.013405044438175867,0.399
-0.020344424650449718,0.4
-0.022681881022144235,0.401
-0.01979440038757382,0.402
-0.012182853389856807,0.403
-0.0013480327469133915,0.404
0.010462110438274252,0.405
0.020638727018879414,0.406
0.02680824921578354,0.407
0.027572104456804396,0.408
0.023018072775887723,0.409
0.014630587022902807,0.41
0.004642590907819379,0.411
-0.004774515536894712,0.412
-0.012088801709453707,0.413
-0.016566551594523037,0.414
-0.018070837135070326,0.415
-0.016777449185042582,0.416
-0.01307644993011928,0.417
-0.007659338625062199,0.418
-0.0015877370072524767,0.419
0.0038339409019876223,0.42
0.007361425375668559,0.421
0.00812000703875446,0.422
0.0058240133524197065,0.423
0.0008860204735071349,0.424
-0.005613717007134704,0.425
-0.012106464011879089,0.426
-0.016864112436503723,0.427
-0.018447369997019975,0.428
-0.01613093145699777,0.429
-0.010110822445643817,0.43
-0.0014279375086877764,0.431
0.008292158275062337,0.432
0.017162808157691858,0.433
0.023368182126513468,0.434
0.025516940780290737,0.435
0.02301145054901192,0.436
0.01630217772593668,0.437
0.0068599140028294085,0.438
-0.003214724098797583,0.439
-0.011843262982606026,0.44
-0.01754911559996924,0.441
-0.01966666122538587,0.442
-0.01823120456977945,0.443
-0.013802441043018856,0.444
-0.0073336662987867444,0.445
-4.278645179161077e-05,0.446
0.006758603024220113,0.447
0.011891645630679383,0.448
0.014553492293910807,0.449
0.014474869842999375,0.45
0.011928972790576562,0.451
0.00762503435681772,0.452
0.0025444844507592403,0.453
-0.0022580213664720604,0.454
-0.0058873094518402036,0.455
-0.007837000942545374,0.456
-0.008101804368181595,0.457
-0.007072441477846536,0.458
-0.005280084956581957,0.459
-0.0031903866345155242,0.46
-0.001153273937474606,0.461
0.0005791182131153933,0.462
0.0018666588693831369,0.463
0.002693966246570964,0.464
0.0031219141731979277,0.465
0.003210143272414523,0.466
0.0029945068907533128,0.467
0.0025520433219531568,0.468
0.0020689616461641996,0.469
0.0017885456203326027,0.47
0.0018540336449145854,0.471
0.0021972472021111107,0.472
0.002575104256039171,0.473
0.0027248745376894845,0.474
0.0025158268090965984,0.475
0.0019583782206500336,0.476
0.001065067225954807,0.477
-0.00025105848091374597,0.478
-0.002067956877054615,0.479
-0.004216701358129814,0.48
-0.006183979470267957,0.481
-0.007304834572685832,0.482
-0.0071249320937563695,0.483
-0.005705570746323537,0.484
-0.0037268389951700506,0.485
-0.0023272206693858355,0.486
-0.0026752789226717915,0.487
-0.005399343885608623,0.488
-0.010147888890763308,0.489
-0.015527370497863607,0.49
-0.019472899391696746,0.491
-0.019927732455577784,0.492
-0.015572553324936707,0.493
-0.006310714422028182,0.494
0.006637078953852797,0.495
0.02099291677689079,0.496
0.03390405870700094,0.497
0.04252327508949746,0.498
0.04467535123917144,0.499
0.03958743034403277,0.5
0.028374125942614948,0.501
0.013818534848350151,0.502
-0.0006014033526249177,0.503
-0.011938681913762796,0.504
-0.018655806207625508,0.505
-0.02083070520694317,0.506
-0.019728506603102786,0.507
-0.0170558082778976,0.508
-0.014250081418187888,0.509
-0.012056150284396704,0.51
-0.010514539629600233,0.511
-0.009266803029354904,0.512
-0.007917042055693014,0.513
-0.006270000598609343,0.514
-0.004413946510683643,0.515
-0.0026657684931800244,0.516
-0.0014111465573251518,0.517
-0.0008915232732767606,0.518
-0.0010465833410665925,0.519
-0.0015203106525885082,0.52
-0.0018109160255702513,0.521
-0.00145548736181984,0.522
-0.0001548211060207331,0.523
0.0021842663146186647,0.524
0.0054419491048329815,0.525
0.009268911817867815,0.526
0.01308628966884109,0.527
0.01617880788729025,0.528
0.017891046154576977,0.529
0.01781919376203061,0.53
0.015880566502557845,0.531
0.012258313313237451,0.532
0.007316875009233491,0.533
0.0015510593865681944,0.534
-0.004452954551477283,0.535
-0.010067408988252174,0.536
-0.014672800020295735,0.537
-0.01773746161131092,0.538
-0.018964800415355205,0.539
-0.018439932047697182,0.54
-0.016644859087429093,0.541
-0.014292111321925883,0.542
-0.012051544889733989,0.543
-0.010306401633845219,0.544
-0.009036043820220295,0.545
-0.0078070634604401005,0.546
-0.005834317355403739,0.547
-0.002195765432830623,0.548
0.003727859118877031,0.549
0.011765344437996868,0.55
0.020757621522229562,0.551
0.02880900054141669,0.552
0.03387425702430871,0.553
0.034482384408267897,0.554
0.030333498219837256,0.555
0.022454752358488386,0.556
0.012784645939090003,0.557
0.0033631701659626793,0.558
-0.004467610186237463,0.559
-0.01042040920416704,0.56
-0.015029815778336017,0.561
-0.01904402125198529,0.562
-0.02280478062074013,0.563
-0.025948005065386293,0.564
-0.027563345681416135,0.565
-0.026698147947456053,0.566
-0.022930933167007856,0.567
-0.016689699083014934,0.568
-0.009119564063874944,0.569
-0.0015900826342959376,0.57
0.004828129985307674,0.571
0.00961966400748486,0.572
0.012762452787218045,0.573
0.014485664668339482,0.574
0.01503001977159632,0.575
0.014519603486591953,0.576
0.012963004983912986,0.577
0.010365609245538268,0.578
0.00690117281759692,0.579
0.0030493824220597762,0.58
-0.0004263145018239859,0.581
-0.0027104358633130996,0.582
-0.003247318230126907,0.583
-0.0019528015853312608,0.584
0.0007261780725384408,0.585
0.003879972588134753,0.586
0.006360460387078424,0.587
0.007135377304981465,0.588
0.005622650689288034,0.589
0.0019022838819331555,0.59
-0.0032291034148072086,0.591
-0.008419269488572316,0.592
-0.01212079961383229,0.593
-0.013024901592452204,0.594
-0.010468703016809308,0.595
-0.0047303473516794245,0.596
0.002957738805554385,0.597
0.01075919179450743,0.598
0.01675123904829109,0.599
0.019362101019727154,0.6
0.017689173351716596,0.601
0.011735004617922646,0.602
0.002496096118762182,0.603
-0.008214869046093365,0.604
-0.01823332022084272,0.605
-0.02562529270766658,0.606
-0.029140358459146965,0.607
-0.028390869774830685,0.608
-0.023767619047327434,0.609
-0.016214984630282776,0.61
-0.007021524179880303,0.611
0.0023373589642202677,0.612
0.010405994188908791,0.613
0.01603771394089847,0.614
0.018650954894358595,0.615
0.018329727416909972,0.616
0.015753669194822684,0.617
0.012020823731063095,0.618
0.008406192523302053,0.619
0.006038763200209565,0.62
0.005501195848290779,0.621
0.006525344627291104,0.622
0.008051392452781714,0.623
0.00870213808702277,0.624
0.007422681783164561,0.625
0.003939614041253966,0.626
-0.0011647629627150643,0.627
-0.0066916528678664785,0.628
-0.011174162054094697,0.629
-0.013265457381065758,0.63
-0.01219726215385332,0.631
-0.008184837274853666,0.632
-0.0024893910231978365,0.633
0.003027970092872451,0.634
0.00668676180244855,0.635
0.007661588064997822,0.636
0.006156229671095454,0.637
0.0030674277488320963,0.638
-0.0005281846314472466,0.639
-0.0037721930543589237,0.64
-0.006222627069867878,0.641
-0.007877767641519018,0.642
-0.009056087273355702,0.643
-0.010156732009697213,0.644
-0.011413390816327425,0.645
-0.01274349605217154,0.646
-0.013696128870742652,0.647
-0.013554876767153981,0.648
-0.011634524321909223,0.649
-0.007636331549320767,0.65
-0.0018492294781841726,0.651
0.004915636882625207,0.652
0.011595436810152208,0.653
0.017188353527459208,0.654
0.020947538501538264,0.655
0.02243579393675881,0.656
0.021588095734461927,0.657
0.018819124038828378,0.658
0.014981927474964834,0.659
0.01103998891267036,0.66
0.007593686207782349,0.661
0.00459043560124932,0.662
0.0014668989209638279,0.663
-0.00234446324321277,0.664
-0.0068975229583665264,0.665
-0.01157488464365997,0.666
-0.015383884969042427,0.667
-0.017476991614477425,0.668
-0.01757798975067877,0.669
-0.01605427269867927,0.67
-0.01358019617832832,0.671
-0.010673979571922565,0.672
-0.007465645149483116,0.673
-0.0038034630928373272,0.674
0.00043597380309958356,0.675
0.005058796550973693,0.676
0.009458772157013226,0.677
0.012762950220523112,0.678
0.014160209263096326,0.679
0.0132660813890346,0.68
0.010322275368039919,0.681
0.00612624180430317,0.682
0.001759810838330441,0.683
-0.0017308444884530287,0.684
-0.003579435700712289,0.685
-0.0034589884001155124,0.686
-0.001594365577743126,0.687
0.0012299600058744043,0.688
0.0038574705361052964,0.689
0.0051191760462513565,0.69
0.00419904256236196,0.691
0.0008349822816258686,0.692
-0.004659793085582829,0.693
-0.011461890122276656,0.694
-0.018310570817020408,0.695
-0.023620818088832426,0.696
-0.025769596855434146,0.697
-0.023557905073340355,0.698
-0.016654898069194627,0.699
-0.005850267934826609,0.7
0.006966659173253339,0.701
0.0192086793941066,0.702
0.028427153976556957,0.703
0.0332410187364828,0.704
0.03374167880996199,0.705
0.031126578469443892,0.706
0.026840201137095107,0.707
0.02174955793332723,0.708
0.015891262393535784,0.709
0.008905507069707932,0.71
0.0006854329531366016,0.711
-0.008284712644447037,0.712
-0.017007116635987144,0.713
-0.024252105732157744,0.714
-0.02887387296662254,0.715
-0.030148345695073287,0.716
-0.028073229017737733,0.717
-0.023435236292360478,0.718
-0.017533519944946247,0.719
-0.011700245198363846,0.72
-0.0068908150309230295,0.721
-0.0035206120115589983,0.722
-0.0015586183771619717,0.723
-0.0007398391132683383,0.724
-0.0006873034524961378,0.725
-0.0008753554215399105,0.726
-0.0005945768125786939,0.727
0.0008937775671786057,0.728
0.004032020785195375,0.729
0.008671362876182614,0.73
0.013988778770149514,0.731
0.01865831898276121,0.732
0.02122314865835081,0.733
0.020574471051513808,0.734
0.016397172832427146,0.735
0.00942425735425375,0.736
0.001379671522125114,0.737
-0.005441741924775082,0.738
-0.008853045164480697,0.739
-0.0074593104942894005,0.74
-0.001125017254591212,0.741
0.008859454768805893,0.742
0.019920167688759854,0.743
0.02873326803665336,0.744
0.0322267659770565,0.745
0.028698365020438706,0.746
0.01838097863453981,0.747
0.0032520490414342344,0.748
-0.013568060010069279,0.749
-0.028570093142572868,0.75
-0.03869419063695043,0.751
-0.04210583857573927,0.752
-0.03870373395088162,0.753
-0.03017046991339766,0.754
-0.019440487704918775,0.755
-0.009686474918679798,0.756
-0.003230299100562608,0.757
-0.0008864228193278603,0.758
-0.00199437101186854,0.759
-0.004962659337737577,0.76
-0.007922891369201468,0.761
-0.009258378243402688,0.762
-0.007984238813461582,0.763
-0.003940948750366024,0.764
0.0022372003214830285,0.765
0.009329084660915487,0.766
0.015900596478964454,0.767
0.020823590206958762,0.768
0.023680415200438204,0.769
0.0247469633555613,0.77
0.024583833292563806,0.771
0.023561131916403213,0.772
0.021627723388825848,0.773
0.018435015086968796,0.774
0.013698221783903546,0.775
0.007539627989736426,0.776
0.0005653914608729226,0.777
-0.006383688873936591,0.778
-0.012578459269655859,0.779
-0.01757123535362168,0.78
-0.021159846779261592,0.781
-0.023258796846471183,0.782
-0.023747694374312196,0.783
-0.022384620614399116,0.784
-0.01891681479107531,0.785
-0.013356903277404726,0.786
-0.0061856725656529,0.787
0.001698561496063803,0.788
0.009240245333224144,0.789
0.015481079593069843,0.79
0.019638624204595456,0.791
0.021099071021323315,0.792
0.019506231087051126,0.793
0.014935406078507378,0.794
0.00803132452903402,0.795
2.4081052864512296e-05,0.796
-0.007438072238820509,0.797
-0.01262841128041857,0.798
-0.014162250908659963,0.799
-0.011385975740598554,0.8
-0.004639545105275269,0.801
0.0046616172834677005,0.802
0.014210263510417124,0.803
0.02135442274449691,0.804
0.0238860879772976,0.805
0.020747070811154955,0.806
0.012409690421325465,0.807
0.0007850258723230362,0.808
-0.01140863162777744,0.809
-0.02158383450016785,0.81
-0.02809176371535307,0.811
-0.030604868830511743,0.812
-0.029969092593061544,0.813
-0.027570815887468725,0.814
-0.024523550525477267,0.815
-0.02114818709588922,0.816
-0.017013301582948878,0.817
-0.011402549604485522,0.818
-0.003854152205973011,0.819
0.005507708293426661,0.82
0.01590770918302858,0.821
0.02604346113870822,0.822
0.034317550360627905,0.823
0.03913337930595143,0.824
0.03924503384113628,0.825
0.03416947360018666,0.826
0.024568143421608908,0.827
0.012319777693802377,0.828
8.825591139125305e-05,0.829
-0.009473227674645302,0.83
-0.014558463573783853,0.831
-0.014799774544156773,0.832
-0.011379777073882174,0.833
-0.0065165982281924755,0.834
-0.002518933817879067,0.835
-0.0009682742827108878,0.836
-0.002402634725705714,0.837
-0.0063729930066139945,0.838
-0.0116559504891043,0.839
-0.016623322559825255,0.84
-0.01974283444258491,0.841
-0.020003343590440276,0.842
-0.017044380620748777,0.843
-0.010988206426166033,0.844
-0.002245301179237486,0.845
0.008436893540072042,0.846
0.019723081183551167,0.847
0.029587360079463533,0.848
0.035743113921142135,0.849
0.03656575840039602,0.85
0.03184847849593102,0.851
0.022776758836175158,0.852
0.011217853199308105,0.853
-0.0011317634032923284,0.854
-0.01316563725311824,0.855
-0.024105001398679174,0.856
-0.03295818957197641,0.857
-0.0383392268415026,0.858
-0.038902169136754546,0.859
-0.034119367631215196,0.86
-0.024832893493074083,0.861
-0.013188970547347576,0.862
-0.0019504665358652262,0.863
0.0065211483679584814,0.864
0.011107072726037493,0.865
0.012137518265604387,0.866
0.01090790321403575,0.867
0.008850137702564395,0.868
0.006824589542992984,0.869
0.004941260577426498,0.87
0.003003903157889492,0.871
0.0011220654351804576,0.872
-0.00010470503793500393,0.873
8.507256526291054e-05,0.874
0.0021394214126256744,0.875
0.005886652412221205,0.876
0.01052407932111874,0.877
0.014882090318626293,0.878
0.017828681632707698,0.879
0.018626376495259236,0.88
0.017062280227909184,0.881
0.013350800266528932,0.882
0.007979298725305412,0.883
0.0016151320469109782,0.884
-0.004912829795822478,0.885
-0.01059076260812807,0.886
-0.01426139095856282,0.887
-0.014883069267628318,0.888
-0.01194081515354263,0.889
-0.005751420242412495,0.89
0.002456190123222371,0.891
0.010707070450505599,0.892
0.016718721920707887,0.893
0.01854648233861527,0.894
0.015225028289264938,0.895
0.00710976786495552,0.896
-0.004210689311196305,0.897
-0.016333096214349526,0.898
-0.026655911083012202,0.899
-0.03302297606658815,0.9
-0.03419979881020734,0.901
-0.03011008771328359,0.902
-0.021834637433302197,0.903
-0.0113432514296138,0.904
-0.0009671383193562797,0.905
0.007278792215758409,0.906
0.012299284738993076,0.907
0.01414425082016545,0.908
0.013698513690856113,0.909
0.012041298516922774,0.91
0.009928222553910968,0.911
0.007716598270503113,0.912
0.005626080859193386,0.913
0.0039343112371737175,0.914
0.0029155344215300717,0.915
0.0026930591166727446,0.916
0.003192365847867769,0.917
0.004208253263510211,0.918
0.00550274590141667,0.919
0.006878049145819911,0.92
0.008201858521863665,0.921
0.009299856388909037,0.922
0.009780329209473174,0.923
0.009083946721372721,0.924
0.006807489313771611,0.925
0.0029753305708349865,0.926
-0.0020027967622694926,0.927
-0.007603577351240186,0.928
-0.013392468582552388,0.929
-0.018968779912815887,0.93
-0.02374239661264435,0.931
-0.02681325568098049,0.932
-0.027151016633122603,0.933
-0.023975876433932678,0.934
-0.017091332919957233,0.935
-0.007024127592971398,0.936
0.005067169589497459,0.937
0.01765740108906326,0.938
0.029134616006959105,0.939
0.03793786296081238,0.94
0.04254182241408451,0.941
0.04153129409137986,0.942
0.034070331516509254,0.943
0.020612869862236354,0.944
0.003241298094719008,0.945
-0.014706793187847678,0.946
-0.029516986724272304,0.947
-0.03812238541932889,0.948
-0.038967645510970345,0.949
-0.03245608239142352,0.95
-0.02081924062816324,0.951
-0.007422267031693116,0.952
0.004280450377599762,0.953
0.011804030338129858,0.954
0.014335129793064316,0.955
0.012732182620729145,0.956
0.008779909909863081,0.957
0.00419611243158687,0.958
1.7206118455469504e-05,0.959
-0.0034205393613085952,0.96
-0.006101898601243392,0.961
-0.007964889886803304,0.962
-0.00885665795632551,0.963
-0.008704856301595837,0.964
-0.007545293082588305,0.965
-0.005337438871227154,0.966
-0.0018533927588883187,0.967
0.0031880643907847383,0.968
0.009897903052021617,0.969
0.01808598471953812,0.97
0.027133254849123396,0.971
0.03574135157056429,0.972
0.041737992676668924,0.973
0.04233270366013773,0.974
0.03507792359767307,0.975
0.019192940817558454,0.976
-0.0036094043126789254,0.977
-0.029331666332763903,0.978
-0.05277584780629317,0.979
-0.06900579874904475,0.98
-0.07464129853880988,0.981
-0.06862520519608084,0.982
-0.05236722541756189,0.983
-0.02926696830913764,0.984
-0.0037792085002583214,0.985
0.01966536073903546,0.986
0.03760366062412279,0.987
0.04813359131170252,0.988
0.05101490896287233,0.989
0.0473154331442946,0.99
0.038862423413976624,0.991
0.027735706994322498,0.992
0.015861244235965972,0.993
0.004716969522762972,0.994
-0.004788383673211366,0.995
-0.01219932112563062,0.996
-0.01727991608266965,0.997
-0.019879066701295717,0.998
-0.01993174043111746,0.999
-0.01753044579860344,1.0
-0.013001428153026535,1.001
-0.00691920096131743,1.002
-9.53583288104537e-05,1.003
0.006356666053373258,1.004
0.010975687651695274,1.005
0.012245824865630271,1.006
0.00928712975325639,1.007
0.0024763587424899485,1.008
-0.006469526367412572,1.009
-0.014961549215013081,1.01
-0.020331174589294874,1.011
-0.020704703811210676,1.012
-0.01567016137874292,1.013
-0.006417491218340319,1.014
0.004758553043125481,1.015
0.015260618250663403,1.016
0.02286372559268508,1.017
0.026181725838916377,1.018
0.02494663627507847,1.019
0.019965542797739634,1.02
0.012725153820323947,1.021
0.004859016279746036,1.022
-0.002283041803793767,1.023
-0.007876127350673981,1.024
-0.01170135179089049,1.025
-0.014079472352774363,1.026
-0.015605152883473822,1.027
-0.01670902241431833,1.028
-0.017280514665465107,1.029
-0.016617924308910736,1.03
-0.013755433635361905,1.031
-0.008012506871760257,1.032
0.0004813753219846988,1.033
0.010552437976038337,1.034
0.020185046302595554,1.035
0.027101582462160885,1.036
0.029531296818871886,1.037
0.026899812748711675,1.038
0.020095434298002045,1.039
0.011097348202002885,1.04
0.002104115422413179,1.041
-0.0053985722135506346,1.042
-0.011110384848062357,1.043
-0.015627133386337436,1.044
-0.019610511860133677,1.045
-0.02308181976835482,1.046
-0.025316333919520838,1.047
-0.02522662377954438,1.048
-0.02188283028817305,1.049
-0.014976633858583723,1.05
-0.005204383243074976,1.051
0.005519234682422477,1.052
0.01432497039459198,1.053
0.018366005440397595,1.054
0.016162309292694552,1.055
0.008422245202771706,1.056
-0.002271549373990397,1.057
-0.012682485105974356,1.058
-0.020301540014613054,1.059
-0.024152612274766606,1.06
-0.024646623798150854,1.061
-0.02268838244553982,1.062
-0.018713063117875427,1.063
-0.012269583264873282,1.064
-0.0022124153945127264,1.065
0.01277043172699433,1.066
0.03344098244153727,1.067
0.059153901921049176,1.068
0.08699144479621901,1.069
0.11122124352619939,1.07
0.12374247690053498,1.071
0.11633338394445135,1.072
0.08447693303359954,1.073
0.030571729448463546,1.074
-0.03578037974422829,1.075
-0.10046884076805518,1.076
-0.14912072930387302,1.077
-0.17139733927424333,1.078
-0.16388796270810635,1.079
-0.13062123165265252,1.08
-0.08123441791889398,1.081
-0.0277204098317786,1.082
0.019004908853547452,1.083
0.05158946201725594,1.084
0.06716312186513267,1.085
0.06689572341417695,1.086
0.0547892161081647,1.087
0.03616693238045468,1.088
0.016290937984364567,1.089
-0.0005513807443437637,1.09
-0.011428784605535062,1.091
-0.014789125611495252,1.092
-0.01036115160349551,1.093
0.0009756500569040007,1.094
0.017351138586044142,1.095
0.036026827699179094,1.096
0.05349709160231168,1.097
0.06574295384555864,1.098
0.06887379082223266,1.099
0.06029260958902833,1.1
0.04000449414446278,1.101
0.011203378971540532,1.102
-0.020399139776658068,1.103
-0.048260670009319204,1.104
-0.06696595627397085,1.105
-0.07365795546741695,1.106
-0.06851375009332196,1.107
-0.05429448467616155,1.108
-0.03525701737993966,1.109
-0.015830303430706346,1.11
0.0005274304118695202,1.111
0.011945512569103854,1.112
0.018120543663036316,1.113
0.019839025187958027,1.114
0.01834013856892636,1.115
0.014824152300207664,1.116
0.010261475827116954,1.117
0.005373268208673112,1.118
0.0006311460541040252,1.119
-0.003664575712069977,1.12
-0.007200537721556166,1.121
-0.009557516062550727,1.122
-0.010344952262769224,1.123
-0.009407410110865601,1.124
-0.006891402821814669,1.125
-0.0031663126026669295,1.126
0.0012933379577530024,1.127
0.005999177003508756,1.128
0.010496798222183083,1.129
0.014396740944603489,1.13
0.017416889467554653,1.131
0.01943219985135694,1.132
0.02052814458259666,1.133
0.020969976897176328,1.134
0.020922451829682075,1.135
0.020021440334882463,1.136
0.017267040156607096,1.137
0.011534029583716176,1.138
0.0023965474847739464,1.139
-0.009302120700534792,1.14
-0.021467971127389806,1.141
-0.03134875602951242,1.142
-0.03640439810306781,1.143
-0.035093278420930886,1.144
-0.02738254737264686,1.145
-0.014912725116148327,1.146
-0.000771740214785066,1.147
0.011202126345473346,1.148
0.01764699884134565,1.149
0.017048951164059346,1.15
0.010392946370484308,1.151
0.0006106815522332128,1.152
-0.00878264217980685,1.153
-0.015107428029091471,1.154
-0.017348660559824043,1.155
-0.016070045477576976,1.156
-0.012608896505397493,1.157
-0.008096085237069678,1.158
-0.0028151514032535756,1.159
0.003796119822276591,1.16
0.012471789762615962,1.161
0.02308891484192599,1.162
0.03389283291223943,1.163
0.04160906470855887,1.164
0.042699150599785435,1.165
0.03521374486454452,1.166
0.020022379627490455,1.167
0.0005774962820539495,1.168
-0.018482784742690744,1.169
-0.03294060016292928,1.17
-0.04009344246448193,1.171
-0.03921119443780699,1.172
-0.03154841756729106,1.173
-0.01991224438864801,1.174
-0.007693773595568722,1.175
0.0023037091665472466,1.176
0.00858477467963377,1.177
0.01093996892416568,1.178
0.01000530240146688,1.179
0.006851863986176406,1.18
0.0027869339097698915,1.181
-0.000735517316400669,1.182
-0.002343619331548391,1.183
-0.0011906852212260368,1.184
0.002624797844938699,1.185
0.007960021919272106,1.186
0.012918564496245493,1.187
0.015424179816174863,1.188
0.013978461889456803,1.189
0.008345584477495425,1.19
-0.0002588097817905949,1.191
-0.009656082414123243,1.192
-0.017622701299684556,1.193
-0.02272379293800757,1.194
-0.024664768380985108,1.195
-0.024100705678159716,1.196
-0.022012653711797926,1.197
-0.018921037112647737,1.198
-0.014452155794503574,1.199
-0.007656677295783909,1.2
0.002131288688542734,1.201
0.014583710505946092,1.202
0.02826895217292483,1.203
0.04096805681847962,1.204
0.05001285588904046,1.205
0.05263865284655626,1.206
0.04677140824776476,1.207
0.03234664325143111,1.208
0.01233476183563487,1.209
-0.007579244163818567,1.21
-0.020821035168474302,1.211
-0.022577293118862998,1.212
-0.012231841798532114,1.213
0.005717955656327134,1.214
0.02326662105625971,1.215
0.032469394721662055,1.216
0.028724044889058616,1.217
0.012006212995965783,1.218
-0.013786143927809509,1.219
-0.04248447618309869,1.22
-0.06760622559523909,1.221
-0.08404349286675641,1.222
-0.08907115650463779,1.223
-0.08253020674489027,1.224
-0.06634055616513196,1.225
-0.04368615700440347,1.226
-0.01822425126423964,1.227
0.006492061164925429,1.228
0.027404544564882,1.229
0.04229230104824638,1.23
0.05010565532071542,1.231
0.051093972067571845,1.232
0.046600613557456524,1.233
0.038680688920432006,1.234
0.029697894546244236,1.235
0.02190353122257728,1.236
0.016969577492888275,1.237
0.01553028086460284,1.238
0.01692712154145049,1.239
0.01942946817467827,1.24
0.020982655938448908,1.241
0.020091447055044082,1.242
0.01629170814469885,1.243
0.010032789017541129,1.244
0.0022718624809892718,1.245
-0.00583131077179465,1.246
-0.013044963841297072,1.247
-0.018235034502372998,1.248
-0.020676851447282697,1.249
-0.020333043737348455,1.25
-0.017886297677463088,1.251
-0.014464967317257467,1.252
-0.011174810672123952,1.253
-0.008673720811576838,1.254
-0.007022930882442401,1.255
-0.005880990505672494,1.256
-0.00485972282906017,1.257
-0.003806847401939655,1.258
-0.0028946859059691774,1.259
-0.0024609290722897165,1.26
-0.0027064652457218594,1.261
-0.003553911547911663,1.262
-0.004779229917482435,1.263
-0.006165662443242721,1.264
-0.0075000201073414175,1.265
-0.008520045205701113,1.266
-0.008935194967442736,1.267
-0.008486371377166076,1.268
-0.0069847652937328,1.269
-0.004361983475411877,1.27
-0.00071564933760086,1.271
0.0037535538025195735,1.272
0.0088527396388054,1.273
0.014350914282281217,1.274
0.019733977641668708,1.275
0.023936355405277818,1.276
0.025346214738329247,1.277
0.022345877709234564,1.278
0.01424674189974331,1.279
0.0020183890074544036,1.28
-0.011691834655762323,1.281
-0.02326909888509913,1.282
-0.02924923324645005,1.283
-0.02739529657422295,1.284
-0.01736476059201254,1.285
-0.0008365714623583143,1.286
0.018863782935004233,1.287
0.03754197380953999,1.288
0.05107965708345427,1.289
0.05614998976527078,1.29
0.0506447348657042,1.291
0.03424657777154493,1.292
0.009124106833335643,1.293
-0.020048446498270492,1.294
-0.0472369957422298,1.295
-0.06688054864433655,1.296
-0.0754967907376222,1.297
-0.07242370275327578,1.298
-0.05957574603153695,1.299
-0.04052174348884307,1.3
-0.01936052922173201,1.301
0.00026342845396768686,1.302
0.0158373467154411,1.303
0.026252445655929962,1.304
0.031700126333829896,1.305
0.03334792594998094,1.306
0.03293467137983666,1.307
0.032348540452408515,1.308
0.03316682519345416,1.309
0.0361081511295505,1.31
0.04048349859229341,1.311
0.0439683136938919,1.312
0.043098038381904735,1.313
0.03460571759758889,1.314
0.017126300254584313,1.315
-0.0076789328454810344,1.316
-0.03526959145647119,1.317
-0.059602430447530684,1.318
-0.07516298068784433,1.319
-0.07880022568350682,1.32
-0.07059835066648071,1.321
-0.053526976477905525,1.322
-0.03216517331482511,1.323
-0.011138275416802908,1.324
0.006140411460685831,1.325
0.01811742696151096,1.326
0.0250449418212262,1.327
0.028378545261006746,1.328
0.029980894009014512,1.329
0.031362376923817124,1.33
0.03306233534658958,1.331
0.03444453670674895,1.332
0.03418061893975313,1.333
0.03120814129685425,1.334
0.02548592349653923,1.335
0.018023505872249202,1.336
0.010277053419671583,1.337
0.0034137263220867836,1.338
-0.002125512457939633,1.339
-0.0066341029597246914,1.34
-0.010808196278869359,1.341
-0.015248060197190487,1.342
-0.02002009334219114,1.343
-0.02451266673458336,1.344
-0.02770179702044287,1.345
-0.028706987907790214,1.346
-0.02726022776848178,1.347
-0.023715673925117853,1.348
-0.018650460101014735,1.349
-0.012501001676848221,1.35
-0.005550319621902341,1.351
0.0018268548453400648,1.352
0.00896913675118421,1.353
0.01498753072263671,1.354
0.019014571720254596,1.355
0.02045912608621267,1.356
0.01917471105029742,1.357
0.015525932839485324,1.358
0.010319817752499332,1.359
0.004579307218959103,1.36
-0.000731934177585287,1.361
-0.0048569654665591554,1.362
-0.007279907584962238,1.363
-0.007794915457757154,1.364
-0.0065931487774535166,1.365
-0.004223710384697001,1.366
-0.001385848763621128,1.367
0.0013502419909219088,1.368
0.0037447823394914227,1.369
0.005906216935935358,1.37
0.008131273598324868,1.371
0.010655929334512105,1.372
0.013399754562765258,1.373
0.015799152916864838,1.374
0.016871283135878018,1.375
0.0155488232084546,1.376
0.011146288774505233,1.377
0.0037457303901921933,1.378
-0.005698860334183724,1.379
-0.015594468915545305,1.38
-0.024136090041766912,1.381
-0.029764703200672062,1.382
-0.031555980628123044,1.383
-0.02944667915301357,1.384
-0.024213944366977606,1.385
-0.017187290260506714,1.386
-0.009793571818057034,1.387
-0.003121693976970441,1.388
0.002318615735404012,1.389
0.006578588778344625,1.39
0.010047678670635371,1.391
0.013134032801241832,1.392
0.015996946072528415,1.393
0.01846580615768347,1.394
0.02014192904845955,1.395
0.020556804979010926,1.396
0.019309325436532177,1.397
0.0162164772965774,1.398
0.011465580548439555,1.399
0.005653513706879626,1.4
-0.0003538649891162352,1.401
-0.005681375712566389,1.402
-0.009700465899135261,1.403
-0.01217700222114901,1.404
-0.01326474310113487,1.405
-0.0133735483197785,1.406
-0.012981753826496738,1.407
-0.01244842725024223,1.408
-0.011868793231688761,1.409
-0.01102839091553144,1.41
-0.009510997086977465,1.411
-0.006948528119191797,1.412
-0.003283562650958021,1.413
0.0011417382886805747,1.414
0.005741341062564226,1.415
0.009964621981739917,1.416
0.013538079768384776,1.417
0.016566112898720096,1.418
0.019379369115433375,1.419
0.022110841130115376,1.42
0.024313210203356115,1.421
0.025083805483680756,1.422
0.02366789172137154,1.423
0.019891062787083448,1.424
0.01399194660935214,1.425
0.006213437525907554,1.426
-0.0032994891275324135,1.427
-0.014228924042936375,1.428
-0.0257070024368073,1.429
-0.03615663618636665,1.43
-0.04357766164287784,1.431
-0.04617798535231676,1.432
-0.043061291914439796,1.433
-0.03471760191015993,1.434
-0.02301321888848274,1.435
-0.010540555441396189,1.436
0.0003362116549733152,1.437
0.008214860693383801,1.438
0.012909516743569866,1.439
0.015238016901410712,1.44
0.01647360129437748,1.441
0.017706105575580812,1.442
0.01938839129880794,1.443
0.021231692133975213,1.444
0.022441176841635997,1.445
0.022117774534911688,1.446
0.019600530835898054,1.447
0.014675234381639658,1.448
0.007715164125223361,1.449
-0.00032304260442811466,1.45
-0.008153372801090925,1.451
-0.014484284578101704,1.452
-0.0182212186306436,1.453
-0.018604614839988213,1.454
-0.015362053304261696,1.455
-0.008833697820499331,1.456
5.515191360330709e-06,1.457
0.00967320395711348,1.458
0.018444472940134186,1.459
0.02469845674704058,1.46
0.027290862012776806,1.461
0.02584927129031797,1.462
0.02082340334448279,1.463
0.013206808935006418,1.464
0.004048660002194811,1.465
-0.005911704143599082,1.466
-0.016148756397817564,1.467
-0.025880674116858304,1.468
-0.03375435918475522,1.469
-0.03809990659014153,1.47
-0.03766626518425266,1.471
-0.03234968902584482,1.472
-0.02340149804105156,1.473
-0.012961812119103562,1.474
-0.003211818470945723,1.475
0.004359882039096788,1.476
0.009229389836069407,1.477
0.011669856840630108,1.478
0.012415237423849272,1.479
0.012368766218350816,1.48
0.012369916057981057,1.481
0.012965804848056947,1.482
0.014245079896240102,1.483
0.015840998225055337,1.484
0.017097896821670847,1.485
0.01729658771832732,1.486
0.01585142694994354,1.487
0.012471795201814018,1.488
0.007303471731552929,1.489
0.0009894049718792478,1.49
-0.005440730641278946,1.491
-0.01085644074476135,1.492
-0.014383425189794564,1.493
-0.015642814037252543,1.494
-0.014744406145481516,1.495
-0.01213157196356488,1.496
-0.008441149304472883,1.497
-0.004386018716200026,1.498
-0.0006278942252799997,1.499
0.0023073314237019218,1.5
0.004073776607147979,1.501
0.004576991915541866,1.502
0.004019368652004593,1.503
0.002816564669488532,1.504
0.0014091003260248227,1.505
7.925074814196068e-05,1.506
-0.0010932753597742123,1.507
-0.002079811802979598,1.508
-0.002695799801364343,1.509
-0.0025290856406408307,1.51
-0.0010605819681469761,1.511
0.002052261668694318,1.512
0.006626122701779791,1.513
0.011754250954389471,1.514
0.01597732118470817,1.515
0.017797567750550563,1.516
0.016242257456781813,1.517
0.011184628992875456,1.518
0.0033338565397201714,1.519
-0.0060177990063836305,1.52
-0.015313714922053247,1.521
-0.023011568633540112,1.522
-0.027829252389677532,1.523
-0.028933462710740078,1.524
-0.02603356390870318,1.525
-0.019406269639244394,1.526
-0.009881945736344098,1.527
0.0012043492745974884,1.528
0.012121725769442586,1.529
0.02097433467320343,1.53
0.026095449095695184,1.531
0.026495519023944897,1.532
0.022155726714178144,1.533
0.014067827976948015,1.534
0.0040171395708418975,1.535
-0.005847045166670729,1.536
-0.013500474467427501,1.537
-0.017467157007780114,1.538
-0.017135965175240967,1.539
-0.012862825344963854,1.54
-0.0057844936094168815,1.541
0.0024985060071253916,1.542
0.010139275276900686,1.543
0.015224618227164042,1.544
0.016209830949611828,1.545
0.012575501508853575,1.546
0.00522221518463767,1.547
-0.0037698496380708553,1.548
-0.011883937846657335,1.549
-0.016996645889999152,1.55
-0.017977384424747493,1.551
-0.014910254962548023,1.552
-0.008904841786668305,1.553
-0.001609507264520476,1.554
0.005343673381077609,1.555
0.01074540590705213,1.556
0.013977039731729524,1.557
0.014968721087815407,1.558
0.013999166831855345,1.559
0.011436400468572945,1.56
0.0075995939709370824,1.561
0.0028269508548640714,1.562
-0.0023802625933667136,1.563
-0.007310700958771622,1.564
-0.011138149657969323,1.565
-0.013130552610618932,1.566
-0.012923518920619683,1.567
-0.010718000770998689,1.568
-0.0072191575799374335,1.569
-0.003307138280553881,1.57
0.0003547831821911734,1.571
0.0035595890042263915,1.572
0.006529728938527509,1.573
0.009623235551283802,1.574
0.012928798564288609,1.575
0.015960676032088585,1.576
0.017607841612790213,1.577
0.016474827469628636,1.578
0.011572876850031173,1.579
0.0029702039674617733,1.58
-0.007996697945945366,1.581
-0.019004705321865264,1.582
-0.02737913343813363,1.583
-0.03087508879609177,1.584
-0.028312234364366255,1.585
-0.019881146512678367,1.586
-0.007119204547285958,1.587
0.007406934000744506,1.588
0.02064123802800252,1.589
0.029725324506016268,1.59
0.03274418822015179,1.591
0.029264062857961185,1.592
0.020359570303625698,1.593
0.008152208297885618,1.594
-0.004844075628933658,1.595
-0.016321237705025693,1.596
-0.024619344248584796,1.597
-0.028957096826347013,1.598
-0.02936724149944029,1.599
-0.026367925748708134,1.6
-0.02062260983540029,1.601
-0.012808389668686313,1.602
-0.0036447416728793186,1.603
0.00606759385212287,1.604
0.015414009792889304,1.605
0.02331496688332876,1.606
0.02857644819095034,1.607
0.03017920600138959,1.608
0.0277148780549878,1.609
0.021674556795554863,1.61
0.013347135607924571,1.611
0.004359351279948857,1.612
-0.003839963506034981,1.613
-0.010256874907010872,1.614
-0.014363686474057082,1.615
-0.016024870475643355,1.616
-0.015468008298822266,1.617
-0.013253324185007975,1.618
-0.01014773833584807,1.619
-0.006920053191472001,1.62
-0.004165661682139941,1.621
-0.002229326053594416,1.622
-0.0011870498077923705,1.623
-0.0008425616274125992,1.624
-0.0007761131322604947,1.625
-0.00048264213631364557,1.626
0.00044502170813888497,1.627
0.0021645900654021105,1.628
0.004506604490496145,1.629
0.006978989500500323,1.63
0.008862508037459185,1.631
0.00943285539099045,1.632
0.008281482291667877,1.633
0.005535092317980407,1.634
0.0017797051064116773,1.635
-0.002245402401101785,1.636
-0.005949147927213508,1.637
-0.009016696430414398,1.638
-0.011327021510825406,1.639
-0.01275890832838139,1.64
-0.013063863662846122,1.641
-0.0118968077632535,1.642
-0.008972903243811031,1.643
-0.004288380923796368,1.644
0.0016994870245490394,1.645
0.008098721831715883,1.646
0.013872549849336295,1.647
0.018177937327481818,1.648
0.020473462537682445,1.649
0.020433411365779208,1.65
0.017931102062510543,1.651
0.013147649454963809,1.652
0.00663373371847036,1.653
-0.0007542131800196635,1.654
-0.00797650697240281,1.655
-0.013954813000183124,1.656
-0.017757138828156736,1.657
-0.01880170624354676,1.658
-0.017004340817442856,1.659
-0.01280459821711511,1.66
-0.007070442673757756,1.661
-0.0009332384740022792,1.662
0.004426671495298934,1.663
0.008059694597891808,1.664
0.009498328178375101,1.665
0.008815475735137673,1.666
0.006506743066509058,1.667
0.0033348210912887517,1.668
0.00015508444858243148,1.669
-0.002299804277948563,1.67
-0.0035920249409131114,1.671
-0.0036191474004080826,1.672
-0.0025614090439130552,1.673
-0.0008116858133844746,1.674
0.0011078055598217776,1.675
0.002649988049779357,1.676
0.0033525522238854804,1.677
0.0029271848691036044,1.678
0.0013053806303199046,1.679
-0.0013257225666000474,1.68
-0.00447121420206137,1.681
-0.007352709908805737,1.682
-0.00910814725551891,1.683
-0.009107607690340148,1.684
-0.007211911515203705,1.685
-0.0038205057925106405,1.686
0.0003207265218936378,1.687
0.0044063562570389545,1.688
0.007775176637793471,1.689
0.010005715730504433,1.69
0.010953202125838925,1.691
0.0107193632111421,1.692
0.009545941017474304,1.693
0.007699614720588408,1.694
0.005428386219392412,1.695
0.0029704799888479374,1.696
0.0005419397781527331,1.697
-0.0016982587403867816,1.698
-0.003655588375491929,1.699
-0.005273215556271105,1.7
-0.006500310474591023,1.701
-0.007282348128246975,1.702
-0.007585848389504094,1.703
-0.007420056579359948,1.704
-0.006809035679401505,1.705
-0.0057450735886209305,1.706
-0.00418537627854565,1.707
-0.002101128176796753,1.708
0.0004395194871576973,1.709
0.0031713252334586344,1.71
0.0055792907528076285,1.711
0.006985703983757157,1.712
0.00678667433525977,1.713
0.004737087627134539,1.714
0.0011482472907755196,1.715
-0.0031035760713182046,1.716
-0.0067865132070497455,1.717
-0.008647595767684615,1.718
-0.007742788808119093,1.719
-0.003757599662734047,1.72
0.002682218754948188,1.721
0.009940710102846124,1.722
0.01582371072296546,1.723
0.018432937085840952,1.724
0.016882848126652486,1.725
0.011443300500284281,1.726
0.0031886646204852057,1.727
-0.00643773123877471,1.728
-0.015889091720253892,1.729
-0.02362167879941506,1.73
-0.02816382922205442,1.731
-0.0282937353695911,1.732
-0.02338415908047936,1.733
-0.013782760366713389,1.734
-0.0009661232931898901,1.735
0.01270216348629045,1.736
0.02454318619594295,1.737
0.03225015855938065,1.738
0.03446399465242072,1.739
0.03106849152347101,1.74
0.023110784103237886,1.741
0.012396761653207286,1.742
0.0009802867391247776,1.743
-0.009274036047951281,1.744
-0.016991587887650594,1.745
-0.02142620585545168,1.746
-0.022488220372676525,1.747
-0.02070878461098476,1.748
-0.017083545949110115,1.749
-0.012769570763865012,1.75
-0.008729996996155644,1.751
-0.005470501859151109,1.752
-0.002969923214588117,1.753
-0.0008296761286010388,1.754
0.001426578084022019,1.755
0.004071114154523734,1.756
0.0070880873302868646,1.757
0.010314251994430994,1.758
0.01358961072169308,1.759
0.016696921540131908,1.76
0.019195178488277405,1.761
0.020405657705090764,1.762
0.01960949538041785,1.763
0.01635465881710214,1.764
0.010722456373118647,1.765
0.0033957039391348744,1.766
-0.0045065348943096935,1.767
-0.011738752988684676,1.768
-0.017274317075628355,1.769
-0.020558129602207563,1.77
-0.021560221270101113,1.771
-0.02063962679653298,1.772
-0.01834315958308692,1.773
-0.015260216484327325,1.774
-0.011931442422426754,1.775
-0.008749220150596662,1.776
-0.005867041671712733,1.777
-0.0032052894100291682,1.778
-0.0005794606310703231,1.779
0.0021422108206494857,1.78
0.004942870908124939,1.781
0.007647686827477188,1.782
0.010011910636629139,1.783
0.011865785150697491,1.784
0.013196013522208748,1.785
0.014068160135185446,1.786
0.014451549201112619,1.787
0.014131100583923334,1.788
0.012808282001051044,1.789
0.010319056595924862,1.79
0.0067996795538822164,1.791
0.00267662547931677,1.792
-0.0014875087697439888,1.793
-0.005170177190193254,1.794
-0.008000950416304694,1.795
-0.009788920377833528,1.796
-0.010486895155926984,1.797
-0.010133834480883775,1.798
-0.008822281480303134,1.799
-0.0067298778237799145,1.8
-0.004215215027357335,1.801
-0.0018637957589019828,1.802
-0.0003035666501179219,1.803
0.00017887416684763915,1.804
-0.00011520430431703375,1.805
-0.00044734910633616144,1.806
-6.966523614838576e-05,1.807
0.0013604527754514679,1.808
0.003605056579800966,1.809
0.0060111084849230525,1.81
0.007880205645566615,1.811
0.008783960104245299,1.812
0.008686310763396942,1.813
0.007835257591604116,1.814
0.006481191089213941,1.815
0.0046318201297151146,1.816
0.002045193028526642,1.817
-0.0015301646724757848,1.818
-0.006038251362969117,1.819
-0.010952245560808186,1.82
-0.015387901088942946,1.821
-0.01840222353010476,1.822
-0.019279250753994132,1.823
-0.01770193192690578,1.824
-0.01383572253241513,1.825
-0.008328120471676762,1.826
-0.0021561397947431355,1.827
0.0036857839360948047,1.828
0.008510059340767883,1.829
0.012056726738936397,1.83
0.014346882314207889,1.831
0.015455670882131406,1.832
0.01539423138932506,1.833
0.014100914314158362,1.834
0.0115336723784945,1.835
0.00788179024469667,1.836
0.0037264269892099224,1.837
-8.520946378636263e-05,1.838
-0.0028085049860283044,1.839
-0.0041301912482563236,1.84
-0.004243575203382794,1.841
-0.0036622878859714084,1.842
-0.0029217098419351407,1.843
-0.002358815230901255,1.844
-0.0020745180420178003,1.845
-0.0020489599846524762,1.846
-0.0022819322615170146,1.847
-0.0028220215666996643,1.848
-0.003665504793445236,1.849
-0.0046446371494889074,1.85
-0.005425186723165655,1.851
-0.005607822119006169,1.852
-0.004849091089451336,1.853
-0.002973024912448664,1.854
-7.693461826033818e-05,1.855
0.003441836851139811,1.856
0.006988835265903232,1.857
0.00991399794602675,1.858
0.011603587469601395,1.859
0.011559474456293127,1.86
0.009510456735489375,1.861
0.005517386754219402,1.862
1.9744975279495468e-05,1.863
-0.00619647043568508,1.864
-0.012112524441409903,1.865
-0.01666207279166419,1.866
-0.01896362288975971,1.867
-0.018545533954687103,1.868
-0.015478759130662701,1.869
-0.010354624924568857,1.87
-0.004112114072375809,1.871
0.0022258045055529333,1.872
0.007834115228040464,1.873
0.012280369659195031,1.874
0.015497524106064491,1.875
0.017538887712996724,1.876
0.01832287138731845,1.877
0.01757133430064103,1.878
0.014984310628543785,1.879
0.010539640422704645,1.88
0.0047058388335243055,1.881
-0.0015949273928720078,1.882
-0.007245241161291708,1.883
-0.011255025299239059,1.884
-0.013017823188228419,1.885
-0.012432557387387397,1.886
-0.009871254682270392,1.887
-0.006034529730929329,1.888
-0.0017668333702355904,1.889
0.002108577106754501,1.89
0.0049032747129672954,1.891
0.0061378906530971025,1.892
0.0056122575082787176,1.893
0.003462929458799137,1.894
0.0001462503661026182,1.895
-0.003683034480798585,1.896
-0.007346254176936956,1.897
-0.010278520567222359,1.898
-0.012070694575287937,1.899
-0.01244057926994152,1.9
-0.011222659590554284,1.901
-0.00842357598671288,1.902
-0.004289202968505897,1.903
0.0006967103577485488,1.904
0.005891541464119405,1.905
0.010593894065833234,1.906
0.014115113901903837,1.907
0.015849621146115687,1.908
0.015427771546035822,1.909
0.012924081021792254,1.91
0.008944233975878272,1.911
0.0044867990295110495,1.912
0.0006407054699658449,1.913
-0.001766446728034762,1.914
-0.0024427839704316045,1.915
-0.0017030568228871988,1.916
-0.0002840161827036493,1.917
0.000991802817301357,1.918
0.0015056167472130646,1.919
0.0009793501444899367,1.92
-0.0005408562795769416,1.921
-0.002810755194194764,1.922
-0.0055176737586527585,1.923
-0.00834209901741277,1.924
-0.010963098880111823,1.925
-0.01303200036728334,1.926
-0.014163692548432477,1.927
-0.013999530071402519,1.928
-0.012313474643839334,1.929
-0.009081428690407544,1.93
-0.0045038939580356,1.931
0.000967740423538858,1.932
0.006628763090917614,1.933
0.011629523694262688,1.934
0.015197614677037865,1.935
0.01686400092221285,1.936
0.01655670708827323,1.937
0.014517584747223682,1.938
0.011129071319516735,1.939
0.006790536938821385,1.94
0.0019212069761300984,1.941
-0.00297456995658666,1.942
-0.007306168745232078,1.943
-0.010489452475798942,1.944
-0.012070617595734634,1.945
-0.011825738362973605,1.946
-0.009822945406276403,1.947
-0.006446897633302971,1.948
-0.002345867691662194,1.949
0.0017308869489795064,1.95
0.005133392252299748,1.951
0.007451575401168708,1.952
0.008588491080277044,1.953
0.008766291544947336,1.954
0.008408733474759596,1.955
0.007905905300010447,1.956
0.007400448263816696,1.957
0.006756546422730572,1.958
0.005740813128183483,1.959
0.004255818049957709,1.96
0.002396517049673823,1.961
0.0002803366944727187,1.962
-0.002146311110999823,1.963
-0.005119472438555814,1.964
-0.008851564598157122,1.965
-0.013206007324912528,1.966
-0.017487534105380627,1.967
-0.020580579609725817,1.968
-0.021390403685309044,1.969
-0.01931172838138041,1.97
-0.014481892490612798,1.971
-0.00773901745462058,1.972
-0.00036156310225574876,1.973
0.006302400061556515,1.974
0.011230912404388609,1.975
0.013998076297597813,1.976
0.01477281226215935,1.977
0.014081060031716872,1.978
0.012509705115114319,1.979
0.010495567231334458,1.98
0.008235249748338102,1.981
0.005720922229916327,1.982
0.0029072420920364063,1.983
-6.730070181321262e-05,1.984
-0.00276517308232886,1.985
-0.00453689044149533,1.986
-0.004751271931125639,1.987
-0.0030511140379362697,1.988
0.0004429414342779286,1.989
0.005038714678127107,1.99
0.009540678432564663,1.991
0.012502295040930719,1.992
0.012656309538687972,1.993
0.009430477041350797,1.994
0.0033063172488477814,1.995
-0.004260319749693748,1.996
-0.01140458509995687,1.997
-0.01656846507267613,1.998
-0.01893926729871905,1.999
-0.018488009406478222,2.0
-0.015762675635438525,2.001
-0.011608720321914665,2.002
-0.006888701875641652,2.003
-0.0022590192193356496,2.004
0.0019044915905810195,2.005
0.00542912259985093,2.006
0.008211766503748755,2.007
0.010128368192149783,2.008
0.011043577543226522,2.009
0.01088580719247906,2.01
0.009717536078721728,2.011
0.0077814022435787646,2.012
0.0054896588080660435,2.013
0.0033102177974251275,2.014
0.0016025155086378438,2.015
0.0005065415276652692,2.016
-9.302312531245108e-05,2.017
-0.0005298344265669108,2.018
-0.0012102394380841767,2.019
-0.002387045921033929,2.02
-0.003996709280927647,2.021
-0.005681789753275024,2.022
-0.006961103335097553,2.023
-0.007419566972094082,2.024
-0.006826848577015579,2.025
-0.005170789210621267,2.026
-0.0026514649986117845,2.027
0.0003232403892201287,2.028
0.0031526071955623935,2.029
0.005128823662287576,2.03
0.005629886952851435,2.031
0.004350555428590821,2.032
0.0014431153330009263,2.033
-0.0024987064700141555,2.034
-0.006586699422501046,2.035
-0.009868123434330732,2.036
-0.011569247176298031,2.037
-0.011252545424059825,2.038
-0.008870678225925127,2.039
-0.004766832140627827,2.04
0.00038553394172760163,2.041
0.005735712307688444,2.042
0.01047104722749029,2.043
0.013997777293813598,2.044
0.016011447677799176,2.045
0.016462044318972337,2.046
0.015470414584767306,2.047
0.013264289628292885,2.048
0.010155143832751158,2.049
0.006511935583822649,2.05
0.002701872952797959,2.051
-0.0009793083590277612,2.052
-0.004346767202916783,2.053
-0.00730552334269833,2.054
-0.009781383468482256,2.055
-0.011665387660638363,2.056
-0.012815263799838642,2.057
-0.013086857409000677,2.058
-0.012359799094148362,2.059
-0.010580872629260862,2.06
-0.007841651593502167,2.061
-0.004431095519536167,2.062
-0.0007997191780050575,2.063
0.0025447954038943753,2.064
0.005133241571762922,2.065
0.006584862255953982,2.066
0.00665966271273384,2.067
0.00535664254649321,2.068
0.003007829598097001,2.069
0.00027461400370979507,2.07
-0.002001764968527869,2.071
-0.00304845542123829,2.072
-0.0023920056984739696,2.073
-1.905485979978478e-06,2.074
0.003658173451177006,2.075
0.0076920547182513475,2.076
0.010973326167870312,2.077
0.012454432054364013,2.078
0.011487391551750785,2.079
0.008052966185670135,2.08
0.0028114638822744242,2.081
-0.0030911728386062913,2.082
-0.008432325189051028,2.083
-0.012320868028872738,2.084
-0.014357866940252035,2.085
-0.014540282721233097,2.086
-0.01308398229049363,2.087
-0.010301406832224845,2.088
-0.006557952987509187,2.089
-0.002274570108949641,2.09
0.0020694774666904416,2.091
0.005982317407083278,2.092
0.009039629866815802,2.093
0.010925498214742153,2.094
0.011428300814565088,2.095
0.010475139267995377,2.096
0.008249939222011692,2.097
0.0052819087725244004,2.098
0.0023335109664496725,2.099
0.00011211252768611828,2.1
-0.0009924137355246119,2.101
-0.001003355862654165,2.102
-0.0002869088495350811,2.103
0.0006238000163419485,2.104
0.0012315022376084555,2.105
0.0012113445137273277,2.106
0.00044598135392451244,2.107
-0.0009986723121467086,2.108
-0.0029025292224517754,2.109
-0.004899590893126529,2.11
-0.006516017375036215,2.111
-0.00730630064503173,2.112
-0.007031835044619604,2.113
-0.00576280844787494,2.114
-0.0038567565504827555,2.115
-0.0018277912062783924,2.116
-0.00016585799206139055,2.117
0.000803694098965927,2.118
0.0009848379287521808,2.119
0.0005199758675651782,2.12
-0.0002587811980226747,2.121
-0.0009540487592357994,2.122
-0.0012601850653612293,2.123
-0.0010583673500542603,2.124
-0.0004084056702572464,2.125
0.0005384791714679054,2.126
0.001653693975682693,2.127
0.002888385094121218,2.128
0.004224471493212953,2.129
0.005567522586362331,2.13
0.0066747106090241605,2.131
0.007178348710009343,2.132
0.006710748068416736,2.133
0.005088461459582068,2.134
0.0024668655991001063,2.135
-0.0006398560631729437,2.136
-0.0035218502665408727,2.137
-0.005546639653109517,2.138
-0.006385369352090695,2.139
-0.006078348218524736,2.14
-0.004928885921950085,2.141
-0.003311771638716569,2.142
-0.0015341570609209531,2.143
0.00017301556601499445,2.144
0.0015899132835269928,2.145
0.0024949951720308113,2.146
0.002741805965647578,2.147
0.00234017244535842,2.148
0.0014698255694773085,2.149
0.00042928126171768317,2.15
-0.00046299799075524535,2.151
-0.0009897901871960982,2.152
-0.0011197384377609001,2.153
-0.0010047620699870417,2.154
-0.0008850896303392898,2.155
-0.0009460257191633203,2.156
-0.0012078295491724364,2.157
-0.0015123454941132132,2.158
-0.0016066854797776762,2.159
-0.0012679699238309764,2.16
-0.000396447368427309,2.161
0.0009544808369506272,2.162
0.0025820248351892945,2.163
0.0041509395815465845,2.164
0.00524892846833985,2.165
0.005475320462531366,2.166
0.00452420818887527,2.167
0.002267526804923368,2.168
-0.0011442991844221246,2.169
-0.005203964187228472,2.17
-0.009061701375284526,2.171
-0.011687010965154595,2.172
-0.012188367182562804,2.173
-0.010176458324707142,2.174
-0.005961967121376501,2.175
-0.0004790947756483893,2.176
0.00502397400992526,2.177
0.009398133095582718,2.178
0.011916879360514169,2.179
0.012371764264478047,2.18
0.010971770355112775,2.181
0.008185985268771614,2.182
0.004644101680021341,2.183
0.0010901623267237715,2.184
-0.0017186380644053163,2.185
-0.003205372588452654,2.186
-0.003159510934361612,2.187
-0.001811594274151901,2.188
0.00024227045495104659,2.189
0.0022382565006697323,2.19
0.003490812044865161,2.191
0.003599508457121907,2.192
0.002527520433053521,2.193
0.0005300446595390402,2.194
-0.001983494393500678,2.195
-0.0045576036096882395,2.196
-0.006760810701218353,2.197
-0.008267997420206487,2.198
-0.008945909548235048,2.199
-0.008872914911400666,2.2
-0.008259401952689352,2.201
-0.007304990345940349,2.202
-0.006088183359821631,2.203
-0.0045577949468263495,2.204
-0.0026021761107121754,2.205
-0.00014010861926526952,2.206
0.0028061524247425316,2.207
0.006066727403355363,2.208
0.009300992367570803,2.209
0.012009339432701339,2.21
0.01362016055892987,2.211
0.013669509979651096,2.212
0.011992421642238318,2.213
0.008803601690901719,2.214
0.004637365754557731,2.215
0.00018646324409242755,2.216
-0.0038925874268424068,2.217
-0.00711211675880535,2.218
-0.009187821250100741,2.219
-0.010032258164493428,2.22
-0.009741840827376481,2.221
-0.008546398325274712,2.222
-0.006730253595756444,2.223
-0.0045847804868442525,2.224
-0.0023926666918817367,2.225
-0.0003900113823718859,2.226
0.0012883531350630641,2.227
0.002615745314187589,2.228
0.0036071096769801675,2.229
0.004240523657497752,2.23
0.00445827121172984,2.231
0.004234997530853205,2.232
0.003616629519584067,2.233
0.0027009319450256647,2.234
0.0016079445542704078,2.235
0.0004787409640543457,2.236
-0.0005327082088925194,2.237
-0.0013049848072719445,2.238
-0.0017749227040475017,2.239
-0.001925543249715466,2.24
-0.0017897531862447918,2.241
-0.0014715716839726622,2.242
-0.0011336050428013861,2.243
-0.0009290797011791158,2.244
-0.0009218568331663671,2.245
-0.0010643501891905488,2.246
-0.0012465447115234999,2.247
-0.001355574615417982,2.248
-0.0012959636297030196,2.249
-0.0009778705601962705,2.25
-0.0003209576503232271,2.251
0.0006894497759863868,2.252
0.0019428186564744371,2.253
0.003218744924001855,2.254
0.004271355829845975,2.255
0.004918366972245061,2.256
0.00508212782935119,2.257
0.0047665970492742245,2.258
0.004002768000051474,2.259
0.0028124952550584938,2.26
0.0012068024673936061,2.261
-0.0007778685221691214,2.262
-0.0030101022140126997,2.263
-0.005226051516210881,2.264
-0.007083591513602888,2.265
-0.008267822168225929,2.266
-0.008568515152804327,2.267
-0.007899744734084512,2.268
-0.006288385844603661,2.269
-0.003860746457617655,2.27
-0.000836706571176597,2.271
0.002464174055164126,2.272
0.005628784909707381,2.273
0.008199041754764097,2.274
0.009763434085985269,2.275
0.010075242066416188,2.276
0.009148223621490146,2.277
0.007266884054132,2.278
0.004887920806092745,2.279
0.0024727652598949936,2.28
0.00034756721700165863,2.281
-0.0013384154831031913,2.282
-0.00257843747190297,2.283
-0.003459971647988126,2.284
-0.004116340920140753,2.285
-0.004657214822680924,2.286
-0.00510393465019245,2.287
-0.005384950309633499,2.288
-0.005402415546811623,2.289
-0.00514111417316541,2.29
-0.004742783596620855,2.291
-0.004447512951512816,2.292
-0.004430414293627862,2.293
-0.004682590748500178,2.294
-0.005021134697339674,2.295
-0.005192201691684636,2.296
-0.004975626190429107,2.297
-0.0042267457120458915,2.298
-0.002865845441671458,2.299
-0.0008527188989092699,2.3
0.0018150387773796057,2.301
0.005051657964523046,2.302
0.008612471654378678,2.303
0.012070750267159506,2.304
0.01488361277029018,2.305
0.016525188039995573,2.306
0.01662434109167194,2.307
0.015073687455694245,2.308
0.012087267514072285,2.309
0.008164749833693327,2.31
0.003952597981240508,2.311
4.433256995411261e-05,2.312
-0.003199747355315602,2.313
-0.0057151059179632166,2.314
-0.007643216562833879,2.315
-0.009165112697351388,2.316
-0.010363193261188296,2.317
-0.011171130093910069,2.318
-0.011420473510148603,2.319
-0.010940553306623545,2.32
-0.009653486698616971,2.321
-0.007632444423780922,2.322
-0.005106261206380495,2.323
-0.002412341947831155,2.324
7.783529092381615e-05,2.325
0.0020353031200538224,2.326
0.0032338458848652123,2.327
0.0035905356843774073,2.328
0.003179273248276486,2.329
0.0022007855184073017,2.33
0.0009205972226157623,2.331
-0.00039443791422374616,2.332
-0.0015165858961934237,2.333
-0.0022811156041836456,2.334
-0.002614555635096514,2.335
-0.0025359282619248323,2.336
-0.002106113166866916,2.337
-0.0013726788435253607,2.338
-0.00035823122037837975,2.339
0.0009057284848771179,2.34
0.0023411065395021638,2.341
0.00382851217508683,2.342
0.005246818153137012,2.343
0.006496286662314944,2.344
0.007475268905509095,2.345
0.008044498888819845,2.346
0.008040954698458678,2.347
0.007347132138902931,2.348
0.005965346217482081,2.349
0.0040467836332545234,2.35
0.0018558827097707464,2.351
-0.0003059012274393963,2.352
-0.002178600361253602,2.353
-0.003600490409917324,2.354
-0.004519167315238602,2.355
-0.004953930352273094,2.356
-0.004949866463333011,2.357
-0.004569622218466075,2.358
-0.003918222445295058,2.359
-0.003147592844458005,2.36
-0.002419977099848997,2.361
-0.0018570973815792765,2.362
-0.001502878789205071,2.363
-0.0013273647967932225,2.364
-0.001271851209359246,2.365
-0.001294382382982051,2.366
-0.0013898178638911767,2.367
-0.0015815079866077827,2.368
-0.0018681407494632845,2.369
-0.002145305677833723,2.37
-0.0022038433791782106,2.371
-0.0018552672367347844,2.372
-0.0010707478701343488,2.373
4.375060332851038e-06,2.374
0.0011561473176557493,2.375
0.002213228271247464,2.376
0.003077761151353627,2.377
0.003687052403479842,2.378
0.003968952077112003,2.379
0.0038432874581685868,2.38
0.00327867281855083,2.381
0.0023574134096771755,2.382
0.0012903110747157914,2.383
0.0003663992146041788,2.384
-0.00013843005692579493,2.385
-5.899023115712732e-05,2.386
0.0005819840730021074,2.387
0.001544473862638664,2.388
0.00242837960050759,2.389
0.00282708263315489,2.39
0.0025059532752846536,2.391
0.0014921752296450294,2.392
2.548553407131074e-05,2.393
-0.0015772829950687363,2.394
-0.0030305675962301166,2.395
-0.004091313902649408,2.396
-0.004538724055279197,2.397
-0.004237805552923845,2.398
-0.0032572247953587172,2.399
-0.0018884606392991058,2.4
-0.0005142508742021904,2.401
0.0005606350525396665,2.402
0.0011877244668599316,2.403
0.0013482180903487584,2.404
0.001104379201952686,2.405
0.0005857120652005808,2.406
-2.2238234076189685e-05,2.407
-0.000529106172535742,2.408
-0.000810375245746151,2.409
-0.0008455411242041369,2.41
-0.0006924566137631851,2.411
-0.00042862137656479596,2.412
-0.0001289764894204153,2.413
0.00011584536800224294,2.414
0.00019973347451724904,2.415
4.098680466403134e-05,2.416
-0.00037470694077177676,2.417
-0.0009874709531584097,2.418
-0.0016803894425471183,2.419
-0.0022812548844663746,2.42
-0.0025817588670346467,2.421
-0.0024280530731285587,2.422
-0.001804326956091359,2.423
-0.0008075583297772788,2.424
0.00043572402160772095,2.425
0.001806820546998912,2.426
0.003171886007404486,2.427
0.004361214674523908,2.428
0.005193159501011955,2.429
0.005514612723654611,2.43
0.005229406996222899,2.431
0.004328433377290946,2.432
0.002929096229497626,2.433
0.0012883476087576248,2.434
-0.00025500060159957324,2.435
-0.0013897627538461599,2.436
-0.0019222920183767412,2.437
-0.0018085561929653757,2.438
-0.0011519179173153954,2.439
-0.0001862124823937107,2.44
0.0007803919563775254,2.441
0.0014640404664550942,2.442
0.0016928788061083163,2.443
0.0014267307620101299,2.444
0.0007115987420048481,2.445
-0.0003623491163580914,2.446
-0.0016590303022188154,2.447
-0.002985337191872725,2.448
-0.004105935646151739,2.449
-0.0047898472549920915,2.45
-0.004879381357604715,2.451
-0.004348864949949557,2.452
-0.0033181030621667836,2.453
-0.0020107119865771465,2.454
-0.000669303508658763,2.455
0.0005308376000027202,2.456
0.0015078329024792543,2.457
0.002228850048468746,2.458
0.002652607081886181,2.459
0.0027169185674667945,2.46
0.002382977616371519,2.461
0.0016854767930461526,2.462
0.0007326976411777198,2.463
-0.0003266452958967105,2.464
-0.0013246520816398793,2.465
-0.0020896700306847348,2.466
-0.0024864203761500265,2.467
-0.002469992742056471,2.468
-0.002112961276376977,2.469
-0.0015828996753508731,2.47
-0.001074681265472772,2.471
-0.000714755052758115,2.472
-0.00048485256870505156,2.473
