VaMe,time
-0.00037996931297888426,0.001
0.003303975293605358,0.002
0.005308864484445842,0.003
0.004707922783431543,0.004
0.0017481695551088388,0.005
-0.0023238578772025063,0.006
-0.005964989580311422,0.007
-0.008063884434766062,0.008
-0.008261346093851566,0.009
-0.0068453614995357985,0.01
-0.004467756353589596,0.011
-0.0018900603155427285,0.012
0.00019457922187256503,0.013
0.0012964679444886081,0.014
0.0012352297327924457,0.015
0.00018851525616418174,0.016
-0.001349795701568824,0.017
-0.002703503206254549,0.018
-0.003188852259193634,0.019
-0.0022763076975729,0.02
0.00026269128752070154,0.021
0.004245809080595692,0.022
0.009058711162279432,0.023
0.013752347135536388,0.024
0.01726188479424572,0.025
0.018686305381712516,0.026
0.017525827962582754,0.027
0.013807435613648611,0.028
0.008064461065983214,0.029
0.0011803566816127908,0.03
-0.005823584189183231,0.031
-0.011973773756701323,0.032
-0.016490865404404167,0.033
-0.01890538753561537,0.034
-0.019120533496339027,0.035
-0.017398038490851003,0.036
-0.014262137373691412,0.037
-0.010344995069167164,0.038
-0.006235337340935439,0.039
-0.0023890092391030894,0.04
0.0009062378141635717,0.041
0.003541333081616716,0.042
0.005556080050135115,0.043
0.007063522262027229,0.044
0.008155654251101927,0.045
0.008822497004970098,0.046
0.00893895622492101,0.047
0.008351782954609381,0.048
0.007012835979968655,0.049
0.005053633324664403,0.05
0.0027551037148533897,0.051
0.000461702775560125,0.052
-0.0015047231480197181,0.053
-0.002914105151120854,0.054
-0.0036810071006079447,0.055
-0.003885140294372444,0.056
-0.003721565038453905,0.057
-0.0033929416174414786,0.058
-0.0030101069416634736,0.059
-0.002544434404475969,0.06
-0.0018450378827134387,0.061
-0.000724858018943149,0.062
0.0009126726942995224,0.063
0.0029639605800117178,0.064
0.005074831776559693,0.065
0.0066779045925623665,0.066
0.007141205592452354,0.067
0.005998933662550254,0.068
0.00317096169449767,0.069
-0.0009293744652593504,0.07
-0.005459128332022405,0.071
-0.009367340458850274,0.072
-0.011689430425195569,0.073
-0.011825905920530603,0.074
-0.009728585579808432,0.075
-0.005909952321789549,0.076
-0.0012576998933663756,0.077
0.0032530202212373532,0.078
0.006820407655786644,0.079
0.008956659160213673,0.08
0.00949781144657605,0.081
0.008558314116872549,0.082
0.006488640997151632,0.083
0.0038082679134727486,0.084
0.0010833746604186644,0.085
-0.0012204046941039443,0.086
-0.002845650348367136,0.087
-0.0037500231897590872,0.088
-0.004012250841036847,0.089
-0.0037081162023779976,0.09
-0.002845886384031136,0.091
-0.0014217601282190341,0.092
0.000448073324793678,0.093
0.0024468191382870565,0.094
0.004097873510807969,0.095
0.004900895268254988,0.096
0.004507463315993257,0.097
0.0028746123568795176,0.098
0.0003145385266342202,0.099
-0.0026109494737809134,0.1
-0.005284355567751193,0.101
-0.0071908766316054395,0.102
-0.008003082438396267,0.103
-0.007630126002358549,0.104
-0.006257123210001084,0.105
-0.004338497663049884,0.106
-0.002463634211149307,0.107
-0.0010863419179871056,0.108
-0.00026447552546300055,0.109
0.0003776290653003041,0.11
0.0014138506270783373,0.111
0.003302862821522259,0.112
0.0061793835486262825,0.113
0.009763678756546103,0.114
0.013373087428298808,0.115
0.01606712697224926,0.116
0.016933376931997226,0.117
0.015424665879821692,0.118
0.011582611283417086,0.119
0.006025710261291944,0.12
-0.0002789171039662588,0.121
-0.006334045183695563,0.122
-0.011384569489956902,0.123
-0.015048406111303873,0.124
-0.017271441863615743,0.125
-0.018156799242446835,0.126
-0.017810207726967255,0.127
-0.016312017342308933,0.128
-0.01376540580314573,0.129
-0.010324467589511069,0.13
-0.006209019197629854,0.131
-0.0017379493354615595,0.132
0.0026596808533881073,0.133
0.006500777820508517,0.134
0.009327211383230803,0.135
0.010725141180676639,0.136
0.010323757697454168,0.137
0.007910655562595955,0.138
0.0036675201380747696,0.139
-0.0016169846445044246,0.14
-0.006504223550462352,0.141
-0.009158985748532765,0.142
-0.007913715763534692,0.143
-0.0019710880636752428,0.144
0.008022013736238814,0.145
0.01982535546331374,0.146
0.03013228166255705,0.147
0.03572329857673739,0.148
0.03470859046925881,0.149
0.027169495627625655,0.15
0.014918062128650619,0.151
0.0006378926046905246,0.152
-0.013042659971169008,0.153
-0.02411793108805072,0.154
-0.0313739905292475,0.155
-0.03434215630219126,0.156
-0.033179120682315565,0.157
-0.028541825061677385,0.158
-0.021473176531471592,0.159
-0.013251817233312776,0.16
-0.005182746553087796,0.161
0.0016149082490731844,0.162
0.006370767040076379,0.163
0.008764173384183694,0.164
0.008972454187852912,0.165
0.00765948864498371,0.166
0.005821014270196289,0.167
0.004441987572673578,0.168
0.004114334615748597,0.169
0.004832679203863679,0.17
0.006064175461359693,0.171
0.0070532524569930765,0.172
0.007213769503064376,0.173
0.0063789338830953805,0.174
0.004769903193002779,0.175
0.0027990543571864237,0.176
0.0009109164321251967,0.177
-0.0004945424230856637,0.178
-0.0011213573768585627,0.179
-0.0008540407459607366,0.18
0.00017151763048293113,0.181
0.0015529233430700928,0.182
0.002711016995592216,0.183
0.0030790934169029702,0.184
0.0023069378988182245,0.185
0.0004033318469519622,0.186
-0.002212592554865119,0.187
-0.004797037134122291,0.188
-0.0065315770729518574,0.189
-0.006850261286813146,0.19
-0.005685090780880983,0.191
-0.003521564789092793,0.192
-0.001245391500694535,0.193
0.00016211688055073475,0.194
-2.284756216493762e-05,0.195
-0.00197447101848668,0.196
-0.0051769532778384265,0.197
-0.008480810032626766,0.198
-0.010380690185306114,0.199
-0.009509352941753384,0.2
-0.00521044506012542,0.201
0.0020597751659136242,0.202
0.010731703704538312,0.203
0.01860644718313154,0.204
0.023639155693559077,0.205
0.024618692955992862,0.206
0.021421238885661466,0.207
0.014828048768290684,0.208
0.006145894910587351,0.209
-0.0031203294003474932,0.21
-0.011493207571547563,0.211
-0.017755014849027334,0.212
-0.021181973517702426,0.213
-0.021638444334410502,0.214
-0.019487414345860325,0.215
-0.015402630522030477,0.216
-0.010168680337913507,0.217
-0.00452712296553053,0.218
0.0009062794267819677,0.219
0.005679253166031621,0.22
0.00951104602359154,0.221
0.012245080907290972,0.222
0.013765897458973348,0.223
0.013949769318358621,0.224
0.012681875492068666,0.225
0.009943606024157328,0.226
0.005940123184772494,0.227
0.0011708840500388746,0.228
-0.0036265225142172986,0.229
-0.0076372882491198,0.23
-0.010179445501263672,0.231
-0.010885660575953086,0.232
-0.00976598552417565,0.233
-0.007137752391288386,0.234
-0.003517401395195381,0.235
0.00043961365451007076,0.236
0.003989900795454863,0.237
0.006445857712777834,0.238
0.007399756580933038,0.239
0.006869379831358873,0.24
0.005225360108751189,0.241
0.002925234276554699,0.242
0.00024772551955254825,0.243
-0.0027513621810460248,0.244
-0.006032641878231668,0.245
-0.009321652212569583,0.246
-0.012018696487538704,0.247
-0.01330880696185255,0.248
-0.012410872119655775,0.249
-0.008879664353877468,0.25
-0.002849942511547713,0.251
0.004896793320452886,0.252
0.013092627829858974,0.253
0.02027900811525546,0.254
0.025088956473696054,0.255
0.0264380780844652,0.256
0.023654752708441928,0.257
0.016674661430916147,0.258
0.006326313011897354,0.259
-0.0055650109127202635,0.26
-0.016563002022621242,0.261
-0.02442193685573709,0.262
-0.027882519163923234,0.263
-0.02702878813916567,0.264
-0.023028644715752698,0.265
-0.017422587295018135,0.266
-0.011379451984491794,0.267
-0.005372715876077918,0.268
0.0005716115391667983,0.269
0.006365460120121408,0.27
0.011550961891376584,0.271
0.015405492725218824,0.272
0.017325814794265954,0.273
0.017185238361496834,0.274
0.015411003692263735,0.275
0.012722521314703104,0.276
0.009713010590186722,0.277
0.006580740518701179,0.278
0.0031914491811288527,0.279
-0.0005837541867823058,0.28
-0.004513121296000203,0.281
-0.007932845595949591,0.282
-0.010015963063763485,0.283
-0.010158130284836957,0.284
-0.0082533633687741,0.285
-0.004769353524496906,0.286
-0.000600349145345745,0.287
0.0032581947887943678,0.288
0.006041826060219208,0.289
0.007379743839101429,0.29
0.007266596444198294,0.291
0.0059267521007802595,0.292
0.0036773973742082523,0.293
0.0008706817771025511,0.294
-0.002083591521448767,0.295
-0.004683520375758526,0.296
-0.00639353364479212,0.297
-0.006837345708521273,0.298
-0.006012172457884006,0.299
-0.0043547659371477795,0.3
-0.002608139559666583,0.301
-0.001589323288233561,0.302
-0.001973211750301115,0.303
-0.004095073820291566,0.304
-0.00776926125300773,0.305
-0.012231222850637824,0.306
-0.016275229979312827,0.307
-0.018545893292027014,0.308
-0.017904824882320456,0.309
-0.01377044276500399,0.31
-0.006322496071063718,0.311
0.003505566980270372,0.312
0.014251120613350331,0.313
0.024237998038745545,0.314
0.031832237645478975,0.315
0.03567083523678404,0.316
0.03498809137001881,0.317
0.029938181510552473,0.318
0.02161982427530703,0.319
0.011720444719213272,0.32
0.0020150316137015627,0.321
-0.006051125080700827,0.322
-0.01161728634156723,0.323
-0.014477861368092721,0.324
-0.014992899292725775,0.325
-0.013888818356172053,0.326
-0.012008501206754021,0.327
-0.010107402059487073,0.328
-0.008745577002552567,0.329
-0.008219196728746133,0.33
-0.008489478921349755,0.331
-0.009161809077952934,0.332
-0.009591339566880623,0.333
-0.00912954910693388,0.334
-0.007418247012469152,0.335
-0.004572046498817544,0.336
-0.0011573360632708642,0.337
0.0020097702470347214,0.338
0.004160418184663657,0.339
0.004844035341545778,0.34
0.004058995589877155,0.341
0.0022005374787373313,0.342
-0.0001176753025820324,0.343
-0.002257427681695079,0.344
-0.003711384623491296,0.345
-0.004218692050820922,0.346
-0.0037663712338910768,0.347
-0.0024154226829480657,0.348
-7.023205762292226e-05,0.349
0.0035989870740837254,0.35
0.00894142982684699,0.351
0.015853289226005495,0.352
0.02332408731980177,0.353
0.02938926024770664,0.354
0.03165469941384254,0.355
0.02816303342553306,0.356
0.0182504873193665,0.357
0.003137287073271778,0.358
-0.01407007340849884,0.359
-0.02918431559813866,0.36
-0.038332374555141234,0.361
-0.03937463726504957,0.362
-0.032678279943543345,0.363
-0.020862156022319195,0.364
-0.0077145812043117,0.365
0.0031642267338753516,0.366
0.009455579251499672,0.367
0.01066961244329848,0.368
0.008108589440095862,0.369
0.0042318204261213846,0.37
0.0015583681384862109,0.371
0.0015929566016565455,0.372
0.0043084184050349895,0.373
0.008341893512076598,0.374
0.011676370455378116,0.375
0.01247505650058453,0.376
0.009773513525576009,0.377
0.003806738608600788,0.378
-0.004081223182786586,0.379
-0.0118430086764567,0.38
-0.017304929681145546,0.381
-0.01878060107266588,0.382
-0.015577138012483019,0.383
-0.008221523470837381,0.384
0.0016775827699945464,0.385
0.011864174964100459,0.386
0.020048079871572137,0.387
0.02452752324455908,0.388
0.024606867118473433,0.389
0.020707259800345205,0.39
0.014184493694264198,0.391
0.006875511420000542,0.392
0.0004723254746759987,0.393
-0.004004537542998683,0.394
-0.006380919205140208,0.395
-0.0071556299793606604,0.396
-0.007158649323175929,0.397
-0.007215622322608198,0.398
-0.00792961396413146,0.399
-0.009623788153266468,0.4
-0.012401795059935612,0.401
-0.016194737763026597,0.402
-0.02069874523543014,0.403
-0.025264842995478085,0.404
-0.02885860993846308,0.405
-0.0301376749268411,0.406
-0.02770578002684601,0.407
-0.02057804388794964,0.408
-0.008682902435709376,0.409
0.006848780986086658,0.41
0.023714632704281646,0.411
0.0388397697263374,0.412
0.049159578653523606,0.413
0.052595143707681036,0.414
0.04878387369913124,0.415
0.039145244111352485,0.416
0.026218774034956954,0.417
0.012651109283783246,0.418
0.0003801952500265524,0.419
-0.009663228742622277,0.42
-0.01735782112752089,0.421
-0.022907973536522065,0.422
-0.026400341503270402,0.423
-0.027702956538682617,0.424
-0.026700960246781525,0.425
-0.023569813710525463,0.426
-0.018843663475464855,0.427
-0.013278679421721649,0.428
-0.007630020217488023,0.429
-0.002413568129792012,0.43
0.002288627614354863,0.431
0.006817605639218394,0.432
0.011593675118330017,0.433
0.016596640272961784,0.434
0.02108262195775458,0.435
0.023811513376316023,0.436
0.023620971918892855,0.437
0.01996614726206355,0.438
0.013171908331380211,0.439
0.004368506672502307,0.44
-0.004807663706146395,0.441
-0.012722857773909739,0.442
-0.01832400697230673,0.443
-0.021397472323101074,0.444
-0.02232743761067551,0.445
-0.021661863556241896,0.446
-0.01985769918924219,0.447
-0.017224028666917968,0.448
-0.013890179475025296,0.449
-0.009795826719056844,0.45
-0.004827321074025601,0.451
0.0009238879734822621,0.452
0.006969479496516741,0.453
0.01247769395821898,0.454
0.016593103237588724,0.455
0.01882843285868087,0.456
0.019264801118451698,0.457
0.01845116861897686,0.458
0.017087809102958804,0.459
0.015651225623527425,0.46
0.014081443110280431,0.461
0.011692220781752105,0.462
0.007533364680660959,0.463
0.0011495990532818616,0.464
-0.006795334853384872,0.465
-0.014563031429655099,0.466
-0.020080346883169738,0.467
-0.02194359778872603,0.468
-0.020121057051555247,0.469
-0.01594215651936516,0.47
-0.01136888069724016,0.471
-0.007992653673429667,0.472
-0.006329516464047222,0.473
-0.005735084016509742,0.474
-0.0048995383666039834,0.475
-0.0026193835331862567,0.476
0.001573265091330351,0.477
0.007239010442916708,0.478
0.013304992944124029,0.479
0.018499233307139252,0.48
0.021705710294183996,0.481
0.02220381363033584,0.482
0.019830455511892633,0.483
0.015041797119534493,0.484
0.008814190717821028,0.485
0.0023913468720473284,0.486
-0.0030443571591994,0.487
-0.006700660907254154,0.488
-0.008406429838389226,0.489
-0.008626270978779195,0.49
-0.008227579907769105,0.491
-0.008074923774545358,0.492
-0.00861233311660517,0.493
-0.009670631664487308,0.494
-0.010630142887911156,0.495
-0.010819809109947396,0.496
-0.009916967882933463,0.497
-0.008118339362736813,0.498
-0.005967088489792852,0.499
-0.004001734956764272,0.5
-0.0025204583805077756,0.501
-0.001556514146469007,0.502
-0.0009462518633525833,0.503
-0.0003500548707576012,0.504
0.0007589652151467965,0.505
0.0030013238699734654,0.506
0.0068507866232115815,0.507
0.012313542657078468,0.508
0.018645718017554044,0.509
0.02437287715727505,0.51
0.027787522240132242,0.511
0.02762217906703425,0.512
0.023421025387400863,0.513
0.015554639327834569,0.514
0.005089885148818937,0.515
-0.006452185123428581,0.516
-0.01748019956709974,0.517
-0.02672969940491623,0.518
-0.03351013935994269,0.519
-0.037696180146332456,0.52
-0.03941442259231483,0.521
-0.0385684984430778,0.522
-0.03458379178459175,0.523
-0.026675290684545633,0.524
-0.014524237633280387,0.525
0.0010662031882177315,0.526
0.017967528687839816,0.527
0.03318828343097642,0.528
0.04381841069952863,0.529
0.04796594952957368,0.53
0.04526079651921701,0.531
0.03680489221677355,0.532
0.024727809490995952,0.533
0.011559551702777804,0.534
-0.00041856726255049367,0.535
-0.00964478304686558,0.536
-0.01543078577705725,0.537
-0.017850476654596454,0.538
-0.017514132702669175,0.539
-0.015351139665488484,0.54
-0.012434183429369972,0.541
-0.009801549443417372,0.542
-0.00820619331653961,0.543
-0.007809571615015893,0.544
-0.00802074526149887,0.545
-0.007669061536615626,0.546
-0.005501290432320397,0.547
-0.0008389315262175221,0.548
0.005919038980634031,0.549
0.013282641273075824,0.55
0.019189325361076065,0.551
0.021758399651477908,0.552
0.019913510115766867,0.553
0.013668820157107688,0.554
0.004049901027776463,0.555
-0.007274886288882828,0.556
-0.01846914535734497,0.557
-0.02788271720280977,0.558
-0.03418193695084291,0.559
-0.03634751353600744,0.56
-0.03372496107042914,0.561
-0.026225499891303915,0.562
-0.01457367919107468,0.563
-0.000390504307454102,0.564
0.014013278420740443,0.565
0.02615052174084657,0.566
0.03401938110521269,0.567
0.03653206311665299,0.568
0.033524235981228306,0.569
0.02561567188146627,0.57
0.014236026232497865,0.571
0.0017297445772913754,0.572
-0.008867595098491015,0.573
-0.01461029311947338,0.574
-0.013703734078635886,0.575
-0.006275588535704464,0.576
0.005514249923913785,0.577
0.018002105365586805,0.578
0.027052451224761784,0.579
0.02940421050324461,0.58
0.02384482662959754,0.581
0.01164709881690924,0.582
-0.003912633392212744,0.583
-0.01871240315366668,0.584
-0.02915047915070531,0.585
-0.033199110881759857,0.586
-0.03079030339606089,0.587
-0.023495250995640187,0.588
-0.01377694160577878,0.589
-0.004194450743887726,0.59
0.003217953827872658,0.591
0.007291439268133581,0.592
0.0077420392117190035,0.593
0.004980321148965084,0.594
-7.95764797809274e-05,0.595
-0.006144767176497454,0.596
-0.011780843681463248,0.597
-0.0158621406625249,0.598
-0.017974106202811545,0.599
-0.01842770864495575,0.6
-0.017861924585477817,0.601
-0.016688723953183576,0.602
-0.014694882539761188,0.603
-0.011050845301465705,0.604
-0.004726682650016406,0.605
0.004959696575712159,0.606
0.01788726393231425,0.607
0.0328372515402876,0.608
0.047503841179486805,0.609
0.058964579047751035,0.61
0.06445167722471379,0.611
0.06209454049040717,0.612
0.05148351264248138,0.613
0.03393108723610908,0.614
0.012230914688435107,0.615
-0.010056622164309633,0.616
-0.029508565711774563,0.617
-0.043617012341333986,0.618
-0.05122766505965878,0.619
-0.052575970240469776,0.62
-0.048945505582049444,0.621
-0.04208488341771123,0.622
-0.03363080907703479,0.623
-0.02473770303550544,0.624
-0.015990918570853156,0.625
-0.007580963764029889,0.626
0.00036294484380491036,0.627
0.007466449385673029,0.628
0.013035351357768682,0.629
0.016275075281903664,0.63
0.01668837502439914,0.631
0.014446084520215832,0.632
0.010499114500979161,0.633
0.006296951354875062,0.634
0.003263960636572491,0.635
0.002370077387525939,0.636
0.003981407069889542,0.637
0.007909309435459191,0.638
0.013437875973123094,0.639
0.019256625809017013,0.64
0.023548013178982245,0.641
0.024485808183430897,0.642
0.02100054714054804,0.643
0.013342992830987372,0.644
0.003072435884731215,0.645
-0.007514233656026948,0.646
-0.016202134515491084,0.647
-0.021573883374267102,0.648
-0.023345682364403174,0.649
-0.022236206164077604,0.65
-0.01952178648811531,0.651
-0.016477322802072734,0.652
-0.013847536838218466,0.653
-0.011569443617613678,0.654
-0.008982920274892774,0.655
-0.005466312819790531,0.656
-0.0010433034764765362,0.657
0.0035141445958723244,0.658
0.007179851404611332,0.659
0.009370010852514266,0.66
0.010240961589261962,0.661
0.010392458308439113,0.662
0.01038124124670246,0.663
0.010489136270085787,0.664
0.0107892945991327,0.665
0.011280771990214565,0.666
0.011871444224004052,0.667
0.012227417004283569,0.668
0.011720218457650842,0.669
0.009575447954694413,0.67
0.005119588601079935,0.671
-0.0018980104464169484,0.672
-0.010918442924443453,0.673
-0.0203972607866089,0.674
-0.02808595460301357,0.675
-0.03165877718749713,0.676
-0.02944007944427564,0.677
-0.02103655789611956,0.678
-0.007689236715523729,0.679
0.007835069574585582,0.68
0.021916068139955756,0.681
0.03116642398325031,0.682
0.033505672278959536,0.683
0.02880342500772074,0.684
0.018890152019862865,0.685
0.006869086857520304,0.686
-0.004097526279869744,0.687
-0.011933461391317174,0.688
-0.016134373465166985,0.689
-0.017492564966735857,0.69
-0.01732014512690202,0.691
-0.016566129000815284,0.692
-0.015281311266080993,0.693
-0.012720988345891748,0.694
-0.007983587161000076,0.695
-0.0007931053261290263,0.696
0.007967848153954701,0.697
0.016256103506311598,0.698
0.021546222453905018,0.699
0.02199285331969432,0.7
0.017406401361037417,0.701
0.009361973209644985,0.702
0.0003990019968461149,0.703
-0.007116363688594842,0.704
-0.011824837400261584,0.705
-0.013589096507254265,0.706
-0.013155667594917455,0.707
-0.01156634064771422,0.708
-0.009666548574690886,0.709
-0.007934746564281413,0.71
-0.0066088577379128976,0.711
-0.005852337849930805,0.712
-0.005739394582956863,0.713
-0.00608005108303228,0.714
-0.006237555570693289,0.715
-0.005105077557172116,0.716
-0.0013858569698221807,0.717
0.005808141950140459,0.718
0.016274782851386258,0.719
0.028366821884721068,0.72
0.03931384365026273,0.721
0.04625725893390424,0.722
0.04741103551092113,0.723
0.042481954781552034,0.724
0.032238259699756265,0.725
0.017945907640413025,0.726
0.001195808373845661,0.727
-0.0160247839914548,0.728
-0.03140712218406565,0.729
-0.042762354796347324,0.73
-0.04872965776193166,0.731
-0.04931537059824032,0.732
-0.04583870579858139,0.733
-0.04025390959528172,0.734
-0.03422123112983155,0.735
-0.028469296060626606,0.736
-0.02274309059462032,0.737
-0.01622493644157217,0.738
-0.00816317666420305,0.739
0.0015425186224098805,0.74
0.012006512677787155,0.741
0.021455127389268507,0.742
0.02780400959968235,0.743
0.029491260508600528,0.744
0.026261778029006828,0.745
0.019573559876181007,0.746
0.012210266804828332,0.747
0.007081365234712063,0.748
0.00593200404919108,0.749
0.008758308765357267,0.75
0.014040718710875647,0.751
0.019446217683802225,0.752
0.022727042135120574,0.753
0.02254810409079725,0.754
0.0188489352117537,0.755
0.012615440547068904,0.756
0.005359196420244413,0.757
-0.0013837135439013863,0.758
-0.006427337683958167,0.759
-0.00916636239280969,0.76
-0.009648004799917962,0.761
-0.008494033712841374,0.762
-0.0067235304448855174,0.763
-0.005508680907984449,0.764
-0.0058576104260925155,0.765
-0.00825862808210738,0.766
-0.012433813062523025,0.767
-0.017382042956738564,0.768
-0.021713414088349613,0.769
-0.024127933854964485,0.77
-0.023890853848566228,0.771
-0.021094612139373768,0.772
-0.016503616409478714,0.773
-0.01105167634371477,0.774
-0.005372735413677287,0.775
0.0002909712128178442,0.776
0.005834460100945283,0.777
0.010968328136972934,0.778
0.015062981369538405,0.779
0.017248669239411322,0.78
0.01671670586629265,0.781
0.013085487833258878,0.782
0.006694582046710921,0.783
-0.001291032424999075,0.784
-0.009013898575232028,0.785
-0.014223618128565266,0.786
-0.01470350838516286,0.787
-0.008849782149411256,0.788
0.0037215799074116736,0.789
0.02171727488848299,0.79
0.0418951466384771,0.791
0.05919253746281819,0.792
0.06784531796122638,0.793
0.06361465550474185,0.794
0.04593788818508098,0.795
0.018576656952171353,0.796
-0.011485301040805805,0.797
-0.03632251924506237,0.798
-0.04977947229017157,0.799
-0.04969602038238625,0.8
-0.038783023608906626,0.801
-0.02360556725439521,0.802
-0.011803249335021828,0.803
-0.008755220585435042,0.804
-0.015429402667822957,0.805
-0.028404798483167144,0.806
-0.04175749028415319,0.807
-0.04967050117041862,0.808
-0.04856292312554872,0.809
-0.03805214960159628,0.81
-0.020671856175491773,0.811
-0.000671835964901747,0.812
0.017564181109428464,0.813
0.030862792634887996,0.814
0.03783983410994714,0.815
0.03866876331143181,0.816
0.03449780103153846,0.817
0.02695872061462605,0.818
0.017881453811070196,0.819
0.009103318540066017,0.82
0.002254854829161646,0.821
-0.0014959033415646507,0.822
-0.0016853893053090001,0.823
0.0013161999553799526,0.824
0.006387608551731987,0.825
0.01191133373974964,0.826
0.01608437952777348,0.827
0.017346993527995003,0.828
0.014981997064573888,0.829
0.00960531938006214,0.83
0.0031229708447937823,0.831
-0.0020009406456093447,0.832
-0.00382904529430673,0.833
-0.001776315869587964,0.834
0.0032123162668087992,0.835
0.009058232143039344,0.836
0.013162944495861549,0.837
0.012995422324966234,0.838
0.006760186267437538,0.839
-0.005781465917742946,0.84
-0.022785273020584102,0.841
-0.040612087532399845,0.842
-0.054850488724897,0.843
-0.06157352977131327,0.844
-0.05837624493790066,0.845
-0.04495250380798818,0.846
-0.023120071066932934,0.847
0.0036821292166528924,0.848
0.031174464496267824,0.849
0.05494418813496327,0.85
0.07098592521289185,0.851
0.0762469816158428,0.852
0.06929640922299969,0.853
0.05097235970136009,0.854
0.024584770350665742,0.855
-0.00471016804109919,0.856
-0.0312534017088748,0.857
-0.050411681626115,0.858
-0.05969721091347189,0.859
-0.059062987837805676,0.86
-0.05037134635982336,0.861
-0.036427539722888994,0.862
-0.02005677343967057,0.863
-0.0035079466925462158,0.864
0.01175124816279174,0.865
0.0248383562022226,0.866
0.03494706259833719,0.867
0.04089613402600952,0.868
0.041259865643180973,0.869
0.03518064990804584,0.87
0.023252592756844697,0.871
0.007754055975087604,0.872
-0.007952923315801674,0.873
-0.02050749961099208,0.874
-0.027556692903132337,0.875
-0.02825373522877844,0.876
-0.023182318835677132,0.877
-0.01395480318808214,0.878
-0.002741354811705228,0.879
0.008209695330341448,0.88
0.017014778115837608,0.881
0.02239902629696587,0.882
0.023705245026857263,0.883
0.020847122566893264,0.884
0.014303148297207151,0.885
0.005081020284042562,0.886
-0.005382031859153049,0.887
-0.015425240602367279,0.888
-0.023519780389048235,0.889
-0.028615124894198277,0.89
-0.03029045080647665,0.891
-0.028745890380082684,0.892
-0.024737057004760726,0.893
-0.01941501065366984,0.894
-0.01395950308422492,0.895
-0.009087739354329182,0.896
-0.004766470980101295,0.897
-0.00035285222600509004,0.898
0.004982411689297313,0.899
0.011815006112193414,0.9
0.020034327396580273,0.901
0.028397272669981963,0.902
0.034411924591518525,0.903
0.03506018349847166,0.904
0.028308171116078314,0.905
0.014570054512679537,0.906
-0.002760844180952658,0.907
-0.0179832602306931,0.908
-0.024729843281337677,0.909
-0.018081813182392586,0.91
0.003490704719499018,0.911
0.036846279753292424,0.912
0.07390625728356652,0.913
0.10302680017818422,0.914
0.11246178185954761,0.915
0.09498077989912876,0.916
0.0512942163800751,0.917
-0.009646566804925578,0.918
-0.0736465643542346,0.919
-0.12614299592498399,0.92
-0.15673411444661695,0.921
-0.16156436113898892,0.922
-0.1431298716787648,0.923
-0.10828185005872505,0.924
-0.06561851986973001,0.925
-0.023188339710898523,0.926
0.013035976901558905,0.927
0.03984742991127826,0.928
0.056720665459643826,0.929
0.0650568120204624,0.93
0.06709470170736015,0.931
0.06491716492683489,0.932
0.059825643660529865,0.933
0.05224792416721495,0.934
0.04217438521550589,0.935
0.02977503068491291,0.936
0.01579755762604369,0.937
0.0016265270944086057,0.938
-0.01096108220303192,0.939
-0.020219017638894377,0.94
-0.024852162211414838,0.941
-0.024306617847253763,0.942
-0.0188708149055687,0.943
-0.009626458317082054,0.944
0.0016850602694579177,0.945
0.012870134129083076,0.946
0.021589704159119018,0.947
0.025834541431789513,0.948
0.024523357548304914,0.949
0.017898520328878387,0.95
0.007451634141282693,0.951
-0.004523470750426251,0.952
-0.015562227303875789,0.953
-0.023683084696912705,0.954
-0.027809623720503444,0.955
-0.02783337687797701,0.956
-0.024434924453862316,0.957
-0.018812661323211226,0.958
-0.012342865927449174,0.959
-0.006180721369197704,0.96
-0.000961037153707748,0.961
0.003257741110944603,0.962
0.006830923826254633,0.963
0.010221759449279205,0.964
0.013637452977376072,0.965
0.016790780134131923,0.966
0.01903019977931315,0.967
0.019747110808588573,0.968
0.01857408406432962,0.969
0.015258351092135285,0.97
0.009619545293232203,0.971
0.0017371995177640099,0.972
-0.00784272635594352,0.973
-0.017983707207987518,0.974
-0.02700332284520112,0.975
-0.033042649162427155,0.976
-0.03462748565537033,0.977
-0.03108055331191094,0.978
-0.022701769181972475,0.979
-0.010800553249770244,0.98
0.002495152662571229,0.981
0.014755494445726727,0.982
0.02394457181671819,0.983
0.02893628346266158,0.984
0.029600825399370593,0.985
0.02656205138542499,0.986
0.020916026434739828,0.987
0.014014430937203833,0.988
0.0071871140489334845,0.989
0.00142350724362887,0.99
-0.0027910756355088093,0.991
-0.005484420167572568,0.992
-0.007155517055119914,0.993
-0.008609145846335332,0.994
-0.010611457540136359,0.995
-0.013507533169628102,0.996
-0.016989279579763098,0.997
-0.020109236269543748,0.998
-0.021570729789987825,0.999
-0.02024352538694976,1.0
-0.015677076285790324,1.001
-0.008362901740179951,1.002
0.0003445054285487522,1.003
0.008653983405416841,1.004
0.014998959832677721,1.005
0.018594672831388666,1.006
0.01953731639096325,1.007
0.018442542000659038,1.008
0.015934365258335286,1.009
0.01231777605121491,1.01
0.007632532545406238,1.011
0.001997991247100869,1.012
-0.004065773349025266,1.013
-0.00956799910905618,1.014
-0.013223251386931258,1.015
-0.013702067697104485,1.016
-0.009837601192616792,1.017
-0.0008607741184033951,1.018
0.013224156710385853,1.019
0.031130602286993707,1.02
0.04984779532492047,1.021
0.06470380316691918,1.022
0.07035173815398219,1.023
0.0626023355320948,1.024
0.04027846004860479,1.025
0.0059685492165176615,1.026
-0.034630295478551426,1.027
-0.07409225779973524,1.028
-0.10481223092132941,1.029
-0.1206454325355637,1.03
-0.11842370078481289,1.031
-0.09886554819570277,1.032
-0.06645731714325827,1.033
-0.028277180979491636,1.034
0.007852818474316283,1.035
0.03534445454064124,1.036
0.05039488463530215,1.037
0.0526392424854422,1.038
0.044772989219871336,1.039
0.031407116175186794,1.04
0.017549203653618367,1.041
0.007228572277845784,1.042
0.0027967014772081076,1.043
0.00493615376254347,1.044
0.012928322022856554,1.045
0.02483257615284902,1.046
0.03769095510782836,1.047
0.04808254094019137,1.048
0.05299853558461798,1.049
0.05059407494749547,1.05
0.04047373861782596,1.051
0.023558345474755677,1.052
0.0017951514050590098,1.053
-0.02202086269594019,1.054
-0.04427156828315739,1.055
-0.060717385915098905,1.056
-0.06720256772350768,1.057
-0.06075418206022418,1.058
-0.04066695942413918,1.059
-0.009254112585321946,1.06
0.027813271394451975,1.061
0.06179120929938292,1.062
0.08252877427788832,1.063
0.08193460839782205,1.064
0.05779351213266402,1.065
0.015354436583218306,1.066
-0.03432677897445592,1.067
-0.07814808226327517,1.068
-0.10506639834425276,1.069
-0.10905307064129764,1.07
-0.09009887567298244,1.071
-0.05346033772487813,1.072
-0.007915273378934426,1.073
0.03624420211299147,1.074
0.06917191986494743,1.075
0.08352466126636239,1.076
0.0765406382625283,1.077
0.05115941166112444,1.078
0.015171978366533737,1.079
-0.02136170296467048,1.08
-0.049252553515872946,1.081
-0.06265829329781505,1.082
-0.06015228075282819,1.083
-0.04434987312412997,1.084
-0.02055145145633493,1.085
0.005011966348334517,1.086
0.026836697331473123,1.087
0.041304055601488546,1.088
0.04709762504895648,1.089
0.04494473887219645,1.09
0.03688314796351805,1.091
0.025332314414429468,1.092
0.012404274563271806,1.093
-0.00027381632924021866,1.094
-0.011377814356042033,1.095
-0.01967779141823519,1.096
-0.024041805887756486,1.097
-0.023740577332920548,1.098
-0.018900438908601006,1.099
-0.010726200033402194,1.1
-0.0012139929293743877,1.101
0.00754986240131802,1.102
0.014101025598832374,1.103
0.017924666881589214,1.104
0.01931876456251208,1.105
0.018987735529119,1.106
0.01759501362430963,1.107
0.01548068536938133,1.108
0.01264513454912971,1.109
0.008930503187321645,1.11
0.004277351551165412,1.111
-0.0010929880674487378,1.112
-0.00665677820339848,1.113
-0.01166654036517258,1.114
-0.015307604541087563,1.115
-0.01697846872997163,1.116
-0.01661919971661336,1.117
-0.014862755183300106,1.118
-0.01281304101921766,1.119
-0.011507718711882376,1.12
-0.011422530707270517,1.121
-0.012372387165552647,1.122
-0.013778863754680865,1.123
-0.014960567410907183,1.124
-0.015256018151183461,1.125
-0.014115730333256169,1.126
-0.011287255729440254,1.127
-0.006968549306061708,1.128
-0.0017682978447862055,1.129
0.0035005959994348678,1.13
0.008036867478948861,1.131
0.011191288653755536,1.132
0.012580125143559247,1.133
0.012201227843059716,1.134
0.010449789164928407,1.135
0.007936372620524962,1.136
0.005241570299852465,1.137
0.002842414294359528,1.138
0.0012363865748236213,1.139
0.0010646280913385795,1.14
0.003048116797707438,1.141
0.007749138192012055,1.142
0.015276869377676795,1.143
0.025015786562313003,1.144
0.035436459896044166,1.145
0.044107262821625866,1.146
0.048096370051490284,1.147
0.044839913874420434,1.148
0.03323517220129808,1.149
0.01441752131503049,1.15
-0.00833775892072757,1.151
-0.030677797591168687,1.152
-0.048627127459190136,1.153
-0.059649753061263945,1.154
-0.06296147292149966,1.155
-0.0592779110647032,1.156
-0.050292012046085244,1.157
-0.03809692508258019,1.158
-0.024746923419587334,1.159
-0.01200523841028545,1.16
-0.00122651726839289,1.161
0.006691890135017113,1.162
0.011388962267311805,1.163
0.01313215595024442,1.164
0.012772421772526877,1.165
0.011497918158300187,1.166
0.010494166362379122,1.167
0.010652120826102531,1.168
0.012366732683348368,1.169
0.015432837513843887,1.17
0.019081320330056873,1.171
0.022184666076713933,1.172
0.02360780167918595,1.173
0.02262706412923948,1.174
0.01923816064577551,1.175
0.014116312254274567,1.176
0.008218252069630427,1.177
0.002350840449867059,1.178
-0.0029638650019995975,1.179
-0.007347897894324886,1.18
-0.010437389649984063,1.181
-0.011922263593251882,1.182
-0.011682352106991728,1.183
-0.009878684816526472,1.184
-0.006918373384155509,1.185
-0.0033718029794392135,1.186
5.304928090080334e-05,1.187
0.0025583337848464204,1.188
0.0034379233053732218,1.189
0.0023266386634588536,1.19
-0.0006123431825842627,1.191
-0.004632668967031628,1.192
-0.00856440793584283,1.193
-0.011190000310415076,1.194
-0.01165833713358187,1.195
-0.00976239771960185,1.196
-0.006005400424353125,1.197
-0.0014224994211291901,1.198
0.0027887957457583316,1.199
0.0056514577724239845,1.2
0.00663735603471833,1.201
0.005720183060809057,1.202
0.0033038419473157515,1.203
7.682015444956293e-05,1.204
-0.0031555523437207357,1.205
-0.00565396094863577,1.206
-0.00693386861821202,1.207
-0.006868039564162714,1.208
-0.005617853043100153,1.209
-0.003454573787013785,1.21
-0.0006230632878965036,1.211
0.0026613719613753123,1.212
0.006105729241968218,1.213
0.009263136928558386,1.214
0.011627298741145887,1.215
0.012834768338950822,1.216
0.012778604143899145,1.217
0.011554044690880618,1.218
0.00932057312150533,1.219
0.006195769270572136,1.22
0.0022685113470228583,1.221
-0.0022666247729286604,1.222
-0.006999760352159969,1.223
-0.011366745144638937,1.224
-0.014839853261940499,1.225
-0.017063197300176004,1.226
-0.01780671002041477,1.227
-0.01681438628854087,1.228
-0.013750529070272056,1.229
-0.008365002542159203,1.23
-0.0008143563669962133,1.231
0.008049718372238982,1.232
0.016646498988065025,1.233
0.0230199462734488,1.234
0.025506711191833436,1.235
0.02343259553933286,1.236
0.017445124704758425,1.237
0.009221504136927804,1.238
0.0007167205171282965,1.239
-0.0065322793037221015,1.24
-0.011702834775539014,1.241
-0.014639247169536419,1.242
-0.015621601285309207,1.243
-0.015057783807891611,1.244
-0.013241803669983676,1.245
-0.010307117749815731,1.246
-0.006358957650174893,1.247
-0.0016596242015603205,1.248
0.0032532912677927157,1.249
0.007594748347603847,1.25
0.010536754794917185,1.251
0.011505014094446351,1.252
0.010348958684022157,1.253
0.007271555213419492,1.254
0.0027140218169795457,1.255
-0.002601313815846482,1.256
-0.007610666484882628,1.257
-0.01108623657364242,1.258
-0.01203134512888217,1.259
-0.010055827628259522,1.26
-0.005534833690598429,1.261
0.0005083246621042193,1.262
0.006729049674716043,1.263
0.011842915710395871,1.264
0.014897255089854384,1.265
0.015393178233419454,1.266
0.013318613439525433,1.267
0.009095829248342537,1.268
0.0034238937384924472,1.269
-0.002913685702133711,1.27
-0.00914374787689944,1.271
-0.014471739324092915,1.272
-0.018080311870932012,1.273
-0.01927230321188544,1.274
-0.017673726343752857,1.275
-0.013383182966025229,1.276
-0.007035440797800215,1.277
0.00024488077232776023,1.278
0.007060406714252789,1.279
0.012134031993552882,1.28
0.01472145562618476,1.281
0.01481323668799484,1.282
0.013010511202950435,1.283
0.010159311091596809,1.284
0.006984790566276532,1.285
0.003938836219850121,1.286
0.0012610250392514507,1.287
-0.000905506653960733,1.288
-0.0024558501209906328,1.289
-0.003326581831734851,1.29
-0.0035283672173530983,1.291
-0.0031712217470310153,1.292
-0.0024608735297354327,1.293
-0.0016842573523962155,1.294
-0.0011822833293983483,1.295
-0.0012732504595544963,1.296
-0.0021504229002619127,1.297
-0.003826942149431097,1.298
-0.006112002441596979,1.299
-0.008528474945255023,1.3
-0.010216880402363267,1.301
-0.010053905746373819,1.302
-0.007138240343235999,1.303
-0.0014477158049204658,1.304
0.0058083932317345936,1.305
0.012508292951104798,1.306
0.016522731125054015,1.307
0.01665935416558088,1.308
0.013049826688878689,1.309
0.006847418516063279,1.31
-0.000402984546559701,1.311
-0.0072854163789387045,1.312
-0.012745582466873429,1.313
-0.016098554068673356,1.314
-0.01694295602095666,1.315
-0.015111170449408701,1.316
-0.010715682427125964,1.317
-0.004233284871170469,1.318
0.0034533123733899583,1.319
0.011100422950744282,1.32
0.017280697474044114,1.321
0.020752805513230225,1.322
0.020947344038800404,1.323
0.018220824487857452,1.324
0.013624175494384265,1.325
0.008403524723521398,1.326
0.00358807527989256,1.327
-0.00020931377825386327,1.328
-0.0027968899646422293,1.329
-0.004311501353152051,1.33
-0.0051529928369152805,1.331
-0.005945105780288162,1.332
-0.007403398163111554,1.333
-0.010020678382144144,1.334
-0.013692416488341373,1.335
-0.01758526333795158,1.336
-0.020396367728033073,1.337
-0.0208702208321192,1.338
-0.018323875258414536,1.339
-0.012933577075226473,1.34
-0.0056500771472292564,1.341
0.002184755719680049,1.342
0.009273938151018415,1.343
0.014619725390323742,1.344
0.017588431848649198,1.345
0.017936822418361656,1.346
0.015867577012598735,1.347
0.012026170855385309,1.348
0.007344081298999276,1.349
0.0027743778547576372,1.35
-0.0009468315597643747,1.351
-0.0034115594270047647,1.352
-0.004509969887638356,1.353
-0.00433515344122006,1.354
-0.003110220179006819,1.355
-0.0011654389179557919,1.356
0.0010746886499258537,1.357
0.003145705825604313,1.358
0.0046323284300550166,1.359
0.005249770467778963,1.36
0.004894420329190195,1.361
0.0036584001385593866,1.362
0.0017927458085219667,1.363
-0.00037193442281900386,1.364
-0.002489182651907564,1.365
-0.004230100054945635,1.366
-0.005339534156773695,1.367
-0.005720382297972736,1.368
-0.005477498345623388,1.369
-0.004875632091668831,1.37
-0.0042585149396217785,1.371
-0.003981062241609838,1.372
-0.004306552709784531,1.373
-0.005238448046151819,1.374
-0.006382761813738427,1.375
-0.006979512355539896,1.376
-0.006161543315031063,1.377
-0.0033548934093188755,1.378
0.0013607701403642928,1.379
0.007126201569964672,1.38
0.012531425689631663,1.381
0.016137866091668996,1.382
0.017035535297623874,1.383
0.015131089437629142,1.384
0.011072081699207044,1.385
0.0059403880751171135,1.386
0.0008650822916621316,1.387
-0.0032947202936047925,1.388
-0.006059805653796565,1.389
-0.0072637609250599195,1.39
-0.006964136348639779,1.391
-0.005442815029395759,1.392
-0.0032683957367626035,1.393
-0.0012699177170425755,1.394
-0.00031015215454720707,1.395
-0.0009259741179841873,1.396
-0.003043921624606106,1.397
-0.005976486883339174,1.398
-0.008732231153238524,1.399
-0.01042632882805786,1.4
-0.010523002979669429,1.401
-0.00885497253473232,1.402
-0.005562665636571813,1.403
-0.0010681809914462226,1.404
0.003942406870267287,1.405
0.008598516312243168,1.406
0.01198953138334656,1.407
0.013352220748863724,1.408
0.012301258438666087,1.409
0.009042666785443888,1.41
0.004397065881161087,1.411
-0.0004694074078023133,1.412
-0.004455644474817047,1.413
-0.006837499993376623,1.414
-0.00738747453800588,1.415
-0.0063254691785870325,1.416
-0.0041455765321826675,1.417
-0.0014145857296466353,1.418
0.0013380323749531853,1.419
0.003640725033169558,1.42
0.005133284452253017,1.421
0.005693960579874398,1.422
0.0055066173132500874,1.423
0.004942131684186333,1.424
0.0043301361427296025,1.425
0.0038009617402821063,1.426
0.0032777781815499334,1.427
0.0025795282770417565,1.428
0.0015530536950076831,1.429
0.00015784685137037517,1.43
-0.0015337761288680206,1.431
-0.0033928538287812606,1.432
-0.005288615719141729,1.433
-0.007108435568468631,1.434
-0.008718893968097882,1.435
-0.009887453974766197,1.436
-0.010269731159685096,1.437
-0.009540921791808446,1.438
-0.007615996682398536,1.439
-0.004800629572300054,1.44
-0.0017232090381158827,1.441
0.0009613882706206636,1.442
0.0029084389195415646,1.443
0.004200325900971864,1.444
0.005150986847324392,1.445
0.005984574817858725,1.446
0.006684023437259924,1.447
0.007086321234278677,1.448
0.00703536255741797,1.449
0.006462694977419815,1.45
0.005432531944962905,1.451
0.004156027654939822,1.452
0.0029353615962450282,1.453
0.0020411795573594344,1.454
0.001561313091831644,1.455
0.0013121189740863608,1.456
0.0009051749087869565,1.457
-6.138675605526074e-05,1.458
-0.0018131892116253058,1.459
-0.004309051689047539,1.46
-0.0072516319040547145,1.461
-0.010137234078231246,1.462
-0.012328796926578069,1.463
-0.013202304000987972,1.464
-0.012345660600862847,1.465
-0.009685433507016592,1.466
-0.005478382957269427,1.467
-0.00021007070733139178,1.468
0.005556181110151436,1.469
0.011307252326715235,1.47
0.016577707537645526,1.471
0.020827525216639595,1.472
0.023351323965781528,1.473
0.02336661776144996,1.474
0.020305851839735538,1.475
0.014178884366745784,1.476
0.0057619371444634256,1.477
-0.0035529313865276845,1.478
-0.012155503507709981,1.479
-0.018648793847791084,1.48
-0.02217660555488063,1.481
-0.022574216019739766,1.482
-0.020322526155442798,1.483
-0.016355015777887442,1.484
-0.011793250005620586,1.485
-0.007653994245336648,1.486
-0.004577606674260977,1.487
-0.0026812539465335297,1.488
-0.001600033313562412,1.489
-0.000698453442660602,1.49
0.0006325697844432489,1.491
0.0027536288616291436,1.492
0.0057194950334223905,1.493
0.009287468195403003,1.494
0.0128809395835918,1.495
0.015608933553881628,1.496
0.01652525296735664,1.497
0.015057422062063555,1.498
0.01130590241355621,1.499
0.0060327416681452,1.5
0.0003828008638125262,1.501
-0.004527364311143755,1.502
-0.007984777074548281,1.503
-0.009855878141937063,1.504
-0.010478838678157814,1.505
-0.010326339139194044,1.506
-0.009654933606908795,1.507
-0.008389908091146576,1.508
-0.006290862271703606,1.509
-0.0032302345553303293,1.51
0.0005905899403216106,1.511
0.0045870426515768606,1.512
0.007946210683436707,1.513
0.009936695539207377,1.514
0.010198405987193687,1.515
0.008853594748189291,1.516
0.006426077373809758,1.517
0.0036512649216688116,1.518
0.0012414103132486712,1.519
-0.000353558799178794,1.52
-0.0010809217254673517,1.521
-0.001194959180677343,1.522
-0.0010201137584825942,1.523
-0.0007842694607945534,1.524
-0.0006084978786531552,1.525
-0.0005816090348183786,1.526
-0.0008217548499897982,1.527
-0.001457377714068847,1.528
-0.0025217939348313578,1.529
-0.0038522473772749613,1.53
-0.005105702681407577,1.531
-0.005883451746859031,1.532
-0.0058737945800753,1.533
-0.004977490535386906,1.534
-0.0033883399531292402,1.535
-0.001547203104074143,1.536
3.599463020843405e-05,1.537
0.0009583022542728532,1.538
0.0009979439687306418,1.539
0.00014433575413328243,1.54
-0.0013445210965948291,1.541
-0.0029140809881130097,1.542
-0.0038335079927579673,1.543
-0.0034905518359405444,1.544
-0.0017107910329954166,1.545
0.0011085532671085546,1.546
0.0041362809771162915,1.547
0.006445793729043323,1.548
0.007382930866272179,1.549
0.006796561821801164,1.55
0.005071604372330464,1.551
0.002956618624041251,1.552
0.0012179273446715805,1.553
0.0002994440864683073,1.554
0.00020242923161479325,1.555
0.0006321458284535847,1.556
0.001269945498834614,1.557
0.0019453436966507974,1.558
0.0026115615973054535,1.559
0.003219622789985942,1.56
0.003627267224496534,1.561
0.003627056493296145,1.562
0.0030769150032536018,1.563
0.0020193101691399237,1.564
0.0006761350623504119,1.565
-0.0006864585340184403,1.566
-0.0019013406191314168,1.567
-0.0029391004847299043,1.568
-0.003852612389565528,1.569
-0.0046923388439305555,1.57
-0.005442920780074993,1.571
-0.006020626187581364,1.572
-0.006320386658155516,1.573
-0.006259919837599967,1.574
-0.005813779619269481,1.575
-0.005070251217024828,1.576
-0.004286539043802058,1.577
-0.0038219306738370706,1.578
-0.003897681891762716,1.579
-0.004374646603206271,1.58
-0.00477105311431775,1.581
-0.004477676541468713,1.582
-0.0030013021184491086,1.583
-0.00016907027114242262,1.584
0.0037488581733673165,1.585
0.0080762157042882,1.586
0.011942191494605028,1.587
0.01458110867471657,1.588
0.015571420641091733,1.589
0.014895037664442543,1.59
0.012817619749813484,1.591
0.009683848128384805,1.592
0.0057543801957975,1.593
0.0011915197997860558,1.594
-0.003812727452673749,1.595
-0.008883504578062215,1.596
-0.013403436616052844,1.597
-0.016596144164759886,1.598
-0.01771594397154786,1.599
-0.01626959088436155,1.6
-0.012202465816385741,1.601
-0.00598251265691717,1.602
0.001447265105019735,1.603
0.008827087022213171,1.604
0.014827823501380781,1.605
0.01836860062233199,1.606
0.01891849803832308,1.607
0.016629850190519137,1.608
0.012226383480038908,1.609
0.006722685782026994,1.61
0.0011075687193766919,1.611
-0.003910575334000246,1.612
-0.008017927622484659,1.613
-0.011228342824655152,1.614
-0.013688813021992744,1.615
-0.015472971690777144,1.616
-0.01645998186523071,1.617
-0.016335147205740166,1.618
-0.014695042936310897,1.619
-0.011218426088076739,1.62
-0.005865701937369745,1.621
0.0009470158070417461,1.622
0.008294892357833974,1.623
0.014905931400918218,1.624
0.019523894232569422,1.625
0.021298379666362457,1.626
0.019987174254764505,1.627
0.01592332570124586,1.628
0.009869377456120905,1.629
0.002836517824954833,1.63
-0.004130442382198369,1.631
-0.01013895469031889,1.632
-0.014538347299374085,1.633
-0.01692620097321437,1.634
-0.017117139374175926,1.635
-0.01513667783793003,1.636
-0.011263411969238676,1.637
-0.006054145192804991,1.638
-0.0002734058294027983,1.639
0.005266460425785455,1.64
0.009835933540606965,1.641
0.012812056829069624,1.642
0.01369330818244999,1.643
0.012221535827219476,1.644
0.008583998974370158,1.645
0.003550119871478012,1.646
-0.0016342266061170304,1.647
-0.005637936300918169,1.648
-0.0075248027250903494,1.649
-0.007047569385108153,1.65
-0.0046339949526574544,1.651
-0.0011443077122517142,1.652
0.002428218488899375,1.653
0.005206345340428603,1.654
0.006612730253836205,1.655
0.006466699961502616,1.656
0.004963721620818342,1.657
0.002554495146064856,1.658
-0.0002215020139042504,1.659
-0.0028842362537780694,1.66
-0.005093217902716795,1.661
-0.006644465692794423,1.662
-0.007417712460094772,1.663
-0.007335830197334971,1.664
-0.006379416709234367,1.665
-0.004646889544892778,1.666
-0.002409817431940743,1.667
-0.00010744631927009444,1.668
0.0017652674397242358,1.669
0.0028573257068072104,1.67
0.00312014431643569,1.671
0.002793739670434695,1.672
0.0022336615955127225,1.673
0.0017218340849779834,1.674
0.0013898137874937468,1.675
0.0012471769389783547,1.676
0.0012192958753842703,1.677
0.0011704408454753688,1.678
0.0009652619599624633,1.679
0.0005665004734320476,1.68
9.439044525765854e-05,1.681
-0.00020634563890923463,1.682
-6.531284753587792e-05,1.683
0.0007074000976719576,1.684
0.00212877252294217,1.685
0.003969068637594314,1.686
0.005726177784021214,1.687
0.0067059013834095795,1.688
0.006233700394311113,1.689
0.003926759556136299,1.69
-0.00010872319862657338,1.691
-0.005270171614245543,1.692
-0.010637039602440708,1.693
-0.015203719027916923,1.694
-0.018047009047819456,1.695
-0.018428458442094568,1.696
-0.015911915948615834,1.697
-0.010512485840445094,1.698
-0.0027987604518328883,1.699
0.006109975882021384,1.7
0.014681613237837985,1.701
0.021275573684966933,1.702
0.024575243758404603,1.703
0.023996151863358652,1.704
0.019868263652038854,1.705
0.013288721143542827,1.706
0.005723703808461893,1.707
-0.0014422852347552436,1.708
-0.007209326783940269,1.709
-0.011036647064293215,1.71
-0.01276412056796694,1.711
-0.012502848015794323,1.712
-0.01055710907407508,1.713
-0.007379893858800966,1.714
-0.0035446130441438633,1.715
0.0002989730742257273,1.716
0.0035077483501126,1.717
0.005533190325162341,1.718
0.0059828841771872405,1.719
0.004679592925774706,1.72
0.0017140680987108752,1.721
-0.0025529624819325197,1.722
-0.0075450443410409514,1.723
-0.012543337957611918,1.724
-0.016745198385347708,1.725
-0.019318468535066954,1.726
-0.019512071323277348,1.727
-0.016848995062529168,1.728
-0.011326035917904523,1.729
-0.0035189958716834177,1.73
0.005447532595861123,1.731
0.014080166529388915,1.732
0.02086167512401127,1.733
0.02469415586611921,1.734
0.025237097441848346,1.735
0.022934185683423442,1.736
0.01873119605997316,1.737
0.0136965797889088,1.738
0.008742748550428997,1.739
0.004484472174073169,1.74
0.0011792953038850965,1.741
-0.0012564020474929631,1.742
-0.003122410172847739,1.743
-0.004750721709173856,1.744
-0.006366954917469232,1.745
-0.008044819044962787,1.746
-0.009750670075156363,1.747
-0.011423120491084874,1.748
-0.012988167547186269,1.749
-0.014298755516539847,1.75
-0.015097436142468185,1.751
-0.015050673873764277,1.752
-0.013825725957000365,1.753
-0.011189675645536901,1.754
-0.007111671898906839,1.755
-0.0018342634666409258,1.756
0.004117904526098497,1.757
0.010003887923431185,1.758
0.01498374586207084,1.759
0.018266407634742785,1.76
0.01928620139281865,1.761
0.017863601177332777,1.762
0.01427160746908644,1.763
0.00917996683693113,1.764
0.003503292204004818,1.765
-0.0018015375982302826,1.766
-0.005937775742759039,1.767
-0.008421015036272142,1.768
-0.009136166493811323,1.769
-0.008309263302454547,1.77
-0.006439287487215376,1.771
-0.0041886336282209126,1.772
-0.002226734466542093,1.773
-0.0010698177779732993,1.774
-0.0009650767032461814,1.775
-0.0018462915008331088,1.776
-0.0033643961649746966,1.777
-0.004965706753574138,1.778
-0.006013613798942798,1.779
-0.005977341129993032,1.78
-0.004622764546641908,1.781
-0.0020833013373336862,1.782
0.0012162075794783225,1.783
0.004703936718950783,1.784
0.0077770051182383705,1.785
0.009874620203932294,1.786
0.01058186993658788,1.787
0.009788862922173994,1.788
0.007790075978773915,1.789
0.0051903835375384615,1.79
0.002667730759320177,1.791
0.0007555617865120931,1.792
-0.000280615840449131,1.793
-0.0004713156566802232,1.794
-8.185280397756054e-05,1.795
0.0005154180927176571,1.796
0.0009774843733768774,1.797
0.0010609171353097955,1.798
0.000619153903061315,1.799
-0.000413945385532745,1.8
-0.002028024142886399,1.801
-0.0041420402077456675,1.802
-0.006608923794284872,1.803
-0.009201351130314029,1.804
-0.011588494367048313,1.805
-0.013346318213108745,1.806
-0.014033201134702416,1.807
-0.013311938881639077,1.808
-0.011061192731271189,1.809
-0.00741777007002095,1.81
-0.002736118054602679,1.811
0.0024850311938488905,1.812
0.007668708769362957,1.813
0.01221903142402697,1.814
0.015582740951241238,1.815
0.017341475926608632,1.816
0.017330675353658558,1.817
0.01569601562980791,1.818
0.012820860181821783,1.819
0.009176058251943899,1.82
0.005189211947635655,1.821
0.0011759687783136333,1.822
-0.0026671443307841737,1.823
-0.006211043065935254,1.824
-0.009309166833047564,1.825
-0.011741998286941708,1.826
-0.013236326468750545,1.827
-0.01354223573995619,1.828
-0.012520215506309114,1.829
-0.01019682436363405,1.83
-0.006775478485105527,1.831
-0.002620436215329495,1.832
0.001779365168306828,1.833
0.005877008956404457,1.834
0.009160828030777505,1.835
0.01125413073835047,1.836
0.011991828706230999,1.837
0.011443699751452981,1.838
0.009873361247450715,1.839
0.007639527337365068,1.84
0.005065132215771772,1.841
0.0023505485574844987,1.842
-0.0004033824136304759,1.843
-0.0031103748758364758,1.844
-0.0056408978805234196,1.845
-0.007810061469802886,1.846
-0.009395409964179854,1.847
-0.010182696618003294,1.848
-0.010033176236314004,1.849
-0.008944243794326822,1.85
-0.007069640595017044,1.851
-0.004695225345185261,1.852
-0.002179204791190782,1.853
0.00013529484016085324,1.854
0.0019973762421645687,1.855
0.003295734198451736,1.856
0.004085836862460124,1.857
0.004561423721481298,1.858
0.004940869709813189,1.859
0.0053221776511747105,1.86
0.005605941146559769,1.861
0.005555643831971542,1.862
0.004963688573486097,1.863
0.003800618362818342,1.864
0.002248611606976292,1.865
0.0006175622105240468,1.866
-0.0007854183813588181,1.867
-0.0017532864564081898,1.868
-0.002210872830946181,1.869
-0.002193912860829729,1.87
-0.0018044360544809802,1.871
-0.0011772402946501547,1.872
-0.0004737778669210299,1.873
0.00012181975978076964,1.874
0.0004485231195618017,1.875
0.0004403388917498083,1.876
0.00014597877111910832,1.877
-0.0003236578170164982,1.878
-0.0008593771117787379,1.879
-0.0013875758771450231,1.88
-0.0018761662402421908,1.881
-0.0023170477429221947,1.882
-0.002692379282303903,1.883
-0.0029536208941028166,1.884
-0.0030338825905930514,1.885
-0.0028777294698944943,1.886
-0.002465898865005145,1.887
-0.0018235333536031956,1.888
-0.0010022998285973699,1.889
-3.840299556332162e-05,1.89
0.0010743356811927169,1.891
0.0023465245941823457,1.892
0.00370980583109716,1.893
0.0049641693230850275,1.894
0.005803386195322742,1.895
0.005910305194334856,1.896
0.005075766279458136,1.897
0.0032978672330991375,1.898
0.0008345653034859159,1.899
-0.0018257382840077957,1.9
-0.004095992658293303,1.901
-0.0054822138108590575,1.902
-0.005729713464925081,1.903
-0.004847234144081098,1.904
-0.0030501960040936384,1.905
-0.000701591806358032,1.906
0.0017415781356489351,1.907
0.0038020082632741078,1.908
0.005075448570049129,1.909
0.005312139861753861,1.91
0.004457233928526411,1.911
0.0026701333329090123,1.912
0.00032904183488841613,1.913
-0.002048615976251947,1.914
-0.003978871251934817,1.915
-0.005158693354960411,1.916
-0.005501195253042235,1.917
-0.005083094286953338,1.918
-0.004058750986941529,1.919
-0.0025841750904049025,1.92
-0.0008015143890819522,1.921
0.0011139758024611294,1.922
0.0029176154869044054,1.923
0.004324275760319378,1.924
0.005095697243763831,1.925
0.00513418794003241,1.926
0.004510787632425851,1.927
0.0034177516344096044,1.928
0.0021039417030452165,1.929
0.0008228249140807369,1.93
-0.00022260994315900556,1.931
-0.0009394075789801189,1.932
-0.001376839234295303,1.933
-0.0016931530708949396,1.934
-0.002053184065759526,1.935
-0.002510323654145747,1.936
-0.002957712623938134,1.937
-0.0031914423143004937,1.938
-0.003037876074223859,1.939
-0.0024562258033084916,1.94
-0.001564075995963765,1.941
-0.0005848586264927073,1.942
0.00024654166840988633,1.943
0.0007626937795747864,1.944
0.0008910849278168014,1.945
0.0006472536328594202,1.946
0.00012218999535244164,1.947
-0.0005327293874999614,1.948
-0.001122314293388906,1.949
-0.0014365597479314605,1.95
-0.0013127986001695855,1.951
-0.0007100851704038228,1.952
0.00025723005872390286,1.953
0.001359827797843334,1.954
0.002349557518178815,1.955
0.0030429616833794852,1.956
0.003334729028965266,1.957
0.0031711191078730317,1.958
0.0025608571382406938,1.959
0.0016181520038035856,1.96
0.0005538211372499993,1.961
-0.0004034499565142185,1.962
-0.0010837305108271922,1.963
-0.0014040479730372916,1.964
-0.0013560551149825993,1.965
-0.0009824073887473013,1.966
-0.00037326985125065256,1.967
0.00033000561394724463,1.968
0.0009602812362001371,1.969
0.0013818578311399702,1.97
0.0015395971727673108,1.971
0.0014491696259113823,1.972
0.0011435715466820624,1.973
0.000652097320388272,1.974
3.826010625255702e-05,1.975
