VaMe,time
0.005000640883945063,0.001
0.005537897883892217,0.002
0.00607577314390406,0.003
0.006613765065551681,0.004
0.007151391336313514,0.005
0.007688196866251006,0.006
0.008223757999456951,0.007
0.00875768185037265,0.008
0.00928959972262485,0.009
0.009819156673473998,0.01
0.010346006150285074,0.011
0.010869818144067438,0.012
0.011390297639357177,0.013
0.011907202951690132,0.014
0.012420356759929979,0.015
0.012929647473668362,0.016
0.013435021756317238,0.017
0.013936471396732621,0.018
0.014434018738571655,0.019
0.014927704216901129,0.02
0.015417577631761797,0.021
0.015903692546816384,0.022
0.016386101687389885,0.023
0.01686485216159653,0.024
0.017339982981478944,0.025
0.017811528336907374,0.026
0.01827952557825757,0.027
0.01874402337818729,0.028
0.01920508673632137,0.029
0.01966279791106757,0.03
0.020117253896649,0.031
0.02056856182031072,0.032
0.021016833648156066,0.033
0.021462181124579326,0.034
0.021904711369437554,0.035
0.022344523250681335,0.036
0.02278170450461605,0.037
0.023216329503944793,0.038
0.02364845758668804,0.039
0.024078132000398374,0.04
0.02450537972298099,0.041
0.02493021249995847,0.042
0.025352629181713923,0.043
0.02577261881905199,0.044
0.026190163234289732,0.045
0.026605237366195376,0.046
0.027017806139341512,0.047
0.027427819484372323,0.048
0.027835211204238524,0.049
0.028239905606022898,0.05
0.028641828684649658,0.051
0.0290409180361147,0.052
0.029437128232467913,0.053
0.029830430280311033,0.054
0.0302208046388718,0.055
0.03060822961950943,0.056
0.03099267174200773,0.057
0.03137408580574567,0.058
0.03175242470687405,0.059
0.03212765124473485,0.06
0.03249974513631704,0.061
0.03286870306154119,0.062
0.03323453207282035,0.063
0.03359723785726786,0.064
0.033956811757879124,0.065
0.034313223667640884,0.066
0.03466642469294299,0.067
0.035016354824749095,0.068
0.03536294865541826,0.069
0.035706136373000366,0.07
0.0360458399561246,0.071
0.036381965650939985,0.072
0.03671439603179963,0.073
0.037042986495789715,0.074
0.03736756767309151,0.075
0.037687949803133516,0.076
0.03800392471377031,0.077
0.03831526380955605,0.078
0.03862171342780739,0.079
0.038922993415904966,0.08
0.03921880508471743,0.081
0.03950884754810097,0.082
0.03979283611656385,0.083
0.04007051692584093,0.084
0.04034167366955195,0.085
0.04060612383844247,0.086
0.0408637040750342,0.087
0.04111424962942736,0.088
0.04135758096488029,0.089
0.04159350794683403,0.09
0.04182184648129926,0.091
0.04204243502032031,0.092
0.042255144883612886,0.093
0.042459884953267746,0.094
0.04265660297748181,0.095
0.04284528511208605,0.096
0.04302595389308467,0.097
0.04319866369106591,0.098
0.043363492574154415,0.099
0.04352053020208347,0.1
0.043669862169365976,0.101
0.04381155425844316,0.102
0.04394564543409854,0.103
0.04407215566672575,0.104
0.04419110340680207,0.105
0.04430252363281424,0.106
0.044406481832426035,0.107
0.0445030819834576,0.108
0.04459246730984716,0.109
0.044674813643630816,0.11
0.044750316293963824,0.111
0.0448191721135532,0.112
0.044881561035508416,0.113
0.04493763551913142,0.114
0.0449875227789425,0.115
0.045031333508447874,0.116
0.045069167305930566,0.117
0.045101110724703346,0.118
0.04512722942388566,0.119
0.045147560529287145,0.12
0.04516211296369836,0.121
0.04517087741086822,0.122
0.045173840129895844,0.123
0.04517099418991875,0.124
0.045162344282821516,0.125
0.0451479024903739,0.126
0.045127675689721876,0.127
0.04510165372233374,0.128
0.04506981128230319,0.129
0.04503212542493787,0.13
0.04498859766619751,0.131
0.044939270493902964,0.132
0.04488423534505455,0.133
0.04482363250881104,0.134
0.044757643968174256,0.135
0.04468648021916389,0.136
0.044610362100586394,0.137
0.04452950103434131,0.138
0.04444408644053485,0.139
0.04435428812065522,0.14
0.04426027035806008,0.141
0.044162207567508514,0.142
0.04406029502842312,0.143
0.043954753299016255,0.144
0.04384582668049444,0.145
0.0437337765500576,0.146
0.04361887066879252,0.147
0.04350136990731258,0.148
0.0433815146907982,0.149
0.0432595150377188,0.15
0.04313554772871538,0.151
0.043009759919870674,0.152
0.04288227511114484,0.153
0.042753198672652995,0.154
0.04262262247167361,0.155
0.04249062845606123,0.156
0.042357290541709405,0.157
0.04222267393109906,0.158
0.042086831116427886,0.159
0.04194979470596662,0.16
0.041811570375256624,0.161
0.04167213663955238,0.162
0.041531454832636074,0.163
0.04138948468800054,0.164
0.041246198177249914,0.165
0.04110158667381181,0.166
0.04095565881765003,0.167
0.04080842860101314,0.168
0.04065989874490695,0.169
0.040510052102511636,0.17
0.04035885979128498,0.171
0.04020629942060074,0.172
0.040052371602844694,0.173
0.03989710938171826,0.174
0.03974057948547444,0.175
0.039582875272238485,0.176
0.03942410211984344,0.177
0.03926435939680603,0.178
0.0391037292604836,0.179
0.0389422806745209,0.18
0.03878008444300201,0.181
0.03861722813500381,0.182
0.03845382402250039,0.183
0.038290008214170695,0.184
0.038125931335131466,0.185
0.037961743322649316,0.186
0.03779757930547162,0.187
0.03763355591409833,0.188
0.03746978005334166,0.189
0.03730636182474868,0.19
0.03714342284681541,0.191
0.03698109699376023,0.192
0.03681952400042994,0.193
0.036658837767534536,0.194
0.03649915361575103,0.195
0.03634056143288751,0.196
0.036183127888494655,0.197
0.03602690263782347,0.198
0.03587192250259167,0.199
0.035718212832744775,0.2
0.03556578811600903,0.201
0.035414653983081135,0.202
0.03526481181463763,0.203
0.03511626553608174,0.204
0.03496902862060839,0.205
0.03482312852529923,0.206
0.03467860605870501,0.207
0.034535508305956836,0.208
0.03439387684869897,0.209
0.03425373883891287,0.21
0.03411510985717504,0.211
0.033978008865978584,0.212
0.03384247722920547,0.213
0.03370859443347356,0.214
0.03357648676009162,0.215
0.03344632652601933,0.216
0.03331832045716073,0.217
0.03319268986920208,0.218
0.033069653516689286,0.219
0.03294942540717359,0.22
0.03283222631457139,0.221
0.032718295475799,0.222
0.03260789260481512,0.223
0.03250128960343852,0.224
0.03239875645481867,0.225
0.032300549005803314,0.226
0.03220690577549427,0.227
0.03211805327240673,0.228
0.0320342125041664,0.229
0.03195560080163063,0.23
0.03188242769687504,0.231
0.031814887241046745,0.232
0.03175315251147926,0.233
0.03169737652021931,0.234
0.031647696756921175,0.235
0.03160423755313627,0.236
0.031567107704203796,0.237
0.03153639545564121,0.238
0.031512166468458856,0.239
0.03149446831336627,0.24
0.03148333841364523,0.241
0.031478809941092326,0.242
0.03148091254221495,0.243
0.03148966730526844,0.244
0.03150507925943788,0.245
0.031527134441532385,0.246
0.03155580469403225,0.247
0.03159105519380096,0.248
0.03163284893027404,0.249
0.03168114740990036,0.25
0.031735909701040885,0.251
0.03179709192452969,0.252
0.03186464802422448,0.253
0.03193853080072735,0.254
0.03201869091620505,0.255
0.032105071770148035,0.256
0.032197601405000165,0.257
0.03229618773451727,0.258
0.03240072181525098,0.259
0.032511085072570126,0.26
0.03262715283785739,0.261
0.032748790948370576,0.262
0.03287584856582662,0.263
0.03300815470160211,0.264
0.033145521511620896,0.265
0.03328774811660641,0.266
0.03343461873985144,0.267
0.03358589774482867,0.268
0.03374132850179228,0.269
0.03390063746531499,0.27
0.03406353799482323,0.271
0.03422972937910606,0.272
0.03439889148226968,0.273
0.03457067811995202,0.274
0.0347447126063147,0.275
0.03492058798650961,0.276
0.03509787323652283,0.277
0.03527612534409824,0.278
0.03545490496185794,0.279
0.035633791410385876,0.28
0.0358123927597181,0.281
0.03599034818988455,0.282
0.036167321715672676,0.283
0.03634298785966473,0.284
0.03651701461378331,0.285
0.03668905716735708,0.286
0.036858771710018466,0.287
0.03702584123282969,0.288
0.03718999835321025,0.289
0.03735103675282607,0.29
0.03750880891747389,0.291
0.03766321174011655,0.292
0.03781416452016486,0.293
0.037961585861591235,0.294
0.03810537818943332,0.295
0.03824542693249609,0.296
0.03838161278248085,0.297
0.038513828408782265,0.298
0.03864199177192758,0.299
0.038766051474832634,0.3
0.03888598192852787,0.301
0.03900176878024738,0.302
0.03911339014987334,0.303
0.0392208051853719,0.304
0.03932395770062811,0.305
0.03942278999772342,0.306
0.03951725767210006,0.307
0.039607341301029005,0.308
0.03969305359726138,0.309
0.03977443991756562,0.31
0.039851569836947466,0.311
0.03992452054712442,0.312
0.03999336119273282,0.313
0.04005815203213807,0.314
0.040118961136523926,0.315
0.040175885962481124,0.316
0.040229066738736836,0.317
0.04027868722616384,0.318
0.040324963864082554,0.319
0.04036812676164698,0.32
0.040408398593195526,0.321
0.0404459798918543,0.322
0.040481045612488005,0.323
0.040513748425336574,0.324
0.04054422074319258,0.325
0.0405725725201444,0.326
0.04059888656937016,0.327
0.04062321425729203,0.328
0.04064557394938221,0.329
0.04066595354934147,0.33
0.040684317247699414,0.331
0.04070061546316784,0.332
0.04071479596784788,0.333
0.040726813245680483,0.334
0.040736632387230055,0.335
0.04074422390835427,0.336
0.040749551199019324,0.337
0.04075256333475226,0.338
0.04075320557806992,0.339
0.040751442405182386,0.34
0.04074727723814768,0.341
0.040740758447762364,0.342
0.04073196879446127,0.343
0.04072100350202166,0.344
0.040707953929397196,0.345
0.04069291323215784,0.346
0.040675999754936965,0.347
0.04065737883611738,0.348
0.040637269051339305,0.349
0.04061592985395588,0.35
0.04059363686251584,0.351
0.04057066107781067,0.352
0.040547267381892724,0.353
0.0405237297871503,0.354
0.040500347712980236,0.355
0.04047745216010593,0.356
0.0404553993572407,0.357
0.04043455415527259,0.358
0.04041527156581568,0.359
0.04039788902275807,0.36
0.04038273249512016,0.361
0.0403701252851514,0.362
0.040360388739705905,0.363
0.04035383390993824,0.364
0.040350749877173346,0.365
0.04035139711272093,0.366
0.04035600948745753,0.367
0.0403647997673017,0.368
0.040377962473235884,0.369
0.0403956727978627,0.37
0.040418082453496755,0.371
0.040445314146804814,0.372
0.04047745829896542,0.373
0.04051457513862415,0.374
0.04055670109627514,0.375
0.040603855685764155,0.376
0.04065604567244498,0.377
0.04071326436459343,0.378
0.04077548591238103,0.379
0.04084265944416065,0.38
0.04091470999514609,0.381
0.040991546470989855,0.382
0.041073069381352696,0.383
0.04115917230263354,0.384
0.04124973664220366,0.385
0.041344622672010084,0.386
0.04144366062952627,0.387
0.04154664491199634,0.388
0.04165333259100159,0.389
0.04176344546876221,0.39
0.04187667338355387,0.391
0.04199267584135934,0.392
0.04211108093207306,0.393
0.04223148572438439,0.394
0.042353464633538306,0.395
0.042476586926190774,0.396
0.042600438611207735,0.397
0.04272464297897791,0.398
0.042848875121703156,0.399
0.04297286702924363,0.4
0.043096401730933064,0.401
0.0432192970620388,0.402
0.04334138235134555,0.403
0.04346247710237156,0.404
0.04358238488093726,0.405
0.04370090652382462,0.406
0.0438178622920797,0.407
0.04393311167199301,0.408
0.044046567431581786,0.409
0.04415820430955222,0.41
0.04426806286559203,0.411
0.04437624852569978,0.412
0.044482925169653444,0.413
0.044588302430844405,0.414
0.04469261666092025,0.415
0.04479610779343983,0.416
0.04489899906868509,0.417
0.04500148900574105,0.418
0.04510375695286774,0.419
0.04520597285855749,0.42
0.04530830286670518,0.421
0.04541090954933493,0.422
0.04551394869418528,0.423
0.045617564734944806,0.424
0.045721886863000036,0.425
0.04582702764740647,0.426
0.04593308550741983,0.427
0.04604015157447255,0.428
0.04614832042610313,0.429
0.0462577030203454,0.43
0.04636843909085995,0.431
0.04648070554119169,0.432
0.04659471733981908,0.433
0.046710718394959355,0.434
0.04682896260922752,0.435
0.046949692579839095,0.436
0.047073130593942955,0.437
0.04719948827640227,0.438
0.04732898394468773,0.439
0.047461854858494336,0.44
0.047598361479977466,0.441
0.04773878574406116,0.442
0.04788342533655843,0.443
0.048032585471173686,0.444
0.04818656928877855,0.445
0.048345667860188984,0.446
0.048510150572836565,0.447
0.0486802562290912,0.448
0.04885618568730999,0.449
0.04903809878184162,0.45
0.04922611746221732,0.451
0.04942033285983657,0.452
0.04962081226271825,0.453
0.049827603518736795,0.454
0.05004073555549241,0.455
0.050260214465350485,0.456
0.05048601596125367,0.457
0.050718076810360425,0.458
0.05095628876197722,0.459
0.051200497042589985,0.46
0.0514505034834785,0.461
0.051706073118834586,0.462
0.051966941226043714,0.463
0.052232816638388066,0.464
0.052503378884452986,0.465
0.05277827193063658,0.466
0.05305710327687108,0.467
0.053339454688286436,0.468
0.05362490106932974,0.469
0.05391303005552651,0.47
0.054203457120244825,0.471
0.054495831841593206,0.472
0.054789831111169154,0.473
0.05508513965963138,0.474
0.05538143048481483,0.475
0.055678364630451636,0.476
0.0559756139094815,0.477
0.05627288885799238,0.478
0.05656995431524824,0.479
0.05686662741531232,0.48
0.057162759869144916,0.481
0.057458210391842984,0.482
0.05775282030015953,0.483
0.05804640798992608,0.484
0.058338784039243655,0.485
0.05862977145691731,0.486
0.058919215996733144,0.487
0.05920698157381359,0.488
0.05949293245192486,0.489
0.05977691170548603,0.49
0.06005873276491044,0.491
0.06033819115094891,0.492
0.060615084002455424,0.493
0.06088922220763749,0.494
0.06116043050364398,0.495
0.06142853719428889,0.496
0.0616933568080778,0.497
0.06195467131091153,0.498
0.06221221839507816,0.499
0.06246569222117858,0.5
0.0627147529871242,0.501
0.0629590386286586,0.502
0.06319817607442227,0.503
0.06343179218411196,0.504
0.06365952416667064,0.505
0.06388102829670843,0.506
0.06409598489655886,0.507
0.06430409716727854,0.508
0.06450508190478217,0.509
0.06469865142729005,0.51
0.06488449185560122,0.511
0.06506225296635812,0.512
0.06523156170665056,0.513
0.06539205302705071,0.514
0.06554340353821882,0.515
0.06568535915594918,0.516
0.06581775153521145,0.517
0.06594049871094282,0.518
0.0660535875773676,0.519
0.06615703973055459,0.52
0.06625087169602228,0.521
0.06633507264089701,0.522
0.06640961303003805,0.523
0.06647446984018693,0.524
0.06652964732138428,0.525
0.06657518664887634,0.526
0.06661116618686487,0.527
0.06663769485086476,0.528
0.06665490083367051,0.529
0.06666291742503265,0.53
0.06666186697590853,0.531
0.06665184366212462,0.532
0.06663289824410161,0.533
0.06660503264555559,0.534
0.06656820885771564,0.535
0.0665223661883371,0.536
0.0664674377265028,0.537
0.06640336099234025,0.538
0.06633008012170588,0.539
0.06624753797071198,0.54
0.06615565955542761,0.541
0.0660543353574634,0.542
0.06594341817995335,0.543
0.06582273817176815,0.544
0.0656921255472639,0.545
0.06555142853105467,0.546
0.06540052087978396,0.547
0.06523929681512104,0.548
0.06506765305346213,0.549
0.06488546663132355,0.55
0.06469259003458294,0.551
0.06448887715012235,0.552
0.0642742269634735,0.553
0.06404862209814587,0.554
0.06381214802396515,0.555
0.06356498584374436,0.556
0.0633073778449562,0.557
0.06303958237280244,0.558
0.06276185371264979,0.559
0.06247446489682511,0.56
0.06217774845238376,0.561
0.061872123006299726,0.562
0.06155809736966804,0.563
0.06123625697582506,0.564
0.06090723874527721,0.565
0.060571699294108446,0.566
0.060230283481245636,0.567
0.05988360717993021,0.568
0.05953226382118636,0.569
0.059176845582463,0.57
0.05881796193873096,0.571
0.05845624646350972,0.572
0.05809235103204287,0.573
0.05772693036504162,0.574
0.05736062189860247,0.575
0.056994027183985954,0.576
0.05662770043160546,0.577
0.056262144954973566,0.578
0.0558978143165484,0.579
0.055535117208130924,0.58
0.05517442599146492,0.581
0.05481608513598669,0.582
0.054460414631596336,0.583
0.05410770621451544,0.584
0.05375821507102778,0.585
0.05341215467599214,0.586
0.053069700147627935,0.587
0.052730997111088904,0.588
0.052396170714339524,0.589
0.05206533314550296,0.59
0.05173858956918407,0.591
0.051416041684962055,0.592
0.051097787879893754,0.593
0.05078391965421511,0.594
0.05047451502551559,0.595
0.050169630060529394,0.596
0.04986928986909834,0.597
0.04957348194603456,0.598
0.04928215601305026,0.599
0.04899523125728369,0.6
0.04871260704107856,0.601
0.04843417309592165,0.602
0.04815981804091687,0.603
0.04788943632621738,0.604
0.047622933292288054,0.605
0.047360227017152284,0.606
0.04710124478634114,0.607
0.04684591218646024,0.608
0.04659413800351812,0.609
0.046345807909632955,0.61
0.046100797499346424,0.611
0.04585899809688663,0.612
0.045620340770757446,0.613
0.045384809671367383,0.614
0.04515244146836221,0.615
0.04492331134859493,0.616
0.04469750959991844,0.617
0.044475116710319465,0.618
0.04425618792057826,0.619
0.04404075240595363,0.62
0.04382882058366788,0.621
0.043620390799883675,0.622
0.043415452904045124,0.623
0.04321398958611923,0.624
0.04301597632663316,0.625
0.042821380809290925,0.626
0.042630162946349325,0.627
0.042442276717967395,0.628
0.042257674548410645,0.629
0.04207631402379345,0.63
0.041898165564325594,0.631
0.04172321838901649,0.632
0.04155148124163986,0.633
0.041382974694752606,0.634
0.0412177162656055,0.635
0.041055708342561524,0.636
0.04089693977877737,0.637
0.04074139854290558,0.638
0.04058908269047383,0.639
0.04044000147734502,0.64
0.0402941667729336,0.641
0.04015157909111155,0.642
0.04001221427018608,0.643
0.03987601558092043,0.644
0.03974289197191492,0.645
0.03961272253686466,0.646
0.039485368966824204,0.647
0.039360694464362654,0.648
0.03923858323584032,0.649
0.03911895454028401,0.65
0.039001767056338135,0.651
0.038887011739160655,0.652
0.03877469439084448,0.653
0.038664814544258456,0.654
0.03855735324745788,0.655
0.03845227658414338,0.656
0.03834954692852731,0.657
0.038249130970338475,0.658
0.03815100179446099,0.659
0.03805513709411186,0.66
0.03796151598720482,0.661
0.03787011650804227,0.662
0.03778091516353711,0.663
0.03769388908852468,0.664
0.03760902036305565,0.665
0.03752630114493511,0.666
0.03744573768707083,0.667
0.03736735124598211,0.668
0.03729117436525057,0.669
0.03721724185278889,0.67
0.03714557844576817,0.671
0.03707619046880837,0.672
0.03700906936771342,0.673
0.036944206297011756,0.674
0.03688160971009427,0.675
0.03682131928656349,0.676
0.03676341314421646,0.677
0.0367080069181917,0.678
0.03665524446674615,0.679
0.036605281500138344,0.68
0.036558266864579476,0.681
0.03651433059871452,0.682
0.03647358407582011,0.683
0.03643612628369315,0.684
0.03640204704369138,0.685
0.036371424204252045,0.686
0.036344316734671284,0.687
0.03632075737091737,0.688
0.036300748567221805,0.689
0.036284262291342004,0.69
0.036271240519942266,0.691
0.03626159499302678,0.692
0.03625520929538751,0.693
0.03625194624417292,0.694
0.036251659468706225,0.695
0.03625420563442296,0.696
0.03625945363047839,0.697
0.03626728724392167,0.698
0.03627759879016222,0.699
0.036290276037987367,0.7
0.036305193225806165,0.701
0.036322216273012645,0.702
0.036341218483141945,0.703
0.0363620945325096,0.704
0.03638476472767679,0.705
0.03640916739569538,0.706
0.03643524297767166,0.707
0.036462921637533105,0.708
0.036492125174110324,0.709
0.036522778851637794,0.71
0.036554819149625516,0.711
0.036588189279105225,0.712
0.036622825927421485,0.713
0.03665865012067673,0.714
0.036695571749037065,0.715
0.036733502374440244,0.716
0.03677236516230804,0.717
0.03681209748843689,0.718
0.03685264724618801,0.719
0.03689396483317623,0.72
0.03693599233776004,0.721
0.03697865247948026,0.722
0.03702184289797923,0.723
0.03706543949541169,0.724
0.03710930505971711,0.725
0.03715329695370011,0.726
0.03719727146712731,0.727
0.03724108526337499,0.728
0.03728459497807582,0.729
0.03732765599355396,0.73
0.03737012103808402,0.731
0.03741183878651967,0.732
0.037452652317179355,0.733
0.03749239722623693,0.734
0.037530899317972155,0.735
0.03756797189540016,0.736
0.03760341266749706,0.737
0.03763700010557153,0.738
0.037668488985872176,0.739
0.03769760661145098,0.74
0.03772405467459002,0.741
0.0377475212525803,0.742
0.03776770200123828,0.743
0.03778432589134504,0.744
0.0377971799834528,0.745
0.037806126754168765,0.746
0.037811107303172733,0.747
0.03781212596359914,0.748
0.03780922086428646,0.749
0.03780244119172063,0.75
0.03779185216242675,0.751
0.03777756200520663,0.752
0.03775974595190977,0.753
0.0377386508076374,0.754
0.0377145791821761,0.755
0.03768786092097572,0.756
0.03765882507334343,0.757
0.03762778656449083,0.758
0.0375950493017684,0.759
0.03756091315030858,0.76
0.03752567409673388,0.761
0.03748961685614709,0.762
0.03745300480543155,0.763
0.03741607468274211,0.764
0.037379039996310405,0.765
0.037342098918662504,0.766
0.03730544046426483,0.767
0.037269246416813194,0.768
0.03723368867826279,0.769
0.037198922613755604,0.77
0.03716507893818431,0.771
0.037132258656783663,0.772
0.037100533092910795,0.773
0.03706994577201842,0.774
0.03704051251640252,0.775
0.03701221956065219,0.776
0.03698502118317638,0.777
0.03695883816170157,0.778
0.03693355789345633,0.779
0.03690903659223236,0.78
0.036885103598662754,0.781
0.03686156743129889,0.782
0.036838222792025116,0.783
0.036814857475350286,0.784
0.036791258117553745,0.785
0.03676721391301139,0.786
0.03674251776351326,0.787
0.03671696481167316,0.788
0.036690348843429005,0.789
0.036662457369195475,0.79
0.03663306611081285,0.791
0.03660193319317552,0.792
0.03656879328302911,0.793
0.03653335344830767,0.794
0.036495294234715474,0.795
0.036454277824377344,0.796
0.03640996172982115,0.797
0.03636201571816292,0.798
0.0363101404093416,0.799
0.03625408537853963,0.8
0.0361936631545961,0.801
0.036128754700284475,0.802
0.036059302647462155,0.803
0.03598529100054669,0.804
0.035906717715988405,0.805
0.03582357786789446,0.806
0.03573587026153715,0.807
0.035643618121395874,0.808
0.03554688569148306,0.809
0.035445782951365724,0.81
0.03534046009336205,0.811
0.03523109665944611,0.812
0.03511789073246948,0.813
0.03500105193250685,0.814
0.03488079899137708,0.815
0.03475735983048073,0.816
0.03463097067903068,0.817
0.03450187132077199,0.818
0.03437029567383058,0.819
0.03423646111997091,0.82
0.03410056413341765,0.821
0.033962786225879546,0.822
0.03382330552117082,0.823
0.0336823075083131,0.824
0.03353999260949743,0.825
0.03339658028733829,0.826
0.03325230972838444,0.827
0.03310743755361877,0.828
0.032962233308048,0.829
0.032816973412612235,0.83
0.03267193383859402,0.831
0.03252738138543394,0.832
0.03238356482131231,0.833
0.032240710157120114,0.834
0.03209902293559763,0.835
0.031958694138508575,0.836
0.031819904132073466,0.837
0.03168282231739067,0.838
0.031547602979333386,0.839
0.03141437942273974,0.84
0.031283259640184545,0.841
0.031154325337467544,0.842
0.03102763265509018,0.843
0.03090321205846647,0.844
0.03078106766834483,0.845
0.030661178650720128,0.846
0.030543504429708084,0.847
0.030427993220859196,0.848
0.030314592443958413,0.849
0.030203259495970435,0.85
0.030093970894731467,0.851
0.02998672734244248,0.852
0.02988155235674655,0.853
0.029778482944806096,0.854
0.029677555400525725,0.855
0.02957879735128434,0.856
0.02948223486329125,0.857
0.02938790860049751,0.858
0.02929588631848493,0.859
0.029206265256386622,0.86
0.029119164553771594,0.861
0.029034710889554366,0.862
0.028953023022822714,0.863
0.02887420256954907,0.864
0.02879833414980835,0.865
0.028725490153179194,0.866
0.028655733933556117,0.867
0.02858911938612773,0.868
0.028525687286171313,0.869
0.028465460048619037,0.87
0.028408438426417514,0.871
0.02835460259646952,0.872
0.028303915862312304,0.873
0.028256327648937964,0.874
0.02821177456528231,0.875
0.028170180120486048,0.876
0.028131454157351278,0.877
0.02809549297064484,0.878
0.028062180641660463,0.879
0.02803139148463418,0.88
0.028002992850644472,0.881
0.027976847102716907,0.882
0.027952811565344758,0.883
0.027930735667295727,0.884
0.027910455732949375,0.885
0.027891790623105324,0.886
0.02787454317604355,0.887
0.027858509322169187,0.888
0.027843491895837322,0.889
0.027829314895201112,0.89
0.027815834920076006,0.891
0.02780294722884353,0.892
0.027790584934345934,0.893
0.02777871146936716,0.894
0.02776730773513958,0.895
0.027756356862825897,0.896
0.027745832546077084,0.897
0.027735697496889426,0.898
0.02772591193415481,0.899
0.02771644494288974,0.9
0.02770728228436742,0.901
0.027698428627023115,0.902
0.027689904585488565,0.903
0.027681739885372026,0.904
0.02767396435711032,0.905
0.02766659834835143,0.906
0.027659644500208535,0.907
0.02765308351120738,0.908
0.02764687445039809,0.909
0.027640956370823113,0.91
0.027635248121223078,0.911
0.027629647375778624,0.912
0.027624032576159224,0.913
0.02761826953378875,0.914
0.027612220560644975,0.915
0.027605752689471064,0.916
0.027598742387779155,0.917
0.02759107493086587,0.918
0.027582637539411203,0.919
0.02757330940348486,0.92
0.02756295781730853,0.921
0.027551446823554634,0.922
0.027538653348843804,0.923
0.027524482092797432,0.924
0.02750887525797822,0.925
0.027491816272335094,0.926
0.027473327224749797,0.927
0.02745346006650364,0.928
0.027432282004468043,0.929
0.027409859396906804,0.93
0.027386251258498397,0.931
0.027361519375782902,0.932
0.027335747239888346,0.933
0.027309055227680814,0.934
0.027281605982089934,0.935
0.027253598874093843,0.936
0.02722525478743497,0.937
0.02719679718214268,0.938
0.02716844113803847,0.939
0.027140396897912943,0.94
0.02711288024762396,0.941
0.027086118836113744,0.942
0.027060351322004746,0.943
0.02703582126861773,0.944
0.027012768529928715,0.945
0.026991420559231653,0.946
0.026971985801797414,0.947
0.02695465131298687,0.948
0.026939585095926193,0.949
0.026926941012373317,0.95
0.026916863610708993,0.951
0.02690949123553504,0.952
0.026904956396303435,0.953
0.026903383082451285,0.954
0.026904881842309544,0.955
0.02690954440111085,0.956
0.026917439862051938,0.957
0.026928613621423306,0.958
0.026943088662251796,0.959
0.02696086844445777,0.96
0.026981940944487665,0.961
0.027006282988265278,0.962
0.027033862919932605,0.963
0.027064639399517247,0.964
0.027098557560426614,0.965
0.02713554936355429,0.966
0.027175542791560377,0.967
0.027218474677433376,0.968
0.027264298289064598,0.969
0.027312981305530233,0.97
0.027364495590898662,0.971
0.02741880640419215,0.972
0.027475870789110287,0.973
0.02753564679983519,0.974
0.027598106014237112,0.975
0.027663242328707538,0.976
0.02773107492018983,0.977
0.027801645247211106,0.978
0.02787500832947438,0.979
0.027951220161671664,0.98
0.028030326963096965,0.981
0.02811236319348417,0.982
0.028197358488644696,0.983
0.028285346276183794,0.984
0.028376367870795585,0.985
0.02847047074752733,0.986
0.028567702132185447,0.987
0.028668100017370555,0.988
0.028771685229808105,0.989
0.028878458584338653,0.99
0.02898840353335197,0.991
0.029101490354962067,0.992
0.029217678173510488,0.993
0.02933691373724254,0.994
0.02945912755701187,0.995
0.02958423018124985,0.996
0.029712113024996347,0.997
0.02984265533439813,0.998
0.029975733992887707,0.999
0.030111231676656466,1.0
0.030249040524601114,1.001
0.0303890599991405,1.002
0.03053118913286647,1.003
0.030675315875554093,1.004
0.030821308880490176,1.005
0.0309690154335223,1.006
0.03111826332564717,1.007
0.031268862022922596,1.008
0.03142060150812318,1.009
0.03157325010421889,1.01
0.031726553274471526,1.011
0.031880235132587635,1.012
0.032034003704793076,1.013
0.03218755986277655,1.014
0.03234060859992034,1.015
0.03249287048918791,1.016
0.032644091070414744,1.017
0.032794046398135886,1.018
0.03294254358376596,1.019
0.03308941565018199,1.02
0.0332345105484198,1.021
0.03337767626946146,1.022
0.03351874885898237,1.023
0.033657551891371894,1.024
0.033793908312306616,1.025
0.03392765717836642,1.026
0.03405866858151582,1.027
0.034186854490181114,1.028
0.03431217479805545,1.029
0.03443463783041189,1.03
0.03455429468093707,1.031
0.03467122723356832,1.032
0.034785530553720884,1.033
0.03489729397268449,1.034
0.035006590960195295,1.035
0.03511348388347923,1.036
0.03521803629762969,1.037
0.03532032127435737,1.038
0.03542042090856435,1.039
0.03551841734312159,1.04
0.03561437970553023,1.041
0.03570835580004902,1.042
0.03580037355114365,1.043
0.03589044659930306,1.044
0.03597857596462476,1.045
0.036064745832360155,1.046
0.03614891720508818,1.047
0.03623102575253154,1.048
0.03631098682768591,1.049
0.03638870406780075,1.05
0.03646407677190022,1.051
0.03653700420909204,1.052
0.03660738670944701,1.053
0.03667512400577581,1.054
0.03674011201872737,1.055
0.036802239767642235,1.056
0.03686138793303319,1.057
0.0369174296794465,1.058
0.03697023302016709,1.059
0.03701966286559618,1.06
0.03706558039287896,1.061
0.03710783761043969,1.062
0.0371462687178188,1.063
0.03718068715863242,1.064
0.03721089604812043,1.065
0.03723670758466201,1.066
0.03725796109541481,1.067
0.037274533194266816,1.068
0.03728633760198943,1.069
0.037293314995337626,1.07
0.037295416105628726,1.071
0.03729258321699056,1.072
0.03728473554096317,1.073
0.03727176249944978,1.074
0.03725352613099855,1.075
0.037229870589938784,1.076
0.03720063417686738,1.077
0.037165658324346394,1.078
0.03712478867675477,1.079
0.03707786744694039,1.08
0.03702472515197467,1.081
0.036965184738917016,1.082
0.036899081221170076,1.083
0.03682628639139028,1.084
0.03674672713563992,1.085
0.03666039231545484,1.086
0.0365673277003512,1.087
0.03646762111096532,1.088
0.03636138177320272,1.089
0.03624871871255955,1.09
0.03612972385997476,1.091
0.03600446504028743,1.092
0.03587298884372956,1.093
0.035735327981488325,1.094
0.03559150882497715,1.095
0.035441558336419446,1.096
0.035285510137998466,1.097
0.035123408719476716,1.098
0.034955310649445265,1.099
0.034781282014641784,1.1
0.034601391891992545,1.101
0.034415702290381926,1.102
0.03422425729088518,1.103
0.03402707751127673,1.104
0.033824162956153335,1.105
0.03361549860478964,1.106
0.03340105523915608,1.107
0.033180786016042886,1.108
0.0329546279683311,1.109
0.03272251508829,1.11
0.032484397444853354,1.111
0.03224025497736554,1.112
0.03199009809215042,1.113
0.03173395496198441,1.114
0.03147185862994377,1.115
0.031203852030708402,1.116
0.030930012004241603,1.117
0.030650475115002705,1.118
0.030365450411846375,1.119
0.030075215785670517,1.12
0.029780101013576886,1.121
0.02948046282746452,1.122
0.029176660688548652,1.123
0.028869045386682366,1.124
0.02855796506634863,1.125
0.028243778998076254,1.126
0.0279268677198398,1.127
0.027607636253859463,1.128
0.02728651135077566,1.129
0.026963934420954048,1.13
0.026640352066420583,1.131
0.026316205881269435,1.132
0.025991923437191283,1.133
0.02566791334199731,1.134
0.02534456578268072,1.135
0.02502225601830603,1.136
0.024701347198666877,1.137
0.02438219107823195,1.138
0.024065126796941172,1.139
0.023750478243989234,1.14
0.02343855102867176,1.141
0.023129630968410336,1.142
0.02282398528304245,1.143
0.022521865220326114,1.144
0.022223507784298307,1.145
0.021929135390418283,1.146
0.02163895459974109,1.147
0.021353157204354906,1.148
0.021071925363779807,1.149
0.02079543807769984,1.15
0.020523874624019632,1.151
0.020257412584360677,1.152
0.01999622247322246,1.153
0.01974046560728723,1.154
0.019490299141619146,1.155
0.019245883849646196,1.156
0.019007388331939865,1.157
0.018774987777093407,1.158
0.018548858336733774,1.159
0.018329169862486616,1.16
0.0181160817198939,1.161
0.017909744610531245,1.162
0.0177103059473975,1.163
0.017517914337884688,1.164
0.01733272092487428,1.165
0.017154877197842453,1.166
0.01698453015623351,1.167
0.01682181757542716,1.168
0.016666866367290128,1.169
0.01651979370857315,1.17
0.016380707621470567,1.171
0.016249705455998055,1.172
0.016126872428616774,1.173
0.016012282245011614,1.174
0.015905998522518783,1.175
0.015808074724686188,1.176
0.01571855267374392,1.177
0.01563746183948526,1.178
0.01556482072036151,1.179
0.015500639066043816,1.18
0.015444919117999764,1.181
0.01539765535566607,1.182
0.01535883310330273,1.183
0.015328426592471531,1.184
0.015306397296103856,1.185
0.015292693426448751,1.186
0.01528725084398727,1.187
0.015289994644400121,1.188
0.015300840432579638,1.189
0.015319694620700673,1.19
0.01534645347027694,1.191
0.015381001355225873,1.192
0.015423209602715158,1.193
0.01547293670692413,1.194
0.015530029050256555,1.195
0.01559432089309962,1.196
0.015665633608469374,1.197
0.01574377548814918,1.198
0.01582854340088181,1.199
0.015919725954819202,1.2
0.016017106611223762,1.201
0.016120465284288867,1.202
0.016229577544238444,1.203
0.01634421165742034,1.204
0.016464125458086135,1.205
0.01658906560765868,1.206
0.01671876963635985,1.207
0.016852968958057074,1.208
0.016991391566636312,1.209
0.017133764566045494,1.21
0.017279816955056107,1.211
0.017429282562941302,1.212
0.017581902424570146,1.213
0.017737425475092147,1.214
0.01789560638405879,1.215
0.018056200226430407,1.216
0.018218956867819047,1.217
0.018383620930755202,1.218
0.01854993973249894,1.219
0.01871767447526483,1.22
0.018886608419129085,1.221
0.019056549002965464,1.222
0.019227323493848203,1.223
0.019398769367952855,1.224
0.019570722836130382,1.225
0.019743011140548418,1.226
0.019915452010286248,1.227
0.020087857597704338,1.228
0.020260038362252965,1.229
0.020431805365636397,1.23
0.020602971405970723,1.231
0.02077335128814757,1.232
0.020942761074628554,1.233
0.02111101601712886,1.234
0.021277927064603862,1.235
0.021443296190851526,1.236
0.02160691157220355,1.237
0.021768544772589625,1.238
0.02192795136034998,1.239
0.022084873672637687,1.24
0.022239043384133166,1.241
0.022390182772523796,1.242
0.022538004770294003,1.243
0.022682212522432157,1.244
0.022822499606715858,1.245
0.022958552169519097,1.246
0.023090053780666628,1.247
0.023216692834196435,1.248
0.023338171159702038,1.249
0.02345421163769075,1.25
0.023564562285638992,1.251
0.02366899443283908,1.252
0.023767293684860625,1.253
0.023859248101080723,1.254
0.023944646323978018,1.255
0.024023293893941877,1.256
0.024095039730232106,1.257
0.024159798970735637,1.258
0.024217564742698525,1.259
0.024268406853290608,1.26
0.024312458257273104,1.261
0.02434989241779436,1.262
0.02438089821209301,1.263
0.024405663931109087,1.264
0.024424378082331003,1.265
0.024437241199641135,1.266
0.024444477082420823,1.267
0.02444633771204997,1.268
0.024443101607917517,1.269
0.024435067166913106,1.27
0.024422543315251847,1.271
0.0244058401205169,1.272
0.02438526156145383,1.273
0.0243611015144813,1.274
0.024333642671064304,1.275
0.024303157113670027,1.276
0.024269906972813227,1.277
0.02423414393111209,1.278
0.024196107029919884,1.279
0.024156019272690298,1.28
0.02411408493550112,1.281
0.024070489636079433,1.282
0.02402540290054489,1.283
0.02397898080412969,1.284
0.02393136649315788,1.285
0.023882688275095144,1.286
0.023833057658752918,1.287
0.023782570635903826,1.288
0.02373131211863345,1.289
0.0236793596700746,1.29
0.02362678292980094,1.291
0.02357363942171444,1.292
0.023519972783185416,1.293
0.0234658181262216,1.294
0.023411211329439133,1.295
0.023356196189588542,1.296
0.02330082693747794,1.297
0.023245166468347227,1.298
0.02318928164599162,1.299
0.023133237445487023,1.3
0.02307709153488386,1.301
0.023020890286166704,1.302
0.02296466628873668,1.303
0.022908436476475485,1.304
0.022852200311664045,1.305
0.022795939803920515,1.306
0.022739623831391016,1.307
0.02268321614663062,1.308
0.022626683934757613,1.309
0.02257000417435543,1.31
0.022513166252792163,1.311
0.022456170372371007,1.312
0.02239902227458698,1.313
0.022341725397205667,1.314
0.022284272795995503,1.315
0.022226643128466426,1.316
0.02216880331596425,1.317
0.02211071533501053,1.318
0.022052343060426416,1.319
0.021993657329885237,1.32
0.021934638607964862,1.321
0.021875276662103663,1.322
0.02181556686941892,1.323
0.021755503321586354,1.324
0.0216950709704116,1.325
0.021634241906455885,1.326
0.02157297855017892,1.327
0.021511239986685624,1.328
0.021448986235840357,1.329
0.021386178785250766,1.33
0.0213227780543243,1.331
0.02125873923321912,1.332
0.021194008376051864,1.333
0.021128520637223328,1.334
0.02106220205681524,1.335
0.02099497528394413,1.336
0.020926768164734436,1.337
0.020857522556477322,1.338
0.02078719966893176,1.339
0.020715778373442392,1.34
0.020643246441774357,1.341
0.0205695923791306,1.342
0.020494808090923577,1.343
0.02041890265626536,1.344
0.020341917468425126,1.345
0.02026393464351334,1.346
0.020185076892847036,1.347
0.020105500424752655,1.348
0.020025383611767762,1.349
0.019944914369495553,1.35
0.019864278562302103,1.351
0.019783651242574887,1.352
0.019703192520898787,1.353
0.019623048310236316,1.354
0.019543353631039696,1.355
0.01946423616394564,1.356
0.01938581937495059,1.357
0.019308225052910136,1.358
0.019231574949483965,1.359
0.019155991275678214,1.36
0.019081596049583587,1.361
0.0190085095711324,1.362
0.018936848443046942,1.363
0.01886672347308749,1.364
0.018798237566166814,1.365
0.018731483531451015,1.366
0.018666541726926784,1.367
0.018603477760855552,1.368
0.018542340900778612,1.369
0.018483163636393532,1.37
0.018425961976167866,1.371
0.018370735774539345,1.372
0.018317468942996993,1.373
0.018266129779864852,1.374
0.018216671487886645,1.375
0.018169032572874205,1.376
0.018123136730200287,1.377
0.018078892709046616,1.378
0.0180361958445667,1.379
0.01799493227620966,1.38
0.017954984572477167,1.381
0.017916236226374265,1.382
0.01787857278791941,1.383
0.01784187881406368,1.384
0.017806033628981855,1.385
0.01777091251944171,1.386
0.01773639661040484,1.387
0.017702387006779015,1.388
0.017668816462696454,1.389
0.017635654404133786,1.39
0.017602903449904162,1.391
0.01757058764556542,1.392
0.017538737363942524,1.393
0.01750738128257982,1.394
0.017476550925857877,1.395
0.017446290654688532,1.396
0.017416663771718178,1.397
0.01738775250922267,1.398
0.017359653757482663,1.399
0.017332472976325244,1.4
0.017306318515247963,1.401
0.017281297713719095,1.402
0.01725751496452591,1.403
0.017235070839358765,1.404
0.017214060870085694,1.405
0.017194572980277194,1.406
0.017176684278317086,1.407
0.017160459799535423,1.408
0.01714595451631929,1.409
0.017133216540331397,1.41
0.01712228890472327,1.411
0.017113209387916575,1.412
0.01710600924539615,1.413
0.017100712055942394,1.414
0.017097333666247463,1.415
0.017095883536766724,1.416
0.01709636695262462,1.417
0.0170987869127133,1.418
0.017103144320343842,1.419
0.017109435512413673,1.42
0.017117648094277883,1.421
0.017127758848801744,1.422
0.017139736263477014,1.423
0.017153545265597415,1.424
0.017169150381473534,1.425
0.017186516036033203,1.426
0.017205604327650493,1.427
0.017226371041742836,1.428
0.017248761661813487,1.429
0.017272710304837277,1.43
0.01729814302719443,1.431
0.017324983498088992,1.432
0.017353157977636643,1.433
0.017382597789330306,1.434
0.017413238507837377,1.435
0.017445015857398837,1.436
0.01747785980915143,1.437
0.0175116903581171,1.438
0.017546417834753487,1.439
0.017581946617372203,1.44
0.017618178853302052,1.441
0.017655016222484436,1.442
0.017692359540462967,1.443
0.017730106568501956,1.444
0.017768148502803185,1.445
0.017806366004216354,1.446
0.017844626449838988,1.447
0.017882783715638683,1.448
0.017920679596859702,1.449
0.017958144559658093,1.45
0.017994996908291743,1.451
0.0180310425138974,1.452
0.01806607832648723,1.453
0.018099900146912363,1.454
0.018132312115189314,1.455
0.018163134830442334,1.456
0.018192209505464265,1.457
0.01821939608938918,1.458
0.018244565201517956,1.459
0.018267588951883476,1.46
0.018288339806463105,1.461
0.018306700571533104,1.462
0.018322578096692754,1.463
0.01833591230045318,1.464
0.018346677965642138,1.465
0.018354880436595493,1.466
0.018360547478911343,1.467
0.018363719737972833,1.468
0.018364441732424356,1.469
0.01836275458667288,1.47
0.018358691013314887,1.471
0.01835227244753359,1.472
0.018343507675763822,1.473
0.018332391897126578,1.474
0.01831890592453961,1.475
0.01830301742131809,1.476
0.018284686443652755,1.477
0.018263874815930666,1.478
0.01824055683010072,1.479
0.018214728958324166,1.48
0.018186416940400952,1.481
0.018155679237087295,1.482
0.018122606473817734,1.483
0.018087316902037444,1.484
0.018049948121337523,1.485
0.018010646005940475,1.486
0.017969554484927607,1.487
0.017926812251856137,1.488
0.017882558290301196,1.489
0.01783694073619073,1.49
0.017790123027088316,1.491
0.01774228558366965,1.492
0.017693623698153128,1.493
0.01764434290448945,1.494
0.017594653269728595,1.495
0.017544763805203305,1.496
0.017494877701224588,1.497
0.01744518857405865,1.498
0.017395877590452264,1.499
0.01734711136590101,1.5
0.017299040805448865,1.501
0.017251800973010496,1.502
0.017205511568181862,1.503
0.017160277423588874,1.504
0.017116188690776288,1.505
0.017073320632633275,1.506
0.017031733435716286,1.507
0.016991473032278038,1.508
0.016952573539277715,1.509
0.016915060779908415,1.51
0.016878955752569976,1.511
0.016844276994360724,1.512
0.016811041035033787,1.513
0.016779260523897454,1.514
0.016748940643443178,1.515
0.01672007628214916,1.516
0.016692652773335235,1.517
0.016666650135661362,1.518
0.01664204815831285,1.519
0.016618830216374388,1.52
0.01659698532267337,1.521
0.016576508685028656,1.522
0.01655740116869082,1.523
0.016539667905825086,1.524
0.0165233159972019,1.525
0.01650835106881811,1.526
0.01649477282482566,1.527
0.016482571087049928,1.528
0.016471724619925604,1.529
0.016462202968594564,1.53
0.016453968702173683,1.531
0.016446977644028186,1.532
