VaMe,time
-0.008325392858554399,0.001
-0.007575904164909171,0.002
-0.0068280839813663384,0.003
-0.006082587682607538,0.004
-0.005340043524311328,0.005
-0.004601045428714114,0.006
-0.003866147170665408,0.007
-0.0031358580666542295,0.008
-0.0024106402151173266,0.009
-0.00169090729753147,0.01
-0.000977024910551345,0.011
-0.000269312452552724,0.012
0.0004319532036186265,0.013
0.0011265318110331086,0.014
0.0018142112824650637,0.015
0.002494797559180896,0.016
0.003168106495079305,0.017
0.003833962185581738,0.018
0.004492201663862879,0.019
0.005142681374966595,0.02
0.0057852816752075095,0.021
0.006419908402817092,0.022
0.007046491630708099,0.023
0.007664981842666984,0.024
0.008275343983412696,0.025
0.008877550198178435,0.026
0.009471572755886296,0.027
0.01005737909243564,0.028
0.010634929525048981,0.029
0.011204176364435957,0.03
0.01176506390998877,0.031
0.012317529799250743,0.032
0.01286150686503296,0.033
0.013396923704617791,0.034
0.013923703263266134,0.035
0.01444176117114504,0.036
0.014951007283776421,0.037
0.01545135190410119,0.038
0.015942714325670005,0.039
0.016425030008383495,0.04
0.016898253580151436,0.041
0.01736235591682204,0.042
0.017817315825732486,0.043
0.01826311177859428,0.044
0.018699721639215443,0.045
0.01912713200030552,0.046
0.019545350483425376,0.047
0.019954414147453713,0.048
0.02035439119121969,0.049
0.020745375137721962,0.05
0.02112747282400223,0.051
0.021500793259516888,0.052
0.02186544762504901,0.053
0.02222156224833192,0.054
0.022569294901687173,0.055
0.02290884440281816,0.056
0.023240450013827702,0.057
0.0235643814201733,0.058
0.02388092259894981,0.059
0.02419035680068218,0.06
0.02449296195283539,0.061
0.024789018812526355,0.062
0.0250788242076213,0.063
0.025362701315816884,0.064
0.025641004442485654,0.065
0.025914118502630038,0.066
0.026182453965101826,0.067
0.026446438374228567,0.068
0.02670650573263808,0.069
0.026963085147369257,0.07
0.027216591156584043,0.071
0.027467419325256783,0.072
0.027715948178858817,0.073
0.02796254402844551,0.074
0.028207565060960487,0.075
0.028451363828949663,0.076
0.02869428841074637,0.077
0.028936682417643987,0.078
0.02917888396946633,0.079
0.029421223798959426,0.08
0.029664022731883247,0.081
0.029907588816545077,0.082
0.030152214274864295,0.083
0.030398172256588092,0.084
0.03064571340837058,0.085
0.030895063054989885,0.086
0.03114642053009705,0.087
0.031399960920443,0.088
0.03165583717788325,0.089
0.03191418013489113,0.09
0.032175096561983245,0.091
0.03243866950361788,0.092
0.032704964963514396,0.093
0.032974043377257685,0.094
0.03324597080350362,0.095
0.033520825569292916,0.096
0.033798697475925836,0.097
0.03407967881123504,0.098
0.03436385249351235,0.099
0.034651288814061244,0.1
0.03494205619179345,0.101
0.035236237558124245,0.102
0.03553394121815983,0.103
0.035835302004833855,0.104
0.03614047336549603,0.105
0.03644961291072843,0.106
0.03676286624698325,0.107
0.03708035612565914,0.108
0.037402180447448474,0.109
0.03772841456312815,0.11
0.038059111240012426,0.111
0.03839429697637651,0.112
0.03873396842468014,0.113
0.039078092894125144,0.114
0.039426612805976036,0.115
0.03977945098648014,0.116
0.04013651450137116,0.117
0.04049769623339273,0.118
0.040862873793434513,0.119
0.041231905516863114,0.12
0.0416046242287889,0.121
0.04198083168378804,0.122
0.04236029772816605,0.123
0.042742765243166995,0.124
0.04312795819474364,0.125
0.043515590362007174,0.126
0.043905374182230554,0.127
0.04429702925484178,0.128
0.04469028908757166,0.129
0.04508490403605282,0.13
0.0454806386514493,0.131
0.045877262797189844,0.132
0.0462745375984891,0.133
0.04667220123310513,0.134
0.04706996417437487,0.135
0.047467519029999954,0.136
0.04786455833333883,0.137
0.04826078942568175,0.138
0.0486559392160148,0.139
0.04904974511980226,0.14
0.049441936217532526,0.141
0.04983222036546975,0.142
0.05022028819685681,0.143
0.05060582339067373,0.144
0.05098850209307573,0.145
0.05136798171442601,0.146
0.05174389614984764,0.147
0.05211586762163625,0.148
0.0524835243379937,0.149
0.05284650846167394,0.15
0.053204469837156855,0.151
0.053557049454874855,0.152
0.05390386248263551,0.153
0.054244492282516786,0.154
0.054578496651652486,0.155
0.05490541548448255,0.156
0.055224769971293296,0.157
0.055536053526804206,0.158
0.055838723694836966,0.159
0.056132203474391615,0.16
0.05641588863685504,0.161
0.056689149723288056,0.162
0.056951325893530684,0.163
0.05720172453036422,0.164
0.05743964112187495,0.165
0.057664395107397425,0.166
0.057875366355129756,0.167
0.05807202049995678,0.168
0.0582539152588695,0.169
0.05842068231456726,0.17
0.058571990481790175,0.171
0.05870751850084701,0.172
0.05882696899872843,0.173
0.05893011989510789,0.174
0.05901687996404787,0.175
0.05908732217212657,0.176
0.0591416865296209,0.177
0.05918035411224684,0.178
0.05920379892536852,0.179
0.05921253186189055,0.18
0.059207062328773756,0.181
0.05918789720793239,0.182
0.05915556751539866,0.183
0.0591106566753982,0.184
0.05905381543070886,0.185
0.05898576218974673,0.186
0.05890727213116667,0.187
0.05881915917541235,0.188
0.058722254849127714,0.189
0.05861738732531706,0.19
0.05850536283288721,0.191
0.05838695066267059,0.192
0.05826287287225084,0.193
0.05813379972302555,0.194
0.058000349680082525,0.195
0.0578630903564361,0.196
0.05772253789644371,0.197
0.057579155176050605,0.198
0.05743335054270858,0.199
0.05728547867270448,0.2
0.05713584421915802,0.201
0.05698470777206803,0.202
0.05683229301437371,0.203
0.056678794174995197,0.204
0.056524383577705194,0.205
0.05636921957866306,0.206
0.05621345508860046,0.207
0.056057246276742655,0.208
0.0559007602700792,0.209
0.05574417997365734,0.21
0.05558770371134256,0.211
0.055431537353263324,0.212
0.055275879039719006,0.213
0.055120905080377584,0.214
0.05496677219897259,0.215
0.05481364082623179,0.216
0.05466170627882489,0.217
0.054511221568688865,0.218
0.054362503761476895,0.219
0.05421592238885701,0.22
0.05407187272905567,0.221
0.0539307441046874,0.222
0.05379290164754016,0.223
0.053658691184142376,0.224
0.05352845461226402,0.225
0.053402538266565124,0.226
0.053281288916741866,0.227
0.0531650402068966,0.228
0.053054096436729994,0.229
0.05294872313831279,0.23
0.052849147197484944,0.231
0.052755558531796365,0.232
0.052668107629931675,0.233
0.05258690484060024,0.234
0.05251202809325327,0.235
0.052443535818159456,0.236
0.05238147773447877,0.237
0.05232589978844693,0.238
0.052276842502761975,0.239
0.052234333145842055,0.24
0.05219837405419507,0.241
0.05216893319741856,0.242
0.052145943882306846,0.243
0.052129313504924925,0.244
0.05211893403053826,0.245
0.052114687662557155,0.246
0.05211644564320093,0.247
0.05212406093101886,0.248
0.05213735734507367,0.249
0.05215611957963683,0.25
0.052180087895885366,0.251
0.05220895705848168,0.252
0.05224237763000873,0.253
0.052279961891587734,0.254
0.05232129730492778,0.255
0.05236596505321431,0.256
0.05241355768061097,0.257
0.05246369010510632,0.258
0.052515999577162596,0.259
0.05257013228938977,0.26
0.052625722421273634,0.261
0.05268238215642078,0.262
0.05273971638939213,0.263
0.052797352693905564,0.264
0.052854968766143894,0.265
0.052912309096436905,0.266
0.05296918924824455,0.267
0.05302548793629473,0.268
0.053081128670361,0.269
0.0531360540347548,0.27
0.05319019842466723,0.271
0.053243469683857576,0.272
0.053295747922915075,0.273
0.05334689794196728,0.274
0.05339678485073899,0.275
0.05344528689843395,0.276
0.053492304661771545,0.277
0.05353776652798457,0.278
0.0535816297820547,0.279
0.05362387638518029,0.28
0.053664502945157594,0.281
0.053703505225278565,0.282
0.05374086018137038,0.283
0.05377651376900183,0.284
0.053810383018411734,0.285
0.0538423712142989,0.286
0.05387238682947268,0.287
0.0539003580251556,0.288
0.053926238213746314,0.289
0.053950000066792465,0.29
0.05397161834973636,0.291
0.05399105001534561,0.292
0.05400822753608962,0.293
0.054023072484118737,0.294
0.054035517762215594,0.295
0.054045523660981504,0.296
0.05405308217182692,0.297
0.054058209611925395,0.298
0.05406092938569301,0.299
0.05406125049776205,0.3
0.05405915374822937,0.301
0.05405459525264682,0.302
0.054047522975164464,0.303
0.05403789426644052,0.304
0.05402568735535778,0.305
0.0540109056634988,0.306
0.05399357595236847,0.307
0.05397374202830446,0.308
0.053951455857923734,0.309
0.053926767524084894,0.31
0.05389971469045752,0.311
0.05387031145887998,0.312
0.053838537649097316,0.313
0.053804333519284764,0.314
0.05376760535450822,0.315
0.05372824098246702,0.316
0.053686129665260506,0.317
0.05364118165409225,0.318
0.05359334383008037,0.319
0.05354260783394633,0.32
0.05348900774647844,0.321
0.053432606213168136,0.322
0.053373471389063745,0.323
0.05331165415360567,0.324
0.0532471798899842,0.325
0.05318005890257785,0.326
0.0531103033889377,0.327
0.053037938256247544,0.328
0.05296300250934966,0.329
0.05288554258041376,0.33
0.05280559942259939,0.331
0.052723192883509705,0.332
0.052638311504101316,0.333
0.05255091609692774,0.334
0.05246095578329529,0.335
0.05236838644373183,0.336
0.05227318205181122,0.337
0.05217533332950673,0.338
0.052074833492586,0.339
0.051971661990092566,0.34
0.05186578434967111,0.341
0.051757172925234116,0.342
0.0516458335408699,0.343
0.05153182233335048,0.344
0.05141524833487033,0.345
0.05129626366545823,0.346
0.05117504463384902,0.347
0.051051767929220254,0.348
0.050926589641253926,0.349
0.05079963798771491,0.35
0.05067102299483642,0.351
0.05054085398010872,0.352
0.05040925526266875,0.353
0.0502763778006261,0.354
0.05014240729845832,0.355
0.05000756819635912,0.356
0.04987212128001432,0.357
0.049736351832403214,0.358
0.0496005493817097,0.359
0.04946499134567632,0.36
0.049329946635008684,0.361
0.04919569869216561,0.362
0.04906257025620644,0.363
0.04893093440661983,0.364
0.04880120751043587,0.365
0.04867382683317805,0.366
0.048549222744066915,0.367
0.04842780271211565,0.368
0.048309955849317146,0.369
0.04819606716599214,0.37
0.048086527450739075,0.371
0.04798173555367831,0.372
0.047882095390066846,0.373
0.047788009779199225,0.374
0.04769987236448282,0.375
0.04761805812075856,0.376
0.047542913485164116,0.377
0.04747474948065586,0.378
0.04741384156523214,0.379
0.04736043531787084,0.38
0.04731475288813046,0.381
0.04727699627250499,0.382
0.047247346756856656,0.383
0.04722596200669804,0.384
0.047212973351325176,0.385
0.04720848573089193,0.386
0.047212581326679534,0.387
0.047225325753807994,0.388
0.04724677413164086,0.389
0.047276974257551355,0.39
0.04731596528542936,0.391
0.04736377177226144,0.392
0.04742039439031195,0.393
0.04748580103910834,0.394
0.04755992363817785,0.395
0.047642661812997575,0.396
0.04773388876840969,0.397
0.04783345506194145,0.398
0.04794119021459105,0.399
0.04805690402428086,0.4
0.048180389115827046,0.401
0.04831142507414477,0.402
0.0484497829986142,0.403
0.048595228317739575,0.404
0.048747519862960956,0.405
0.04890640446084833,0.406
0.04907160797536401,0.407
0.04924282504844211,0.408
0.04941971032104634,0.409
0.04960187324840094,0.41
0.04978887679121954,0.411
0.04998023877541178,0.412
0.050175434220714056,0.413
0.05037389647774745,0.414
0.0505750164260298,0.415
0.05077814362607571,0.416
0.050982594885729586,0.417
0.05118767078616057,0.418
0.051392676206309204,0.419
0.051596940089341015,0.42
0.05179982961781442,0.421
0.052000754183624404,0.422
0.052199155980085225,0.423
0.05239448865970252,0.424
0.052586196383247526,0.425
0.05277371234316489,0.426
0.05295648137485339,0.427
0.05313398982980679,0.428
0.053305784422288484,0.429
0.053471473447863974,0.43
0.05363071137473656,0.431
0.05378317130695451,0.432
0.05392851624963201,0.433
0.05406638750542167,0.434
0.054196419614954534,0.435
0.054318270181154274,0.436
0.054431647693425476,0.437
0.054536329240775415,0.438
0.05463216470704515,0.439
0.054719065358178005,0.44
0.054796976969238256,0.441
0.054865846578782046,0.442
0.054925606529095096,0.443
0.054976192047273616,0.444
0.05501757867674848,0.445
0.05504981533704889,0.446
0.055073041187594284,0.447
0.055087483404913484,0.448
0.05509343632088152,0.449
0.05509122671474738,0.45
0.05508117913951935,0.451
0.05506360246698919,0.452
0.055038804796322074,0.453
0.05500711926198908,0.454
0.0549689205399318,0.455
0.05492462502760875,0.456
0.05487467525621532,0.457
0.05481951443529157,0.458
0.054759565395086245,0.459
0.054695226897504445,0.46
0.05462688340609788,0.461
0.054554912811533275,0.462
0.0544796831999592,0.463
0.05440154067969776,0.464
0.054320795638617685,0.465
0.05423771480561928,0.466
0.054152519926475205,0.467
0.05406538766387604,0.468
0.05397644864460905,0.469
0.053885788576761934,0.47
0.05379345159979572,0.471
0.05369944178864471,0.472
0.053603721037845914,0.473
0.05350620777541994,0.474
0.05340678154648787,0.475
0.053305291927354524,0.476
0.05320156657125942,0.477
0.05309541592272652,0.478
0.0529866356158056,0.479
0.05287500912657164,0.48
0.05276031299996436,0.481
0.05264232488027802,0.482
0.0525208313957064,0.483
0.05239563038121096,0.484
0.052266522061962375,0.485
0.052133292825966626,0.486
0.05199571048725343,0.487
0.0518535455989825,0.488
0.051706608243354664,0.489
0.051554779900953696,0.49
0.051398029819067215,0.491
0.051236413198981416,0.492
0.05107005186951403,0.493
0.05089910156792495,0.494
0.05072371780159726,0.495
0.05054404011393957,0.496
0.05036020242834201,0.497
0.05017235352179776,0.498
0.04998067000036498,0.499
0.04978535901958961,0.5
0.04958665534007573,0.501
0.049384816742251855,0.502
0.04918011931003558,0.503
0.048972851415361646,0.504
0.04876330414987854,0.505
0.04855175732517645,0.506
0.04833846493903967,0.507
0.04812364868644267,0.508
0.0479075032442682,0.509
0.047690206568706164,0.51
0.047471927067506706,0.511
0.04725282514475197,0.512
0.04703304946272364,0.513
0.046812728753762425,0.514
0.04659196196448793,0.515
0.04637081257448335,0.516
0.046149310679060966,0.517
0.0459274589795423,0.518
0.0457052363495428,0.519
0.045482596050656694,0.52
0.04525946072081686,0.521
0.04503572252889749,0.522
0.04481125600757271,0.523
0.04458594075965716,0.524
0.04435968512525355,0.525
0.04413244353851712,0.526
0.04390422269565612,0.527
0.04367507390853106,0.528
0.043445072316764914,0.529
0.04321429155974656,0.53
0.042982792429311904,0.531
0.04275063603648298,0.532
0.04251790958191298,0.533
0.042284747353331764,0.534
0.04205134039562123,0.535
0.04181793495668934,0.536
0.04158482165525601,0.537
0.04135231868633398,0.538
0.04112075290616404,0.539
0.0408904421995112,0.54
0.04066168141690708,0.541
0.040434732936274295,0.542
0.040209821974450805,0.543
0.03998713621212439,0.544
0.03976682896521042,0.545
0.039549024624915136,0.546
0.039333824016810875,0.547
0.0391213062383579,0.548
0.03891152624136793,0.549
0.03870451517572944,0.55
0.03850029173862496,0.551
0.03829888240481688,0.552
0.03810034130693306,0.553
0.03790476314236131,0.554
0.037712286764423585,0.555
0.03752308969589877,0.556
0.037337375435451264,0.557
0.037155356185443175,0.558
0.03697723502779622,0.559
0.03680319395060117,0.56
0.036633391971745054,0.561
0.03646797003707384,0.562
0.036307056141511376,0.563
0.036150767916064745,0.564
0.0359992133611329,0.565
0.03585249078628497,0.566
0.03571068850583914,0.567
0.03557388450756962,0.568
0.03544214613915459,0.569
0.03531552969288533,0.57
0.035194079581218306,0.571
0.035077826682652684,0.572
0.03496678547112114,0.573
0.03486094971228317,0.574
0.03476028755087814,0.575
0.03466473863047411,0.576
0.03457421495982121,0.577
0.03448860318070268,0.578
0.034407764739341914,0.579
0.03433153434471624,0.58
0.03425972029605834,0.581
0.03419210764283396,0.582
0.034128460287610955,0.583
0.03406851949891903,0.584
0.034012003373559585,0.585
0.03395861341324666,0.586
0.03390804737416421,0.587
0.0338600124323474,0.588
0.033814233891692295,0.589
0.03377045687277486,0.59
0.03372843963683066,0.591
0.03368794056673853,0.592
0.033648707768585306,0.593
0.033610481507141965,0.594
0.033573008655697435,0.595
0.033536058680275406,0.596
0.03349943328446217,0.597
0.0334629683879976,0.598
0.0334265299793644,0.599
0.033390005684150126,0.6
0.03335329338579084,0.601
0.03331628795546764,0.602
0.03327886942287348,0.603
0.033240899278639525,0.604
0.03320222804161428,0.605
0.03316270861639075,0.606
0.033122208098093714,0.607
0.03308061479256662,0.608
0.03303783979227932,0.609
0.03299381344744425,0.61
0.032948478065100845,0.611
0.03290177887118162,0.612
0.03285365536366957,0.613
0.03280403451956013,0.614
0.032752826121175284,0.615
0.03269991923423367,0.616
0.03264517907758373,0.617
0.03258844639004118,0.618
0.03252954340026153,0.619
0.03246828781852761,0.62
0.032404512281176946,0.621
0.03233808505372689,0.622
0.032268927068105274,0.623
0.03219701972539767,0.624
0.03212239881510947,0.625
0.032045134366009545,0.626
0.0319653069492238,0.627
0.03188299942180707,0.628
0.03179831100063454,0.629
0.03171137910872923,0.63
0.031622392877392956,0.631
0.031531594450913095,0.632
0.03143927050179597,0.633
0.03134573697089701,0.634
0.03125132003109186,0.635
0.031156338330406503,0.636
0.031061094423021532,0.637
0.030965877958225127,0.638
0.0308709726707019,0.639
0.030776658211969937,0.64
0.030683205172966767,0.641
0.03059086800455519,0.642
0.03049988235673684,0.643
0.030410467564166495,0.644
0.03032282805441853,0.645
0.030237151145080274,0.646
0.03015360775771289,0.647
0.03007236119947044,0.648
0.02999357938532374,0.649
0.029917442838421925,0.65
0.029844145333152806,0.651
0.029773887947753902,0.652
0.029706869149287943,0.653
0.029643274288897858,0.654
0.029583267380185522,0.655
0.029526986609149035,0.656
0.029474543364492782,0.657
0.029426023359513335,0.658
0.029381488022186174,0.659
0.029340974730390327,0.66
0.029304495808315345,0.661
0.02927203809943887,0.662
0.02924356502277418,0.663
0.02921902087202188,0.664
0.029198335951296926,0.665
0.029181431725831753,0.666
0.0291682255936464,0.667
0.02915863483486223,0.668
0.0291525793377415,0.669
0.029149982947880515,0.67
0.029150773585056376,0.671
0.02915488236172307,0.672
0.029162241701371088,0.673
0.029172782047914323,0.674
0.029186426473899678,0.675
0.029203083906752733,0.676
0.02922264540463418,0.677
0.02924498826923331,0.678
0.02926998686030348,0.679
0.02929752445394057,0.68
0.029327501515363487,0.681
0.02935983816213241,0.682
0.029394470305850687,0.683
0.02943134058737392,0.684
0.029470386497576363,0.685
0.029511529258168138,0.686
0.029554667658525585,0.687
0.029599678072821715,0.688
0.029646417533934637,0.689
0.0296947273126557,0.69
0.029744437676591396,0.691
0.029795374922561416,0.692
0.029847369860422242,0.693
0.029900264820680207,0.694
0.029953915218868362,0.695
0.030008182889343173,0.696
0.030062924758177553,0.697
0.030117989039974237,0.698
0.030173226876912172,0.699
0.03022851180656196,0.7
0.030283754675575255,0.701
0.030338908657810387,0.702
0.030393964370992486,0.703
0.030448937230565503,0.704
0.030503850321540276,0.705
0.030558717854978563,0.706
0.03061353677851757,0.707
0.03066829025782101,0.708
0.030722957884109506,0.709
0.030777525738642675,0.71
0.030831993838047553,0.711
0.030886380477277285,0.712
0.030940722922083833,0.713
0.030995074149816053,0.714
0.031049495902720752,0.715
0.031104048959740102,0.716
0.031158782480098485,0.717
0.0312137259178471,0.718
0.03126888706836487,0.719
0.031324255994972364,0.72
0.03137981092610741,0.721
0.03143552282713199,0.722
0.03149135735411637,0.723
0.03154727336623435,0.724
0.03160321778908629,0.725
0.031659119926334786,0.726
0.03171489138927703,0.727
0.03177043365769245,0.728
0.031825647403320896,0.729
0.03188043657864816,0.73
0.03193470502414584,0.731
0.03198834746532463,0.732
0.03204123920448171,0.733
0.03209322897391661,0.734
0.032144136218907125,0.735
0.032193751166340774,0.736
0.032241835782515924,0.737
0.03228812487150814,0.738
0.0323323298092604,0.739
0.03237414867886491,0.74
0.03241328208930332,0.741
0.032449450118813894,0.742
0.032482406223976294,0.743
0.03251194547622912,0.744
0.032537905746800044,0.745
0.03256016139635612,0.746
0.03257860943966865,0.747
0.03259315161319861,0.748
0.032603683988469044,0.749
0.03261010548053345,0.75
0.03261234145422313,0.751
0.03261036789539153,0.752
0.032604225199619835,0.753
0.03259401753759556,0.754
0.032579898058354734,0.755
0.03256204455181112,0.756
0.032540637042455176,0.757
0.03251585116387721,0.758
0.032487868874814835,0.759
0.032456893170019666,0.76
0.032423154325438505,0.761
0.03238690455896362,0.762
0.0323484038883164,0.763
0.032307905266553555,0.764
0.03226564979558193,0.765
0.03222187419799525,0.766
0.032176820793015176,0.767
0.03213074028463484,0.768
0.03208388529725776,0.769
0.03203649882672834,0.77
0.0319888062068862,0.771
0.03194101621196758,0.772
0.031893327039620986,0.773
0.031845929474940186,0.774
0.031799004349220804,0.775
0.031752716209745596,0.776
0.03170720802893984,0.777
0.031662601199144165,0.778
0.03161899985035863,0.779
0.03157649474292285,0.78
0.03153516323216701,0.781
0.031495065435556274,0.782
0.03145624093609752,0.783
0.031418711271633,0.784
0.031382488089825376,0.785
0.03134758171595427,0.786
0.031314005613095414,0.787
0.031281775324400435,0.788
0.03125090244912032,0.789
0.031221385877075025,0.79
0.031193204763166213,0.791
0.031166317522456206,0.792
0.031140666353508976,0.793
0.03111618282381349,0.794
0.0310927911398237,0.795
0.031070408299755832,0.796
0.031048941238753736,0.797
0.031028281544523223,0.798
0.031008300259661798,0.799
0.03098884708021334,0.8
0.030969755496661498,0.801
0.030950850377446503,0.802
0.030931953799600665,0.803
0.03091288743625917,0.804
0.030893471171830562,0.805
0.030873517822767774,0.806
0.03085282569835107,0.807
0.03083117503927872,0.808
0.030808334135532765,0.809
0.03078407345729345,0.81
0.030758181369111775,0.811
0.03073047674314891,0.812
0.030700816206990843,0.813
0.03066909473571279,0.814
0.030635238867389294,0.815
0.0305991924046474,0.816
0.030560898881178626,0.817
0.03052029312239427,0.818
0.03047731055807068,0.819
0.03043190662361349,0.82
0.030384072656036584,0.821
0.030333841874923065,0.822
0.030281284875663596,0.823
0.0302264965190572,0.824
0.030169578129457787,0.825
0.030110621390907432,0.826
0.030049700719489193,0.827
0.029986874270223927,0.828
0.029922185984463362,0.829
0.02985566356412282,0.83
0.029787316458351254,0.831
0.029717140459847295,0.832
0.029645128649055,0.833
0.029571282341094414,0.834
0.029495616085158976,0.835
0.029418153587442535,0.836
0.029338916928481864,0.837
0.029257920446608205,0.838
0.029175179591711474,0.839
0.029090730184410375,0.84
0.029004645122175206,0.841
0.028917040448496936,0.842
0.028828069007609616,0.843
0.028737903789299066,0.844
0.028646718671309385,0.845
0.02855467904036075,0.846
0.028461946991527112,0.847
0.028368690907698915,0.848
0.02827508753071704,0.849
0.028181314724971332,0.85
0.028087542438256615,0.851
0.027993931820870527,0.852
0.02790064402377572,0.853
0.027807850060375106,0.854
0.027715733634402693,0.855
0.027624485017542097,0.856
0.027534289827391204,0.857
0.02744532215834237,0.858
0.02735774900497882,0.859
0.027271741741566897,0.86
0.027187485923329518,0.861
0.027105185497189776,0.862
0.02702506160030751,0.863
0.02694734714166489,0.864
0.02687227842998163,0.865
0.026800085397451035,0.866
0.026730983730221095,0.867
0.026665173296089525,0.868
0.026602843502767117,0.869
0.02654418107668021,0.87
0.026489375743972005,0.871
0.02643862231792629,0.872
0.026392119307786434,0.873
0.026350064546188583,0.874
0.026312648431717753,0.875
0.026280046656932864,0.876
0.026252416812617058,0.877
0.026229901597230834,0.878
0.02621263543944924,0.879
0.026200749520301606,0.88
0.02619437301906525,0.881
0.02619363051229325,0.882
0.026198636338344124,0.883
0.02620948815205455,0.884
0.02622626317781457,0.885
0.02624901832488632,0.886
0.026277791009123752,0.887
0.026312598516231103,0.888
0.026353438591461945,0.889
0.026400293810521103,0.89
0.026453137413011883,0.891
0.026511936339765178,0.892
0.026576649385586883,0.893
0.026647221787907106,0.894
0.026723580858053365,0.895
0.02680563631174522,0.896
0.026893283555493332,0.897
0.026986405895180126,0.898
0.02708487426827896,0.899
0.027188545502123625,0.9
0.027297260375840897,0.901
0.027410842146967245,0.902
0.027529095644488844,0.903
0.027651806931342872,0.904
0.027778743725717307,0.905
0.027909656798638747,0.906
0.02804428227512801,0.907
0.02818234438999908,0.908
0.02832355807855322,0.909
0.02846763090568723,0.91
0.028614264145149317,0.911
0.028763153088903204,0.912
0.028913986645690226,0.913
0.029066445875078895,0.914
0.0292202005099677,0.915
0.029374903909102145,0.916
0.029530191202753835,0.917
0.029685685837537123,0.918
0.029841013231162318,0.919
0.029995815852714606,0.92
0.030149765473558438,0.921
0.030302570396331385,0.922
0.03045397629538439,0.923
0.030603759933574677,0.924
0.030751715906353266,0.925
0.030897639776156196,0.926
0.031041316438140187,0.927
0.031182521009195493,0.928
0.031321028558035445,0.929
0.031456623203614885,0.93
0.03158910183367455,0.931
0.03171827311264949,0.932
0.031843954130895,0.933
0.031965966971428665,0.934
0.03208413671201138,0.935
0.03219829119098151,0.936
0.032308261494408866,0.937
0.03241388094706336,0.938
0.032514979955154844,0.939
0.03261137741687566,0.94
0.03270287692606566,0.941
0.03278927594066262,0.942
0.03287038483732661,0.943
0.032946046109460926,0.944
0.03301614698290646,0.945
0.03308062243049652,0.946
0.03313944758101892,0.947
0.03319262050999131,0.948
0.033240141226374226,0.949
0.0332819996905102,0.95
0.03331818163655061,0.951
0.033348685538014025,0.952
0.03337353829399507,0.953
0.03339280362875462,0.954
0.0334065819768259,0.955
0.033415001769487876,0.956
0.03341820346611504,0.957
0.03341632272393102,0.958
0.03340948473085185,0.959
0.03339781497663992,0.96
0.03338145653395986,0.961
0.03336058024302107,0.962
0.03333538114332207,0.963
0.03330606370926199,0.964
0.03327283036877797,0.965
0.033235887512965814,0.966
0.033195463746249286,0.967
0.03315182264563969,0.968
0.033105259808395356,0.969
0.03305608632071951,0.97
0.033004609685783344,0.971
0.03295112532148854,0.972
0.03289592085483881,0.973
0.0328392828678514,0.974
0.03278149747676013,0.975
0.032722844911164534,0.976
0.03266359207397258,0.977
0.032603986889928036,0.978
0.032544256886505994,0.979
0.032484612349403336,0.98
0.032425252319379864,0.981
0.032366370437900284,0.982
0.03230815765860963,0.983
0.032250800025851435,0.984
0.0321944719321017,0.985
0.03213932858127042,0.986
0.03208550290584357,0.987
0.03203310768648175,0.988
0.03198223773364339,0.989
0.031932968191292245,0.99
0.03188535095535438,0.991
0.031839413098078244,0.992
0.03179515715530094,0.993
0.0317525612576858,0.994
0.03171158132104098,0.995
0.031672158335053095,0.996
0.0316342280760758,0.997
0.03159772788223106,0.998
0.03156259760172254,0.999
0.03152877443073487,1.0
0.03149618395520539,1.001
0.03146473310504924,1.002
0.03143430996028137,1.003
0.03140478854901624,1.004
0.03137603231722255,1.005
0.03134789234290388,1.006
0.031320201726567916,1.007
0.03129277227154381,1.008
0.03126539806131787,1.009
0.031237863240096492,1.01
0.031209948293486972,1.011
0.03118143192634356,1.012
0.03115208785676382,1.013
0.031121677967674132,1.014
0.03108994787827405,1.015
0.031056632111442644,1.016
0.031021468830649834,1.017
0.03098421705343185,1.018
0.03094466931664228,1.019
0.03090265586181378,1.02
0.030858038971315307,1.021
0.030810698386403674,1.022
0.030760513243343324,1.023
0.0307073521003,1.024
0.030651079054126045,1.025
0.030591570591786355,1.026
0.030528732914880223,1.027
0.030462514820566538,1.028
0.030392914699653002,1.029
0.030319980369032856,1.03
0.030243800551098644,1.031
0.030164487749215454,1.032
0.03008215800526467,1.033
0.029996921864998166,1.034
0.029908895268856303,1.035
0.029818220477310888,1.036
0.02972508219418306,1.037
0.029629713285235948,1.038
0.02953239054671882,1.039
0.02943342259614165,1.04
0.029333132737091632,1.041
0.029231841359563502,1.042
0.02912985529116801,1.043
0.0290274686089268,1.044
0.028924970431291584,1.045
0.028822651854685712,1.046
0.02872080835258266,1.047
0.02861973747804094,1.048
0.028519732752234003,1.049
0.028421075599726585,1.05
0.02832402883475854,1.051
0.028228834986042253,1.052
0.02813571880549146,1.053
0.028044890046028947,1.054
0.02795654374937996,1.055
0.027870857801308147,1.056
0.027787989275570815,1.057
0.02770807269794323,1.058
0.027631222285421576,1.059
0.02755753646914114,1.06
0.02748710165854292,1.061
0.027419993651210145,1.062
0.027356276211257413,1.063
0.027295997291818138,1.064
0.027239185266234724,1.065
0.02718584845805215,1.066
0.02713597866292018,1.067
0.027089555929720205,1.068
0.02704655177099259,1.069
0.027006929743385873,1.07
0.026970643321237355,1.071
0.026937631619556708,1.072
0.02690781507375124,1.073
0.02688109456578404,1.074
0.026857355415233812,1.075
0.026836473590347982,1.076
0.026818320541604497,1.077
0.02680276471927667,1.078
0.026789669091490366,1.079
0.026778885436122928,1.08
0.02677024872070895,1.081
0.02676357542420448,1.082
0.026758665620656017,1.083
0.02675530499643175,1.084
0.02675326462648982,1.085
0.02675229975524364,1.086
0.02675214968840788,1.087
0.026752539530586917,1.088
0.026753182527507725,1.089
0.026753780493407566,1.09
0.026754021257746688,1.091
0.026753576799868013,1.092
0.026752107674769966,1.093
0.02674927404067367,1.094
0.026744748166720875,1.095
0.026738223560413714,1.096
0.026729418145058942,1.097
0.026718070158547515,1.098
0.02670392719374496,1.099
0.02668673419333601,1.1
0.026666231567379663,1.101
0.026642168683680845,1.102
0.02661432529552273,1.103
0.02658253068967803,1.104
0.026546675634138227,1.105
0.02650671527669015,1.106
0.026462662219077383,1.107
0.026414570424184974,1.108
0.026362513542820674,1.109
0.026306566827448603,1.11
0.026246803327283585,1.111
0.026183305026600663,1.112
0.026116178810713354,1.113
0.026045568602230305,1.114
0.0259716615529696,1.115
0.025894688651377628,1.116
0.025814920167435387,1.117
0.025732656443859095,1.118
0.025648214847874145,1.119
0.025561915002451148,1.12
0.025474067205331546,1.121
0.0253849691514824,1.122
0.025294910012709622,1.123
0.02520417534921747,1.124
0.025113048100576633,1.125
0.02502180548984618,1.126
0.02493071383377261,1.127
0.024840023538396126,1.128
0.02474996599874869,1.129
0.024660753014707503,1.13
0.024572578254995738,1.131
0.024485619688775485,1.132
0.024400041855781616,1.133
0.024315997196005235,1.134
0.02423362614950172,1.135
0.024153056137884956,1.136
0.02407439976124872,1.137
0.02399775266022782,1.138
0.023923191594650454,1.139
0.023850773333527323,1.14
0.023780534804943,1.141
0.023712494569787603,1.142
0.023646655152362726,1.143
0.023583005264609467,1.144
0.02352152072237865,1.145
0.02346216319757837,1.146
0.023404877750143497,1.147
0.023349592468004648,1.148
0.023296222422204558,1.149
0.023244675998842744,1.15
0.023194860280095625,1.151
0.023146683801551948,1.152
0.023100056295888943,1.153
0.023054885656517674,1.154
0.023011072904428095,1.155
0.022968506496935333,1.156
0.02292705807254411,1.157
0.022886581633025208,1.158
0.022846916160780533,1.159
0.0228078897399598,1.16
0.022769323415060033,1.161
0.0227310339472465,1.162
0.022692834983954698,1.163
0.02265453636772,1.164
0.02261594169921007,1.165
0.022576844780147213,1.166
0.022537026109520512,1.167
0.02249625089000376,1.168
0.022454269592537195,1.169
0.022410820882546055,1.17
0.02236563504557509,1.171
0.02231843476713044,1.172
0.02226893272754353,1.173
0.02221683294410385,1.174
0.022161843635201527,1.175
0.02210369897826639,1.176
0.022042179859858877,1.177
0.021977125164097205,1.178
0.02190842859387214,1.179
0.021836021281360397,1.18
0.021759850886386243,1.181
0.021679874711137966,1.182
0.02159607208947571,1.183
0.021508462357897065,1.184
0.02141711469209926,1.185
0.021322147792135312,1.186
0.021223722896629542,1.187
0.02112203342191348,1.188
0.021017293232614618,1.189
0.020909724377643286,1.19
0.020799545612692986,1.191
0.02068696509513054,1.192
0.020572179873892826,1.193
0.020455380116582426,1.194
0.02033675389945789,1.195
0.020216490778061362,1.196
0.020094784447388905,1.197
0.019971834785832455,1.198
0.01984784889050517,1.199
0.019723040288390378,1.2
0.019597625682502538,1.201
0.019471819362976223,1.202
0.019345826692064277,1.203
0.019219839060097374,1.204
0.01909403165650544,1.205
0.01896856360313987,1.206
0.01884358036410525,1.207
0.018719218574453182,1.208
0.018595611377031744,1.209
0.018472891153749362,1.21
0.018351187756900627,1.211
0.018230623774959872,1.212
0.018111312363250875,1.213
0.017993361172913027,1.214
0.017876878860956288,1.215
0.017761978799019692,1.216
0.01764877820505149,1.217
0.01753739351581403,1.218
0.017427934139507176,1.219
0.017320497680768487,1.22
0.017215168159037442,1.221
0.017112015776883215,1.222
0.017011097128356658,1.223
0.016912456886543633,1.224
0.016816131232708125,1.225
0.016722151352721128,1.226
0.016630545389715014,1.227
0.016541338243105386,1.228
0.016454549122163615,1.229
0.016370187954589017,1.23
0.016288253924137203,1.231
0.016208738396228935,1.232
0.016131629885993905,1.233
0.016056916878132797,1.234
0.015984586357885154,1.235
0.01591461943034614,1.236
0.015846989092861308,1.237
0.015781663556631447,1.238
0.015718612046716797,1.239
0.015657808181069446,1.24
0.015599229179584232,1.241
0.015542851538444289,1.242
0.015488645858610449,1.243
0.015436575185685631,1.244
0.015386598461720545,1.245
0.015338675630267124,1.246
0.015292770230801127,1.247
0.015248848072477587,1.248
0.01520687276826624,1.249
0.015166800791748704,1.25
0.015128579360267527,1.251
0.015092147498918431,1.252
0.015057437288162046,1.253
0.015024373000658904,1.254
0.014992868760655857,1.255
0.014962827055610278,1.256
0.014934139759188074,1.257
0.014906691319471626,1.258
0.014880363057280372,1.259
0.014855038159717312,1.26
0.014830607073213044,1.261
0.014806972416385953,1.262
0.01478405188238609,1.263
0.014761777315179435,1.264
0.014740089035133588,1.265
0.014718928372976458,1.266
0.014698235730744287,1.267
0.014677957846515838,1.268
0.01465805893567756,1.269
0.014638528601249133,1.27
0.014619384072005514,1.271
0.014600667310850187,1.272
0.01458243825812664,1.273
0.014564765646875635,1.274
0.014547717629547806,1.275
0.014531355982438612,1.276
0.014515736078568554,1.277
0.01450091006946071,1.278
0.014486929190057295,1.279
0.014473843648785092,1.28
0.014461700600153095,1.281
0.014450541125526194,1.282
0.014440397138026482,1.283
0.014431289232688197,1.284
0.014423226437419164,1.285
0.014416208009013588,1.286
0.014410226548059998,1.287
0.014405271642873634,1.288
0.014401333364374968,1.289
0.014398404605428693,1.29
0.014396480902289361,1.291
0.014395557251764021,1.292
0.014395624722119013,1.293
0.01439667194420299,1.294
0.01439869272200708,1.295
0.014401695086387948,1.296
0.01440570657855751,1.297
0.014410773814116417,1.298
0.014416956993212542,1.299
0.014424321450259861,1.3
0.01443292916178695,1.301
0.014442833155723787,1.302
0.014454075836955876,1.303
0.01446668945718872,1.304
0.01448069664105485,1.305
0.01449611058989319,1.306
0.014512935509221947,1.307
0.014531167700953057,1.308
0.014550797535670564,1.309
0.014571812330090857,1.31
0.014594199859321257,1.311
0.014617951802035812,1.312
0.014643066026622189,1.313
0.014669546573404213,1.314
0.014697400660903814,1.315
0.014726633421171134,1.316
0.014757243266327463,1.317
0.01478922105559556,1.318
0.014822552775085436,1.319
0.014857222487030964,1.32
0.014893213332516768,1.321
0.014930506654078687,1.322
0.014969080204017658,1.323
0.015008906345570883,1.324
0.01504995077784139,1.325
0.015092171815087995,1.326
0.0151355198058501,1.327
0.015179936021052899,1.328
0.01522535099626692,1.329
0.015271684050595927,1.33
0.015318845864332393,1.331
0.015366743573450478,1.332
0.01541528621265401,1.333
0.015464388638112912,1.334
0.015513972440686785,1.335
0.015563962651693665,1.336
0.015614281747046451,1.337
0.015664847143959475,1.338
0.01571557661659467,1.339
0.01576639753700408,1.34
0.015817252924576215,1.341
0.015868101358756877,1.342
0.015918911202576186,1.343
0.015969651816366247,1.344
0.01602028675661143,1.345
0.016070772716510633,1.346
0.016121062567931794,1.347
0.01617110798049034,1.348
0.0162208593002549,1.349
0.01627026310939269,1.35
0.01631925890218062,1.351
0.016367776528536607,1.352
0.016415735898274247,1.353
0.016463049866036212,1.354
0.0165096303021497,1.355
0.016555396228610287,1.356
0.016600281741100256,1.357
0.016644240637824288,1.358
0.016687244881606927,1.359
0.01672927666433134,1.36
0.016770319608250588,1.361
0.016810357418724855,1.362
0.01684938137093311,1.363
0.016887399576435577,1.364
0.016924441909629714,1.365
0.016960559912725055,1.366
0.016995823401665767,1.367
0.017030315476190536,1.368
0.017064127062402012,1.369
0.017097351470636943,1.37
0.017130079074943728,1.371
0.01716239225661019,1.372
0.01719436135361415,1.373
0.017226042915975345,1.374
0.017257480647417722,1.375
0.01728870786101505,1.376
0.017319750317132687,1.377
0.017350629156584394,1.378
0.017381363653238304,1.379
0.017411973086172695,1.38
0.017442476847518075,1.381
0.017472892100826885,1.382
0.017503229466817427,1.383
0.017533489406113555,1.384
0.017563662164330432,1.385
0.017593730553420072,1.386
0.017623671950149546,1.387
0.01765345710333345,1.388
0.017683046878488373,1.389
0.01771239095981499,1.39
0.017741431024495907,1.391
0.017770106296570595,1.392
0.017798358195905653,1.393
0.017826132958079128,1.394
0.01785338240682462,1.395
0.01788006319217987,1.396
0.0179061346445676,1.397
0.017931555076890822,1.398
0.017956276927305278,1.399
0.017980243514344876,1.4
0.018003391226249412,1.401
0.01802565740248647,1.402
0.0180469900425155,1.403
0.018067355249640052,1.404
0.018086739966058283,1.405
0.018105148773413657,1.406
0.01812259523010201,1.407
0.01813909216811534,1.408
0.018154648620247894,1.409
0.0181692762078569,1.41
0.018182998943979168,1.411
0.018195859289319147,1.412
0.018207918032269715,1.413
0.018219248433321903,1.414
0.01822992683666377,1.415
0.018240024905316548,1.416
0.01824960908238218,1.417
0.018258747385552016,1.418
0.01826751820280634,1.419
0.01827601640923434,1.42
0.018284355198084457,1.421
0.018292663521665274,1.422
0.018301079730825728,1.423
0.018309742879383847,1.424
0.018318784730085927,1.425
0.01832832640326875,1.426
0.018338480609873527,1.427
0.018349356064255792,1.428
0.018361060705343685,1.429
0.018373702981989863,1.43
0.018387391563209666,1.431
0.01840223384196674,1.432
0.01841833363476611,1.433
0.018435788590538283,1.434
0.018454687921341445,1.435
0.01847511097469319,1.436
0.018497126787618008,1.437
0.018520794221285317,1.438
0.01854616188470937,1.439
0.018573267119344247,1.44
0.018602133983404656,1.441
0.018632771103189446,1.442
0.018665170399087022,1.443
0.018699307048672738,1.444
0.018735140936754616,1.445
0.01877261963007441,1.446
0.01881168150610639,1.447
0.01885225667609643,1.448
0.018894265187355555,1.449
0.018937616118697882,1.45
0.018982211656113943,1.451
0.019027954946619952,1.452
0.019074756970267837,1.453
0.01912253918095503,1.454
0.01917123111303826,1.455
0.019220763693442184,1.456
0.019271061276902254,1.457
0.019322037780666834,1.458
0.0193735994707051,1.459
0.01942565049941051,1.46
0.019478096019258147,1.461
0.01953084100230308,1.462
0.01958378560719444,1.463
0.0196368207175477,1.464
0.019689828514712886,1.465
0.019742689039026026,1.466
0.019795288815947158,1.467
0.01984752742361679,1.468
0.01989932011299696,1.469
0.01995059579058365,1.47
0.020001290249625332,1.471
0.020051336958518424,1.472
0.020100662039450275,1.473
0.02014918879436566,1.474
0.02019684888699187,1.475
0.020243593265599283,1.476
0.020289398805010687,1.477
0.020334269612132208,1.478
0.020378233305196,1.479
0.020421333554577592,1.48
0.020463620725622383,1.481
0.020505142512390103,1.482
0.02054593609812139,1.483
0.02058602276386398,1.484
0.020625405113872286,1.485
0.020664066335116606,1.486
0.02070197037776301,1.487
0.02073906235121147,1.488
0.020775270004070673,1.489
0.02081050780486674,1.49
0.0208446835849664,1.491
0.02087770610167536,1.492
0.02090949169594559,1.493
0.02093996877929838,1.494
0.02096907970669734,1.495
0.020996780420135492,1.496
0.02102303871896889,1.497
0.021047831976235068,1.498
0.02107114464094686,1.499
0.021092965152145385,1.5
0.021113281222677995,1.501
0.021132073836843533,1.502
0.021149314729095807,1.503
0.02116497278300157,1.504
0.0211790279360731,1.505
0.021191485653061462,1.506
0.021202385903711162,1.507
0.021211803579670938,1.508
0.0212198400966169,1.509
0.02122660899065772,1.51
0.021232221947018032,1.511
0.021236782765476088,1.512
0.021240390405697796,1.513
0.021243144517177605,1.514
0.021245147546034224,1.515
0.021246502510153142,1.516
0.021247307599805268,1.517
0.02124764982550699,1.518
0.02124760173095113,1.519
0.021247223414486146,1.52
0.021246567069452514,1.521
0.021245679904801792,1.522
0.02124460381335228,1.523
0.021243372045797262,1.524
0.021242004890160978,1.525
0.021240508176104535,1.526
0.021238876698992562,1.527
0.021237100506924324,1.528
0.02123517112467639,1.529
0.02123308668703063,1.53
0.021230855817168832,1.531
0.021228499892976566,1.532
0.021226053073349405,1.533
0.021223559350504576,1.534
0.02122106618844385,1.535
0.021218616202731796,1.536
0.021216241726105027,1.537
0.02121396646235435,1.538
0.0212118123452717,1.539
0.021209806542773647,1.54
0.021207986137813366,1.541
0.021206400853445544,1.542
0.02120511491981816,1.543
0.021204208825478247,1.544
0.02120378088946531,1.545
0.021203947792428828,1.546
0.021204842848456053,1.547
0.021206611069463015,1.548
0.021209400866080617,1.549
0.021213354550881008,1.55
0.02121860299180972,1.551
0.021225267709089973,1.552
0.021233466949952547,1.553
0.02124332057117849,1.554
0.021254952313264797,1.555
0.02126849056150185,1.556
0.021284068981757987,1.557
0.02130182783942322,1.558
0.021321915756500075,1.559
0.021344490728378074,1.56
0.021369718943111342,1.561
0.021397770450324444,1.562
0.021428812083284853,1.563
0.02146300056248674,1.564
0.021500480120760224,1.565
0.02154138543725862,1.566
0.02158584560461157,1.567
0.021633984972331027,1.568
0.021685920106774347,1.569
0.02174175479919778,1.57
0.02180157668308679,1.571
0.021865457303365404,1.572
0.021933453306598655,1.573
0.022005605974633108,1.574
0.02208193998071596,1.575
0.022162464227003797,1.576
0.022247175484079982,1.577
0.022336062766248645,1.578
0.02242911028637003,1.579
0.0225262981653836,1.58
0.022627600841779606,1.581
0.022732983465325946,1.582
0.022842397321002038,1.583
0.022955776592112478,1.584
0.023073038364938504,1.585
0.023194085043410986,1.586
0.023318806812267216,1.587
0.023447082867773358,1.588
0.02357878137392872,1.589
0.023713758319573626,1.59
0.023851855255189656,1.591
0.023992896395068984,1.592
0.024136687143099286,1.593
0.024283016068560995,1.594
0.024431659585807397,1.595
0.0245823867698304,1.596
0.02473496242775354,1.597
0.024889147616252043,1.598
0.025044697363773207,1.599
0.025201355994512342,1.6
0.025358852278856724,1.601
0.025516898668845798,1.602
0.02567519691062063,1.603
0.02583344755085942,1.604
0.025991359419642465,1.605
0.026148656635819036,1.606
0.02630508128734515,1.607
0.02646038992522777,1.608
0.026614344049662293,1.609
0.026766701060711922,1.61
0.02691721609509128,1.611
0.027065656915044523,1.612
0.027211821972398756,1.613
0.027355550707375303,1.614
0.02749672160612635,1.615
0.027635238663937363,1.616
0.02777101226225679,1.617
0.02790394659697511,1.618
0.0280339419850004,1.619
0.028160906631699248,1.62
0.028284766889830653,1.621
0.028405470822755744,1.622
0.02852298484853917,1.623
0.0286372844548664,1.624
0.028748341816819886,1.625
0.028856117129282474,1.626
0.02896056014757458,1.627
0.0290616202161668,1.628
0.029159256807991855,1.629
0.029253444431888324,1.63
0.02934416979291243,1.631
0.02943142202903649,1.632
0.029515181518561785,1.633
0.029595416506051176,1.634
0.029672091043718832,1.635
0.02974517737075751,1.636
0.02981466464012645,1.637
0.029880561467544812,1.638
0.02994289297546376,1.639
0.030001693700187678,1.64
0.030056997780682063,1.641
0.030108828505808472,1.642
0.030157191662373312,1.643
0.030202077274017015,1.644
0.03024346929727236,1.645
0.03028135861526292,1.646
0.030315755498688046,1.647
0.030346699712651883,1.648
0.030374266927832513,1.649
0.030398570057430577,1.65
0.030419754423064483,1.651
0.03043798645065537,1.652
0.030453437848284737,1.653
0.030466271847236246,1.654
0.030476639921617286,1.655
0.030484689961710713,1.656
0.03049057812721712,1.657
0.030494477491856197,1.658
0.030496581980402847,1.659
0.030497106319036675,1.66
0.03049628280998918,1.661
0.030494355683669674,1.662
0.03049157378091634,1.663
0.030488182437740045,1.664
0.030484415592339154,1.665
0.030480489118751418,1.666
0.030476596053955134,1.667
