VaMe,time
-0.0002781522561270567,0.001
-0.0001485754077583305,0.002
-1.882473362880504e-05,0.003
0.00011097568706933055,0.004
0.0002407122689388305,0.005
0.0003702845577597651,0.006
0.0004996055306228201,0.007
0.0006285996463113825,0.008
0.0007571993321298005,0.009
0.0008853415632501288,0.01
0.0010129667602897991,0.011
0.0011400205854185809,0.012
0.0012664567280679104,0.013
0.0013922385196966048,0.014
0.0015173385155809302,0.015
0.0016417360936599329,0.016
0.0017654141220576573,0.017
0.0018883568072314502,0.018
0.0020105497580956656,0.019
0.0021319807812095384,0.02
0.0022526396303597825,0.021
0.0023725167074480037,0.022
0.0024916018778691593,0.023
0.002609884227645843,0.024
0.0027273524615396626,0.025
0.002843995232594124,0.026
0.0029598012276389977,0.027
0.003074759229309417,0.028
0.003188858308250929,0.029
0.0033020880623506406,0.03
0.0034144385983763143,0.031
0.0035258999295352095,0.032
0.0036364610643157937,0.033
0.003746109951337863,0.034
0.0038548349519045007,0.035
0.003962626764809803,0.036
0.004069479046003513,0.037
0.004175387231822116,0.038
0.004280347323753985,0.039
0.004384356895752884,0.04
0.004487417830858274,0.041
0.004589537906420625,0.042
0.004690729460005129,0.043
0.004791006503678219,0.044
0.004890383458188419,0.045
0.0049888765209260555,0.046
0.00508650522004439,0.047
0.005183291840486466,0.048
0.005279258986319577,0.049
0.0053744269887647245,0.05
0.005468812371637797,0.051
0.005562427272014269,0.052
0.0056552794313925224,0.053
0.005747372765567074,0.054
0.005838708177186135,0.055
0.00592928400193808,0.056
0.006019095846932748,0.057
0.0061081359290369895,0.058
0.006196392504553954,0.059
0.006283850523694496,0.06
0.00637049412229616,0.061
0.006456310123283655,0.062
0.006541290878980921,0.063
0.006625434970519904,0.064
0.006708745076319056,0.065
0.006791224204185581,0.066
0.006872873623338826,0.067
0.006953694469693497,0.068
0.007033690970746008,0.069
0.0071128723683146775,0.07
0.007191252727589222,0.071
0.007268849100258767,0.072
0.007345678789178636,0.073
0.007421756557605088,0.074
0.007497092494565105,0.075
0.007571690859821586,0.076
0.007645549678644297,0.077
0.007718660627636554,0.078
0.007791009378625611,0.079
0.007862577233481322,0.08
0.007933344300270165,0.081
0.0080032932620354,0.082
0.008072412328290592,0.083
0.008140696297975413,0.084
0.008208145335505703,0.085
0.00827476178243463,0.086
0.008340546215842364,0.087
0.008405494866937393,0.088
0.008469599784692059,0.089
0.008532850862686518,0.09
0.008595238028922715,0.091
0.008656752936899992,0.092
0.008717390256589604,0.093
0.008777148636085808,0.094
0.00883603114169849,0.095
0.008894044748544551,0.096
0.008951198401379068,0.097
0.00900749990022812,0.098
0.009062953633891415,0.099
0.00911756158359763,0.1
0.009171327406155557,0.101
0.009224261090298372,0.102
0.009276382193014595,0.103
0.0093277210905863,0.104
0.00937831840435328,0.105
0.00942822303722064,0.106
0.009477489342958645,0.107
0.009526173865367426,0.108
0.009574331892644505,0.109
0.009622014264653,0.11
0.009669265672662845,0.111
0.009716125572411636,0.112
0.009762631168065018,0.113
0.009808820906309388,0.114
0.009854737383807205,0.115
0.009900429178685,0.116
0.009945951420900944,0.117
0.009991365191622317,0.118
0.010036736069119048,0.119
0.010082132211926604,0.12
0.010127622273508491,0.121
0.010173273269158933,0.122
0.010219148390164315,0.123
0.010265304838910404,0.124
0.010311792190722393,0.125
0.010358652078588954,0.126
0.010405919340847468,0.127
0.01045362382844807,0.128
0.01050179204374069,0.129
0.010550448279767888,0.13
0.010599615168579981,0.131
0.010649313603678243,0.132
0.010699562020781475,0.133
0.01075037497370142,0.134
0.010801761192828595,0.135
0.01085372223186542,0.136
0.010906253108897635,0.137
0.010959344719863564,0.138
0.011012986026086115,0.139
0.011067164114439795,0.14
0.011121862115175478,0.141
0.011177057560338625,0.142
0.01123272387073745,0.143
0.011288834289360387,0.144
0.011345365423938089,0.145
0.011402298693322805,0.146
0.011459619564265323,0.147
0.01151731510205323,0.148
0.011575370516344947,0.149
0.011633765522666668,0.15
0.011692471621957806,0.151
0.011751451028434815,0.152
0.0118106565881435,0.153
0.011870031710644364,0.154
0.011929510962674108,0.155
0.011989022309093805,0.156
0.012048489888418557,0.157
0.012107834894380639,0.158
0.012166974059700084,0.159
0.012225819323861025,0.16
0.012284282624615462,0.161
0.012342284417079711,0.162
0.012399760933307047,0.163
0.012456666614520061,0.164
0.012512970737196316,0.165
0.012568649668028975,0.166
0.012623679004582045,0.167
0.01267803048770769,0.168
0.012731674170899692,0.169
0.012784581605170943,0.17
0.012836726554327786,0.171
0.012888082882419032,0.172
0.012938620763964617,0.173
0.012988303357631903,0.174
0.01303708635847187,0.175
0.013084920667898105,0.176
0.013131755876271007,0.177
0.013177542260309205,0.178
0.013222230370305814,0.179
0.01326576822691738,0.18
0.013308097577794486,0.181
0.013349152371943122,0.182
0.01338886120072409,0.183
0.013427151665591193,0.184
0.013463953722394034,0.185
0.013499200874922004,0.186
0.01353282926090025,0.187
0.013564775034141496,0.188
0.013594970699044374,0.189
0.013623341281458095,0.19
0.013649801395093916,0.191
0.013674253781458623,0.192
0.01369658910416357,0.193
0.013716687197962093,0.194
0.013734420689573307,0.195
0.01374966104735964,0.196
0.013762285769298216,0.197
0.013772184742994442,0.198
0.013779263478163474,0.199
0.013783441143250747,0.2
0.013784643818025145,0.201
0.013782798560939115,0.202
0.013777835245337882,0.203
0.013769696025413398,0.204
0.013758345768760914,0.205
0.013743778289936876,0.206
0.013726017489929979,0.207
0.013705114579024479,0.208
0.013681143040711047,0.209
0.013654192748270406,0.21
0.013624363913408884,0.211
0.013591760775503028,0.212
0.0135564853836782,0.213
0.013518633958519315,0.214
0.013478298477564413,0.215
0.013435572324204198,0.216
0.013390556107997586,0.217
0.013343360978196526,0.218
0.01329410888110095,0.219
0.013242930363391796,0.22
0.013189961041648669,0.221
0.013135337931155264,0.222
0.013079196509130673,0.223
0.013021668864189364,0.224
0.012962882783718387,0.225
0.012902961317652737,0.226
0.012842022267814205,0.227
0.012780177145182202,0.228
0.012717529496483653,0.229
0.01265417327600374,0.23
0.012590192368648672,0.231
0.012525661312632153,0.232
0.012460645805060126,0.233
0.012395202229643324,0.234
0.01232937775697871,0.235
0.012263212688724916,0.236
0.012196744023768769,0.237
0.012130007671222692,0.238
0.012063037707475856,0.239
0.011995863724476979,0.24
0.011928510195426659,0.241
0.011861000332907963,0.242
0.011793361907243845,0.243
0.011725631108789646,0.244
0.011657853016199404,0.245
0.01159007909933964,0.246
0.011522362830745396,0.247
0.011454754764128834,0.248
0.011387298672680833,0.249
0.011320030116247893,0.25
0.01125297734782878,0.251
0.011186163044170588,0.252
0.011119605603676377,0.253
0.011053319680069746,0.254
0.010987315940935619,0.255
0.010921600077514441,0.256
0.01085617122300071,0.257
0.010791020344996464,0.258
0.010726129635696456,0.259
0.01066147338678078,0.26
0.010597019647378135,0.261
0.010532731794928816,0.262
0.01046856980408817,0.263
0.010404491288133878,0.264
0.010340452228756581,0.265
0.010276406966772235,0.266
0.010212306960810607,0.267
0.010148099216047137,0.268
0.010083727321643945,0.269
0.010019136880677364,0.27
0.00995428323492218,0.271
0.009889137880986023,0.272
0.009823691323143102,0.273
0.009757951559191687,0.274
0.009691938458247286,0.275
0.009625676152491384,0.276
0.009559188097325042,0.277
0.009492498321579008,0.278
0.009425636973897327,0.279
0.009358645664295825,0.28
0.009291580155852073,0.281
0.009224510013627075,0.282
0.0091575154392776,0.283
0.009090681890546617,0.284
0.009024094351307141,0.285
0.008957834631787669,0.286
0.008891983139542564,0.287
0.00882662229858201,0.288
0.008761838224508042,0.289
0.008697719812537206,0.29
0.00863435589718726,0.291
0.008571831831075396,0.292
0.008510227484797192,0.293
0.008449617633009726,0.294
0.008390073423719759,0.295
0.008331663170400684,0.296
0.008274451932521444,0.297
0.008218500236033934,0.298
0.008163862842334257,0.299
0.008110588631798895,0.3
0.00805872173045627,0.301
0.008008302904952873,0.302
0.007959370271001244,0.303
0.007911959006307093,0.304
0.007866100208869731,0.305
0.007821819517784193,0.306
0.0077791365560842774,0.307
0.007738065732861649,0.308
0.007698617810483957,0.309
0.007660801415653273,0.31
0.0076246241434206235,0.311
0.007590093065865051,0.312
0.0075572144089714405,0.313
0.007525992228555156,0.314
0.007496426547083336,0.315
0.0074685124681468755,0.316
0.007442241306266067,0.317
0.007417602780367408,0.318
0.007394586749005109,0.319
0.007373183986307287,0.32
0.007353386193859654,0.321
0.007335185579367766,0.322
0.007318574252084865,0.323
0.00730354343252972,0.324
0.007290082207205468,0.325
0.007278175933651969,0.326
0.007267805555475851,0.327
0.007258948979973538,0.328
0.0072515837008251234,0.329
0.007245688821484333,0.33
0.007241245413889283,0.331
0.0072382350743968125,0.332
0.007236637404887865,0.333
0.007236428145163924,0.334
0.007237579276730598,0.335
0.007240060408077436,0.336
0.007243839797423258,0.337
0.007248884289322794,0.338
0.0072551584816630535,0.339
0.007262623862594094,0.34
0.007271238690932768,0.341
0.0072809590221046125,0.342
0.007291740525795809,0.343
0.00730353997698308,0.344
0.007316315074884357,0.345
0.0073300225133005065,0.346
0.007344616762556063,0.347
0.007360052115354473,0.348
0.007376287124540484,0.349
0.007393288543710168,0.35
0.007411033056044028,0.351
0.0074295065560131025,0.352
0.007448701408704174,0.353
0.0074686124131276045,0.354
0.007489232674019418,0.355
0.007510551196654692,0.356
0.0075325530910099175,0.357
0.007555221104210114,0.358
0.007578536750071286,0.359
0.0076024805510339025,0.36
0.007627031706778794,0.361
0.007652167598358115,0.362
0.0076778634305044065,0.363
0.0077040921420472724,0.364
0.0077308245665153996,0.365
0.007758029744693001,0.366
0.007785675264389756,0.367
0.007813727491350585,0.368
0.007842151531067128,0.369
0.007870910729099683,0.37
0.007899965516211917,0.371
0.007929271832430432,0.372
0.007958780284716648,0.373
0.007988437063083866,0.374
0.008018186009577311,0.375
0.008047970315306978,0.376
0.008077732858832098,0.377
0.008107414927211053,0.378
0.008136954088628112,0.379
0.008166283327777052,0.38
0.008195332811832233,0.381
0.008224032931296341,0.382
0.00825231626859451,0.383
0.008280117231839157,0.384
0.00830736967327544,0.385
0.008334004956377662,0.386
0.008359953343415886,0.387
0.008385148538483362,0.388
0.008409532569619406,0.389
0.008433058615657883,0.39
0.008455690780617649,0.391
0.008477400671403002,0.392
0.008498162094483563,0.393
0.008517947417573358,0.394
0.008536728451123021,0.395
0.0085544804225979,0.396
0.008571185534772038,0.397
0.00858683443657302,0.398
0.008601425860351428,0.399
0.008614965232098029,0.4
0.008627462974817996,0.401
0.008638932849356538,0.402
0.008649390195014693,0.403
0.008658849589285686,0.404
0.008667322234301214,0.405
0.008674815305274822,0.406
0.008681335086022925,0.407
0.00868689238485192,0.408
0.008691507241306871,0.409
0.008695211214259283,0.41
0.008698046808708526,0.411
0.008700064312889015,0.412
0.00870131692666315,0.413
0.008701856067911148,0.414
0.008701729591795574,0.415
0.008700983935208798,0.416
0.008699668074515927,0.417
0.008697836727101014,0.418
0.008695551767615625,0.419
0.008692881669290753,0.42
0.00868989905815707,0.421
0.008686676944750981,0.422
0.008683285178760285,0.423
0.00867978926663578,0.424
0.008676252056052543,0.425
0.008672736381643563,0.426
0.00866930670862497,0.427
0.008666029233834832,0.428
0.00866297065564319,0.429
0.008660196003971528,0.43
0.00865776613954805,0.431
0.008655735861048956,0.432
0.00865415336723824,0.433
0.008653060795255067,0.434
0.008652494921941306,0.435
0.008652487614776484,0.436
0.008653066290365396,0.437
0.008654254759432807,0.438
0.008656074610227223,0.439
0.008658546960361795,0.44
0.008661694111469366,0.441
0.008665540477988218,0.442
0.008670112209540662,0.443
0.008675435204077691,0.444
0.008681532217182784,0.445
0.0086884213095738,0.446
0.008696117274335015,0.447
0.008704634818445172,0.448
0.00871399116736269,0.449
0.008724206998728893,0.45
0.008735305682150876,0.451
0.008747311254735013,0.452
0.008760245808528194,0.453
0.008774126972885139,0.454
0.008788965972216328,0.455
0.008804766436641085,0.456
0.008821523862111368,0.457
0.008839225441875596,0.458
0.008857850024001766,0.459
0.008877368229993736,0.46
0.008897742987468999,0.461
0.008918930595422484,0.462
0.008940882189131895,0.463
0.008963545367151155,0.464
0.008986865739668061,0.465
0.009010788197702534,0.466
0.009035257751951275,0.467
0.009060219778646576,0.468
0.009085619428243527,0.469
0.00911139990365629,0.47
0.009137500068735201,0.471
0.009163853400947903,0.472
0.009190389821087434,0.473
0.009217039098055772,0.474
0.009243733439585657,0.475
0.009270408168968038,0.476
0.009297000528750387,0.477
0.009323447174236978,0.478
0.009349681156317975,0.479
0.009375629279109702,0.48
0.009401210741706181,0.481
0.009426337415352213,0.482
0.009450915270752638,0.483
0.009474846483091753,0.484
0.009498032215437819,0.485
0.009520376031969098,0.486
0.00954178744519624,0.487
0.009562184650175968,0.488
0.009581495263059093,0.489
0.00959965408780116,0.49
0.009616598440878893,0.491
0.009632264457846127,0.492
0.009646588137887501,0.493
0.009659510545827232,0.494
0.009670983185872659,0.495
0.009680970667682743,0.496
0.009689450051076933,0.497
0.009696407324119003,0.498
0.009701831925681205,0.499
0.009705711082867344,0.5
0.009708026681513889,0.501
0.0097087557255997,0.502
0.00970787207921009,0.503
0.009705346827496887,0.504
0.009701146899652754,0.505
0.009695233514656223,0.506
0.009687562402993182,0.507
0.009678086018114387,0.508
0.009666755831886075,0.509
0.009653522656602088,0.51
0.009638334890974381,0.511
0.009621137685455035,0.512
0.009601876545735131,0.513
0.009580505054732387,0.514
0.009556993250444217,0.515
0.009531333588304894,0.516
0.009503542727814177,0.517
0.009473658325044884,0.518
0.00944173136975767,0.519
0.009407817615724831,0.52
0.009371974266390755,0.521
0.009334264342453588,0.522
0.009294764068773779,0.523
0.00925356781595245,0.524
0.009210789033731799,0.525
0.009166557732924562,0.526
0.009121015480227082,0.527
0.009074309030617796,0.528
0.009026584214045692,0.529
0.008977982427281709,0.53
0.008928640767807215,0.531
0.00887869392046062,0.532
0.008828275382841543,0.533
0.00877751737712691,0.534
0.008726549874903993,0.535
0.00867549925287548,0.536
0.008624486945140564,0.537
0.008573628251499646,0.538
0.008523031391728697,0.539
0.008472797033145013,0.54
0.008423018476840467,0.541
0.008373782294414725,0.542
0.008325168978268948,0.543
0.008277253306768446,0.544
0.008230104298878254,0.545
0.008183784763915519,0.546
0.008138350769710437,0.547
0.008093851703115633,0.548
0.00805033132566665,0.549
0.008007829511619645,0.55
0.007966384116731196,0.551
0.00792603260941522,0.552
0.007886813165193487,0.553
0.007848764930963942,0.554
0.007811927276742992,0.555
0.007776338067904269,0.556
0.0077420314586601246,0.557
0.007709036311983203,0.558
0.0076773760261538955,0.559
0.007647069209460692,0.56
0.007618130114468142,0.561
0.007590568516502364,0.562
0.007564389469646406,0.563
0.0075395934996149985,0.564
0.007516177541764941,0.565
0.00749413653980735,0.566
0.007473465276352364,0.567
0.007454159849602079,0.568
0.0074362182776871065,0.569
0.007419639945700333,0.57
0.007404423901113527,0.571
0.007390566526303873,0.572
0.007378059921031074,0.573
0.007366892208847254,0.574
0.007357049442390033,0.575
0.007348517752327919,0.576
0.007341284839950167,0.577
0.007335340626178628,0.578
0.007330677146404324,0.579
0.007327287852854958,0.58
0.007325166489635702,0.581
0.007324305664163997,0.582
0.0073246951898159034,0.583
0.007326320436196582,0.584
0.007329161370757268,0.585
0.007333192912736559,0.586
0.007338386321446234,0.587
0.00734471077121578,0.588
0.007352134522592381,0.589
0.007360625455090785,0.59
0.007370150883027419,0.591
0.00738067669840992,0.592
0.007392166010496158,0.593
0.007404577575056042,0.594
0.007417864480381006,0.595
0.007431973585959574,0.596
0.007446845757829202,0.597
0.007462416452463373,0.598
0.0074786163213289465,0.599
0.007495371862392593,0.6
0.0075126062035145045,0.601
0.007530239996072419,0.602
0.007548192322260673,0.603
0.007566381501571389,0.604
0.007584725695631423,0.605
0.007603143198630768,0.606
0.007621552218703103,0.607
0.007639869819862611,0.608
0.007658010195142842,0.609
0.0076758839855566065,0.61
0.0076934006190057,0.611
0.007710473233271759,0.612
0.00772702373761742,0.613
0.007742985832644191,0.614
0.0077583048660265375,0.615
0.0077729343473606615,0.616
0.007786830584294408,0.617
0.0077999491405036595,0.618
0.007812246047651161,0.619
0.007823682352291386,0.62
0.007834228395405079,0.621
0.00784386582917905,0.622
0.00785258709331508,0.623
0.007860392709445897,0.624
0.007867287076048456,0.625
0.007873273935091853,0.626
0.007878353337072486,0.627
0.007882521401984647,0.628
0.007885772204692668,0.629
0.007888100089886415,0.63
0.007889501414822832,0.631
0.007889975448915778,0.632
0.007889524331362389,0.633
0.007888152100318877,0.634
0.007885863007393835,0.635
0.007882659497427067,0.636
0.007878540256120142,0.637
0.007873498591868696,0.638
0.00786752133942246,0.639
0.007860588598123214,0.64
0.007852674557513085,0.641
0.007843749301074978,0.642
0.00783378129726656,0.643
0.007822740248017247,0.644
0.0078105997515988115,0.645
0.007797339020729083,0.646
0.00778294292927035,0.647
0.007767399978200149,0.648
0.007750698832246035,0.649
0.007732825875437568,0.65
0.007713766155828875,0.651
0.007693507079644063,0.652
0.007672042137330228,0.653
0.007649372735297196,0.654
0.007625507539560312,0.655
0.007600459370696525,0.656
0.007574240950837247,0.657
0.007546862790996397,0.658
0.007518335421440234,0.659
0.007488674018602642,0.66
0.007457902135931734,0.661
0.007426053145382427,0.662
0.0073931693509011135,0.663
0.0073592991357324935,0.664
0.007324492880908563,0.665
0.007288799208852621,0.666
0.007252263682982946,0.667
0.007214930573934207,0.668
0.007176845944513244,0.669
0.007138060207375029,0.67
0.007098629642111306,0.671
0.0070586169616528435,0.672
0.007018091046043952,0.673
0.006977125947923787,0.674
0.0069357992457209534,0.675
0.006894189808610853,0.676
0.006852375203942182,0.677
0.006810429588219697,0.678
0.0067684233393958725,0.679
0.00672642472532342,0.68
0.006684502473678542,0.681
0.00664272801542961,0.682
0.006601176862721853,0.683
0.006559928894681752,0.684
0.006519067416349266,0.685
0.00647867702476665,0.686
0.0064388408872043,0.687
0.0063996389462477755,0.688
0.006361148160499637,0.689
0.006323443912447774,0.69
0.006286600817493005,0.691
0.006250692110381899,0.692
0.006215788100242513,0.693
0.006181955118020653,0.694
0.006149255903212191,0.695
0.006117750715860007,0.696
0.00608749791918455,0.697
0.006058553625474713,0.698
0.006030970695553134,0.699
0.006004797590784212,0.7
0.005980077529322719,0.701
0.005956848126831971,0.702
0.0059351414568778495,0.703
0.0059149843867672336,0.704
0.005896398970267972,0.705
0.005879402661674421,0.706
0.005864008271804558,0.707
0.005850223775799204,0.708
0.00583805216558713,0.709
0.005827491490682136,0.71
0.005818535099824571,0.711
0.005811171978658148,0.712
0.005805387037484339,0.713
0.005801161231927659,0.714
0.005798471451476538,0.715
0.005797290169458795,0.716
0.005797585015058197,0.717
0.005799318642575608,0.718
0.005802449104877334,0.719
0.005806930467370315,0.72
0.005812713289360679,0.721
0.005819744857465683,0.722
0.0058279692560219325,0.723
0.00583732743769129,0.724
0.005847757460252381,0.725
0.0058591949763851505,0.726
0.0058715739326929434,0.727
0.005884827303910659,0.728
0.005898887609748346,0.729
0.005913686965320037,0.73
0.005929156498742747,0.731
0.005945225147977953,0.732
0.005961818327177212,0.733
0.005978857471094107,0.734
0.005996260952811106,0.735
0.006013945652865742,0.736
0.006031828196322563,0.737
0.006049825454214925,0.738
0.006067854262880044,0.739
0.006085830429625154,0.74
0.006103667248376802,0.741
0.0061212740821341375,0.742
0.006138555780400777,0.743
0.006155413085548523,0.744
0.006171743261300069,0.745
0.00618744015738579,0.746
0.006202393652824731,0.747
0.0062164891947271055,0.748
0.006229608395815239,0.749
0.006241631006528551,0.75
0.006252437855003786,0.751
0.006261914279421024,0.752
0.00626995362009058,0.753
0.0062764600400103615,0.754
0.006281349554654871,0.755
0.006284548064048841,0.756
0.006285986904280526,0.757
0.006285600187259578,0.758
0.006283328197972724,0.759
0.006279125253184694,0.76
0.00627296675958408,0.761
0.006264852141264396,0.762
0.006254803097947494,0.763
0.006242858088791754,0.764
0.006229064818072121,0.765
0.006213473626519397,0.766
0.006196135016975755,0.767
0.00617710172065157,0.768
0.006156432163175927,0.769
0.006134192387944357,0.77
0.006110455823839138,0.771
0.006085301476013833,0.772
0.006058811349702627,0.773
0.006031067873086552,0.774
0.006002151827566034,0.775
0.005972140980210994,0.776
0.005941109379576367,0.777
0.0059091271674056095,0.778
0.005876260739448453,0.779
0.005842573100674618,0.78
0.005808124271233841,0.781
0.005772971606868061,0.782
0.005737169905223764,0.783
0.005700771177850906,0.784
0.005663824053796791,0.785
0.005626373165502027,0.786
0.00558845929684868,0.787
0.00555012068928692,0.788
0.005511394950547747,0.789
0.005472320698244985,0.79
0.0054329384024649026,0.791
0.005393290205154556,0.792
0.005353418729989536,0.793
0.005313365271875087,0.794
0.005273168319119826,0.795
0.005232863382651262,0.796
0.005192484037554628,0.797
0.0051520631408002605,0.798
0.0051116334377870045,0.799
0.00507122744268412,0.8
0.005030876811263473,0.801
0.004990611530651305,0.802
0.004950459251378825,0.803
0.004910444970403851,0.804
0.004870591080040342,0.805
0.004830917610905783,0.806
0.004791442401252903,0.807
0.0047521809568398365,0.808
0.004713145938667623,0.809
0.00467434657088898,0.81
0.004635788526214077,0.811
0.0045974744980879475,0.812
0.004559405053501187,0.813
0.004521579321696566,0.814
0.0044839954428790565,0.815
0.004446650905445147,0.816
0.0044095429165017545,0.817
0.004372668891629373,0.818
0.004336027042422397,0.819
0.0042996169163987815,0.82
0.004263439638470777,0.821
0.004227497567527436,0.822
0.004191793180660424,0.823
0.004156327571647667,0.824
0.004121099810718071,0.825
0.004086107979650035,0.826
0.0040513510803649845,0.827
0.004016830570344091,0.828
0.003982551081645291,0.829
0.0039485204115616785,0.83
0.00391474899830987,0.831
0.003881249122846789,0.832
0.003848034029450179,0.833
0.0038151170706113217,0.834
0.0037825108918008474,0.835
0.0037502266068770588,0.836
0.0037182730140252825,0.837
0.003686656208490545,0.838
0.0036553799502898774,0.839
0.0036244466166092293,0.84
0.00359385820466361,0.841
0.0035636169654386413,0.842
0.003533725453696993,0.843
0.003504185922599384,0.844
0.003474999318122425,0.845
0.0034461646483755475,0.846
0.0034176793913721394,0.847
0.003389540657178845,0.848
0.0033617462766080755,0.849
0.0033342952748139473,0.85
0.0033071875627016293,0.851
0.003280422945205898,0.852
0.003254000019697281,0.853
0.003227915908238929,0.854
0.003202167182179729,0.855
0.0031767513014473434,0.856
0.003151667761216731,0.857
0.003126918659953613,0.858
0.003102508684096345,0.859
0.003078444562230077,0.86
0.0030547340768329466,0.861
0.003031384803054633,0.862
0.0030084030216315375,0.863
0.002985793473067163,0.864
0.0029635601581227138,0.865
0.00294170762478814,0.866
0.0029202420821346073,0.867
0.0028991720392112633,0.868
0.0028785083735343303,0.869
0.0028582638343400348,0.87
0.0028384520960915843,0.871
0.002819086561657689,0.872
0.00280017926402158,0.873
0.002781740366242899,0.874
0.0027637784413979383,0.875
0.002746301107790151,0.876
0.0027293155098842147,0.877
0.0027128284511587475,0.878
0.0026968461501627144,0.879
0.0026813736992106034,0.88
0.0026664145629480642,0.881
0.002651970589144032,0.882
0.0026380426484526407,0.883
0.002624631541629734,0.884
0.002611738775430646,0.885
0.002599367008694951,0.886
0.0025875200673658315,0.887
0.0025762024833431304,0.888
0.0025654186233310524,0.889
0.002555171724852728,0.89
0.0025454633886964,0.891
0.0025362937242922115,0.892
0.0025276616621101667,0.893
0.0025195649026861743,0.894
0.0025119995319875395,0.895
0.002504959766016086,0.896
0.0024984380928675443,0.897
0.002492425510611887,0.898
0.002486911489954464,0.899
0.002481883791506001,0.9
0.0024773285784193315,0.901
0.0024732309994072695,0.902
0.0024695759861896927,0.903
0.0024663489571410224,0.904
0.0024635363137836663,0.905
0.002461125727529047,0.906
0.0024591062407457722,0.907
0.002457468207755244,0.908
0.0024562030805574168,0.909
0.0024553030160093547,0.91
0.0024547602692537147,0.911
0.002454566425242412,0.912
0.0024547117901392323,0.913
0.0024551854147674664,0.914
0.002455975847093348,0.915
0.002457072211514423,0.916
0.00245846518887759,0.917
0.0024601477015226475,0.918
0.0024621152274062227,0.919
0.002464365718330707,0.92
0.0024668991482876415,0.921
0.002469716758715682,0.922
0.00247282010137109,0.923
0.002476210028541949,0.924
0.002479885867443446,0.925
0.0024838450055436716,0.926
0.002488082830345442,0.927
0.002492592723745039,0.928
0.0024973660147115935,0.929
0.002502392091106053,0.93
0.0025076587819727286,0.931
0.00251315287158771,0.932
0.002518860549409332,0.933
0.0025247676651332413,0.934
0.002530859696169707,0.935
0.002537121363399602,0.936
0.002543536055698612,0.937
0.002550085638864776,0.938
0.002556751101437723,0.939
0.0025635137303683117,0.94
0.0025703561464676195,0.941
0.002577262748145475,0.942
0.0025842193563606636,0.943
0.0025912121761663214,0.944
0.0025982267394178684,0.945
0.0026052476569785473,0.946
0.0026122592290240216,0.947
0.002619246140508775,0.948
0.00262619361750936,0.949
0.002633086989473185,0.95
0.0026399108858611107,0.951
0.002646648446520159,0.952
0.0026532810042566176,0.953
0.002659788390059605,0.954
0.0026661495515815574,0.955
0.002672343147679545,0.956
0.002678348016855008,0.957
0.002684143495548221,0.958
0.002689709532940832,0.959
0.0026950265370861777,0.96
0.002700074905814339,0.961
0.0027048342886351875,0.962
0.002709282882709474,0.963
0.0027133972601486546,0.964
0.002717152875252943,0.965
0.002720524824412371,0.966
0.0027234883813350916,0.967
0.0027260191405402818,0.968
0.0027280927894993575,0.969
0.0027296846194974312,0.97
0.0027307689729142255,0.971
0.0027313188746070803,0.972
0.0027313060733373203,0.973
0.002730701621196643,0.974
0.0027294769689908695,0.975
0.002727605387625575,0.976
0.002725063378013352,0.977
0.0027218316523420984,0.978
0.0027178953022822497,0.979
0.0027132429276193436,0.98
0.0027078649225297873,0.981
0.00270175191469931,0.982
0.002694894634456486,0.983
0.002687285334536357,0.984
0.002678919602789389,0.985
0.0026697975630313613,0.986
0.0026599242555724973,0.987
0.0026493093688197485,0.988
0.0026379665683567235,0.989
0.0026259126615622314,0.99
0.0026131667568417777,0.991
0.0025997494556282384,0.992
0.002585682001724352,0.993
0.0025709853371353444,0.994
0.0025556793489023553,0.995
0.00253978289584758,0.996
0.0025233147933273518,0.997
0.0025062952015583334,0.998
0.0024887467676465275,0.999
0.0024706952350607046,1.0
0.0024521694698471626,1.001
0.0024332009554625463,1.002
0.002413822883955956,1.003
0.0023940690152198345,1.004
0.0023739725365563256,1.005
0.0023535652581452102,1.006
0.0023328773923137645,1.007
0.002311937765922229,1.008
0.0022907740548930087,1.009
0.0022694127867580447,1.01
0.002247879114575601,1.011
0.002226196545565637,1.012
0.002204386907231334,1.013
0.002182470664179762,1.014
0.0021604673846486746,1.015
0.002138396091720213,1.016
0.0021162753699810258,1.017
0.0020941231890516626,1.018
0.0020719565151125054,1.019
0.002049791002226445,1.02
0.0020276411060166266,1.021
0.002005520620723478,1.022
0.0019834433106357056,1.023
0.001961423344183241,1.024
0.0019394754142052454,1.025
0.001917614523353418,1.026
0.0018958554691193797,1.027
0.001874212215522906,1.028
0.0018526975650643037,1.029
0.0018313233957460743,1.03
0.0018101012178983573,1.031
0.0017890426516540563,1.032
0.0017681596763609326,1.033
0.0017474646768024203,1.034
0.0017269703481691248,1.035
0.0017066895281136426,1.036
0.0016866350101878858,1.037
0.001666819362950455,1.038
0.001647254745629097,1.039
0.0016279526913154537,1.04
0.0016089238389162509,1.041
0.0015901776789245066,1.042
0.001571722484915936,1.043
0.0015535655162260357,1.044
0.001535713347848198,1.045
0.0015181721334014042,1.046
0.001500947723939736,1.047
0.0014840456444401547,1.048
0.0014674709585525982,1.049
0.0014512280657384474,1.05
0.0014353204712918752,1.051
0.0014197505742360515,1.052
0.0014045195371975262,1.053
0.0013896272620205256,1.054
0.001375072409635722,1.055
0.001360852426532423,1.056
0.0013469636308294226,1.057
0.0013334013729935348,1.058
0.0013201601701828545,1.059
0.0013072337083234922,1.06
0.0012946147627546252,1.061
0.0012822952664853136,1.062
0.0012702666902400304,1.063
0.0012585206370799536,1.064
0.0012470494449718073,1.065
0.0012358466528761686,1.066
0.0012249072298977865,1.067
0.0012142274904820586,1.068
0.0012038046717014201,1.069
0.0011936362787783276,1.07
0.0011837195220581018,1.071
0.001174051189211558,1.072
0.0011646279124882472,1.073
0.0011554464529147227,1.074
0.001146503729249745,1.075
0.001137796572674426,1.076
0.0011293213564109413,1.077
0.001121073785394271,1.078
0.001113049031690119,1.079
0.001105242071562359,1.08
0.0010976479651816295,1.081
0.0010902619627995184,1.082
0.0010830794256779016,1.083
0.001076095573686099,1.084
0.0010693051575916027,1.085
0.001062702317312833,1.086
0.001056280819229416,1.087
0.0010500345307198036,1.088
0.0010439578499520392,1.089
0.00103804593390446,1.09
0.0010322946761388773,1.091
0.001026700437229179,1.092
0.0010212596086690232,1.093
0.0010159682375309874,1.094
0.001010821999644536,1.095
0.001005816574156964,1.096
0.0010009481839414755,1.097
0.00099621406705533,1.098
0.0009916127886165746,1.099
0.0009871443653720598,1.1
0.0009828101874353235,1.101
0.0009786127351775707,1.102
0.0009745551040865772,1.103
0.0009706404462729542,1.104
0.0009668716316153997,1.105
0.0009632513850333302,1.106
0.0009597827592750221,1.107
0.0009564695684673693,1.108
0.0009533165376135943,1.109
0.0009503291056586262,1.11
0.0009475129673520936,1.111
0.0009448736387551747,1.112
0.0009424163795471082,1.113
0.000940146493247566,1.114
0.0009380697078090907,1.115
0.0009361923898896753,1.116
0.0009345215443490585,1.117
0.0009330646330665642,1.118
0.0009318292591090495,1.119
0.0009308227950525212,1.12
0.0009300521058023912,1.121
0.0009295235006770347,1.122
0.0009292428658635894,1.123
0.0009292157916137839,1.124
0.0009294475778650632,1.125
0.0009299431286893375,1.126
0.0009307067962622701,1.127
0.0009317422305883401,1.128
0.0009330522760397698,1.129
0.0009346389424466503,1.13
0.00093650345581437,1.131
0.0009386463690990261,1.132
0.0009410677073657578,1.133
0.0009437671229125842,1.134
0.0009467440331384844,1.135
0.0009499977170374404,1.136
0.0009535273589036953,1.137
0.0009573320450100218,1.138
0.0009614107320472215,1.139
0.0009657622050596298,1.14
0.0009703850292603462,1.141
0.0009752774902395947,1.142
0.0009804375215453482,1.143
0.0009858626294329007,1.144
0.000991549827312648,1.145
0.0009974955853336615,1.146
0.0010036957927334691,1.147
0.0010101457268618722,1.148
0.001016840019235053,1.149
0.0010237726013680821,1.15
0.0010309366268447034,1.151
0.0010383244281672343,1.152
0.0010459275973036587,1.153
0.0010537371978424758,1.154
0.0010617440263179637,1.155
0.0010699388411464078,1.156
0.0010783125148677037,1.157
0.0010868560806170516,1.158
0.0010955606438939837,1.159
0.001104417139005131,1.16
0.0011134160215858417,1.161
0.001122547185789888,1.162
0.0011318003203394046,1.163
0.0011411655567255185,1.164
0.0011506341166768474,1.165
0.0011601987812397743,1.166
0.001169854082588847,1.167
0.0011795961498114534,1.168
0.0011894221923107596,1.169
0.0011993297625164053,1.17
0.0012093162155058894,1.171
0.0012193787525148563,1.172
0.001229514912848342,1.173
0.0012397230241931953,1.174
0.0012500022979010817,1.175
0.0012603525481059395,1.176
0.0012707736555193083,1.177
0.0012812650041066288,1.178
0.0012918251978305483,1.179
0.0013024521811980938,1.18
0.0013131435642013657,1.181
0.0013238969183610339,1.182
0.001334709977554261,1.183
0.0013455807385424094,1.184
0.0013565074380656548,1.185
0.0013674883765962451,1.186
0.00137852157540798,1.187
0.001389604369153776,1.188
0.0014007332191333349,1.189
0.00141190393207632,1.19
0.0014231120974208622,1.191
0.0014343534357392856,1.192
0.0014456239081337338,1.193
0.0014569195459464344,1.194
0.0014682360536676414,1.195
0.0014795684354717506,1.196
0.0014909109783796737,1.197
0.001502257637911999,1.198
0.0015136025295068066,1.199
0.001524940237944353,1.2
0.0015362658409087291,1.201
0.0015475746465869354,1.202
0.001558861704485036,1.203
0.00157012126212241,1.204
0.001581346444470006,1.205
0.0015925292599151398,1.206
0.001603660707544347,1.207
0.0016147307430445805,1.208
0.001625728115220671,1.209
0.00163664027622248,1.21
0.0016474535259455136,1.211
0.0016581533424419545,1.212
0.0016687247518523591,1.213
0.0016791526412459872,1.214
0.0016894219516903092,1.215
0.0016995176979655638,1.216
0.0017094247846987612,1.217
0.0017191276265762193,1.218
0.001728609721163333,1.219
0.0017378535315479564,1.22
0.001746840918286654,1.221
0.0017555539348695609,1.222
0.0017639756430225966,1.223
0.0017720907413405545,1.224
0.0017798858915335503,1.225
0.0017873496653900583,1.226
0.0017944720923405864,1.227
0.0018012438402764518,1.228
0.0018076552844100966,1.229
0.0018136961159043207,1.23
0.0018193559617949119,1.231
0.0018246256919525845,1.232
0.0018294988002692495,1.233
0.0018339725355376215,1.234
0.0018380486131713994,1.235
0.0018417333526876073,1.236
0.0018450371447439045,1.237
0.001847973254520491,1.238
0.0018505562484658511,1.239
0.0018528008240945497,1.24
0.0018547217955563696,1.241
0.0018563350493048998,1.242
0.001857658582748221,1.243
0.0018587130060257523,1.244
0.001859521388446884,1.245
0.001860108550825189,1.246
0.0018604999896806194,1.247
0.0018607207823832213,1.248
0.0018607949972563726,1.249
0.001860745811961095,1.25
0.0018605959066502306,1.251
0.0018603676324872994,1.252
0.0018600828424074098,1.253
0.0018597625035520092,1.254
0.0018594263195022196,1.255
0.0018590925923427594,1.256
0.0018587783239314808,1.257
0.0018584993400435803,1.258
0.0018582702811232006,1.259
0.0018581044667171222,1.26
0.0018580137126776256,1.261
0.0018580081979564938,1.262
0.0018580964481824753,1.263
0.0018582854194076138,1.264
0.0018585806186512744,1.265
0.001858986220822401,1.266
0.0018595051650588462,1.267
0.001860139212209969,1.268
0.0018608889467908877,1.269
0.0018617537197098,1.27
0.0018627315418600092,1.271
0.0018638189478300253,1.272
0.0018650108577124812,1.273
0.001866300476029709,1.274
0.0018676792738125448,1.275
0.0018691370941479237,1.276
0.001870662402611638,1.277
0.001872242680234805,1.278
0.0018738649346623098,1.279
0.0018755162844341874,1.28
0.001877184551122253,1.281
0.0018788587778725105,1.282
0.001880529584910652,1.283
0.0018821892779889548,1.284
0.0018838316513811856,1.285
0.001885451472909302,1.286
0.001887043697262917,1.287
0.0018886026368002456,1.288
0.0018901215768806399,1.289
0.00189159311437991,1.29
0.0018930099034933571,1.291
0.001894365365325252,1.292
0.0018956542187968438,1.293
0.0018968728424598555,1.294
0.001898019475317702,1.295
0.0018990942549391512,1.296
0.001900099085380565,1.297
0.00190103733187784,1.298
0.0019019133514832525,1.299
0.0019027318845956042,1.3
0.0019034973516373122,1.301
0.0019042131868111235,1.302
0.0019048814693257872,1.303
0.0019055029807756685,1.304
0.0019060774793056407,1.305
0.0019066039378104946,1.306
0.0019070807239816886,1.307
0.0019075058311389967,1.308
0.0019078772541199817,1.309
0.0019081935292968423,1.31
0.001908454362862122,1.311
0.0019086612038478946,1.312
0.001908817607856231,1.313
0.0019089292820434459,1.314
0.0019090037744228644,1.315
0.0019090498378498716,1.316
0.0019090765417505403,1.317
0.001909092361616412,1.318
0.0019091047337939711,1.319
0.0019091203421413613,1.32
0.0019091457576873726,1.321
0.0019091879073880101,1.322
0.00190925419408938,1.323
0.0019093523027009268,1.324
0.0019094897747071625,1.325
0.0019096734595260459,1.326
0.0019099090255341124,1.327
0.0019102007931237595,1.328
0.001910551991338581,1.329
0.0019109652416635363,1.33
0.001911443037544375,1.331
0.0019119881426123849,1.332
0.0019126038903081056,1.333
0.0019132943455343247,1.334
0.0019140642720177376,1.335
0.001914918861733196,1.336
0.0019158632284344268,1.337
0.001916901781860544,1.338
0.0019180377801259652,1.339
0.001919273338377867,1.34
0.0019206098317626008,1.341
0.0019220483941793057,1.342
0.001923590317466051,1.343
0.0019252373162397152,1.344
0.0019269916675092123,1.345
0.001928856228085989,1.346
0.001930834326913361,1.347
0.0019329295345514796,1.348
0.0019351453322499076,1.349
0.001937484729056578,1.35
0.0019399498887254423,1.351
0.0019425418163304896,1.352
0.0019452601224292311,1.353
0.0019481028482093378,1.354
0.0019510663347010492,1.355
0.001954145168880365,1.356
0.0019573322585422544,1.357
0.0019606190249781977,1.358
0.00196399565349709,1.359
0.00196745136395006,1.36
0.001970974702502918,1.361
0.0019745538752534396,1.362
0.0019781771421029863,1.363
0.0019818332702298,1.364
0.001985512023091082,1.365
0.0019892046406210476,1.366
0.0019929042459568363,1.367
0.001996606093311048,1.368
0.002000307562811427,1.369
0.0020040078254835885,1.37
0.0020077071470903725,1.371
0.002011405939028463,1.372
0.002015103970440749,1.373
0.002018800269887807,1.374
0.002022493746271536,1.375
0.0020261839864434113,1.376
0.002029871736530102,1.377
0.002033558928612101,1.378
0.0020372483059028067,1.379
0.002040942763869629,1.38
0.0020446445821243543,1.381
0.002048354810889337,1.382
0.002052073050773232,1.383
0.002055797568301029,1.384
0.0020595254175451486,1.385
0.0020632523541557965,1.386
0.002066972690329102,1.387
0.0020706794277819025,1.388
0.0020743647824265857,1.389
0.002078020859258254,1.39
0.002081640164083172,1.391
0.0020852157725098986,1.392
0.002088741085630023,1.393
0.0020922092319005142,1.394
0.0020956124619605815,1.395
0.002098942082823229,1.396
0.0021021891128991358,1.397
0.0021053452510451337,1.398
0.002108403685301204,1.399
0.0021113595501215114,1.4
0.0021142100047243095,1.401
0.002116953964349731,1.402
0.0021195915626122924,1.403
0.002122123448855097,1.404
0.002124550027299303,1.405
0.0021268707425021287,1.406
0.0021290835481734415,1.407
0.0021311847032111746,1.408
0.002133168890832157,1.409
0.002135029493273881,1.41
0.002136758899451962,1.411
0.002138348843903689,1.412
0.0021397907871366596,1.413
0.002141076298091145,1.414
0.002142197364179611,1.415
0.002143146549967463,1.416
0.0021439169499478028,1.417
0.0021445019197780667,1.418
0.0021448946085508677,1.419
0.0021450873645189727,1.42
0.0021450712121585465,1.421
0.0021448357043224856,1.422
0.002144369264326422,1.423
0.002143659807673259,1.424
0.0021426954061752727,1.425
0.0021414649221483655,1.426
0.0021399585982260464,1.427
0.002138168561660792,1.428
0.0021360891743252815,1.429
0.0021337171519577617,1.43
0.00213105140143679,1.431
0.00212809257227073,1.432
0.0021248423616754596,1.433
0.0021213026329830295,1.434
0.0021174745301655927,1.435
0.0021133580279889532,1.436
0.002108952253659176,1.437
0.002104256365990469,1.438
0.002099270532132151,1.439
0.00209399673960865,1.44
0.0020884393420534555,1.441
0.0020826052812947227,1.442
0.002076503968355306,1.443
0.0020701468435626023,1.444
0.002063546660763937,1.445
0.0020567165558315957,1.446
0.002049669093978773,1.447
0.002042415742679821,1.448
0.0020349670612981254,1.449
0.0020273332958727817,1.45
0.0020195248487164387,1.451
0.002011552389064761,1.452
0.002003426628901117,1.453
0.0019951578786105545,1.454
0.001986755523305652,1.455
0.001978227555318316,1.456
0.0019695802654176825,1.457
0.001960818119011146,1.458
0.001951943798584204,1.459
0.001942958422583875,1.46
0.0019338619431191232,1.461
0.0019246536643613653,1.462
0.0019153328024970873,1.463
0.0019058990306161706,1.464
0.0018963529795598094,1.465
0.001886696674720506,1.466
0.0018769338652079458,1.467
0.0018670701617820168,1.468
0.0018571128801109663,1.469
0.0018470705126551112,1.47
0.001836951883779472,1.471
0.0018267653571370636,1.472
0.0018165186523990107,1.473
0.0018062193920399385,1.474
0.0017958758845569936,1.475
0.0017854976612260614,1.476
0.001775095653074235,1.477
0.0017646820737330163,1.478
0.0017542700948663518,1.479
0.001743873392505326,1.48
0.0017335056230666844,1.481
0.0017231798732933686,1.482
0.0017129081676803043,1.483
0.0017027011872086941,1.484
0.0016925682489936015,1.485
0.0016825173572294256,1.486
0.001672555165496256,1.487
0.0016626869816936548,1.488
0.0016529169908178491,1.489
0.0016432486050383382,1.49
0.0016336847193219014,1.491
0.0016242277408885424,1.492
0.0016148793871966285,1.493
0.0016056404441651914,1.494
0.0015965108301235708,1.495
0.0015874901067124698,1.496
0.0015785782127562438,1.497
0.0015697761366517422,1.498
0.0015610864026763397,1.499
0.0015525133404607708,1.5
0.0015440631307850625,1.501
0.001535743631469167,1.502
0.001527563993013086,1.503
0.001519534087120363,1.504
0.00151166380701435,1.505
0.0015039624167309383,1.506
0.0014964382488292006,1.507
0.0014890988624600072,1.508
0.001481951411910294,1.509
0.0014750029523718647,1.51
0.0014682606231085555,1.511
0.00146173173129516,1.512
0.0014554237369807702,1.513
0.001449344117189634,1.514
0.0014435000827548246,1.515
0.0014378982017117048,1.516
0.0014325441536489755,1.517
0.0014274428232292694,1.518
0.0014225986371840338,1.519
0.001418015864670284,1.52
0.001413698717677047,1.521
0.0014096512506080626,1.522
0.0014058771285005746,1.523
0.0014023793436866768,1.524
0.001399159946938603,1.525
0.0013962198615906781,1.526
0.0013935588463564379,1.527
0.0013911755931503764,1.528
0.00138906784509397,1.529
0.0013872324133440246,1.53
0.0013856650847820116,1.531
0.0013843605767696798,1.532
0.001383312684984834,1.533
0.0013825145428631087,1.534
0.0013819587908885894,1.535
0.0013816375426370195,1.536
0.0013815421802598257,1.537
0.0013816631706029276,1.538
0.0013819901184797111,1.539
0.0013825120525588215,1.54
0.0013832177380572303,1.541
0.0013840958403763214,1.542
0.0013851348753888492,1.543
0.0013863229522948744,1.544
0.0013876474440249456,1.545
0.0013890948863535596,1.546
0.0013906512880170175,1.547
0.001392302678318955,1.548
0.0013940356069346938,1.549
0.0013958374436924916,1.55
0.0013976964106802649,1.551
0.0013996013146543604,1.552
0.001401541026158554,1.553
0.001403503938023971,1.554
0.0014054777837844694,1.555
0.001407449937855374,1.556
0.0014094078672361417,1.557
0.0014113393585903809,1.558
0.0014132323992455792,1.559
0.0014150747831100654,1.56
0.0014168537072179986,1.561
0.0014185557400318606,1.562
0.0014201672823710711,1.563
0.0014216752556812787,1.564
0.0014230677114181556,1.565
0.001424334220090786,1.566
0.0014254659708502905,1.567
0.0014264555293037997,1.568
0.0014272962400480476,1.569
0.0014279814525791413,1.57
0.001428504084344527,1.571
0.001428856913097261,1.572
0.0014290333260434036,1.573
0.001429027955255423,1.574
0.0014288368972690142,1.575
0.0014284574758735918,1.576
0.0014278876146462,1.577
0.0014271250662850465,1.578
0.0014261670024966853,1.579
0.0014250102875414867,1.58
0.0014236521559818924,1.581
0.0014220908129951382,1.582
0.0014203257263869383,1.583
0.001418357548971631,1.584
0.0014161876615926567,1.585
0.001413817485585,1.586
0.0014112479952705884,1.587
0.0014084798186388783,1.588
0.001405513780263467,1.589
0.0014023513954433502,1.59
0.0013989949948545939,1.591
0.0013954474225328771,1.592
0.0013917114603849933,1.593
0.0013877893889163075,1.594
0.0013836830629537845,1.595
0.0013793944017239303,1.596
0.0013749258612923453,1.597
0.0013702805960396098,1.598
0.0013654622539987463,1.599
0.0013604744917415793,1.6
0.0013553204714314758,1.601
0.0013500027126351203,1.602
0.0013445234043733495,1.603
0.001338884878927522,1.604
0.00133308992964292,1.605
0.001327141882197177,1.606
0.001321044442172124,1.607
0.0013148013493479542,1.608
0.0013084159400415457,1.609
0.001301890909863467,1.61
0.0012952285634107493,1.611
0.0012884314804780092,1.612
0.0012815032836741712,1.613
0.0012744492753767075,1.614
0.001267276840694948,1.615
0.001259995565224257,1.616
0.0012526170537580444,1.617
0.0012451544770517593,1.618
0.0012376219073666234,1.619
0.0012300335716387224,1.62
0.0012224032945300598,1.621
0.0012147444066814594,1.622
0.0012070700715261682,1.623
0.0011993936972442365,1.624
0.0011917291718087086,1.625
0.0011840908481576201,1.626
0.0011764932936388203,1.627
0.0011689508750357916,1.628
0.0011614773437608414,1.629
0.001154085620671022,1.63
0.0011467878129590844,1.631
0.0011395952914604864,1.632
0.0011325186877560232,1.633
0.0011255678103821857,1.634
0.0011187515409634549,1.635
0.0011120777986548937,1.636
0.0011055536359948573,1.637
0.0010991854334651999,1.638
0.0010929791082975545,1.639
0.0010869402677382615,1.64
0.0010810742548120252,1.641
0.0010753860555418962,1.642
0.0010698801007885282,1.643
0.0010645601018750648,1.644
0.0010594290660184019,1.645
0.0010544894706915474,1.646
0.0010497434491740709,1.647
0.0010451928950239078,1.648
0.0010408394939380996,1.649
0.0010366847282695252,1.65
0.001032729893263696,1.651
0.0010289761438010696,1.652
0.0010254245669977285,1.653
0.0010220762540731176,1.654
0.001018932329116546,1.655
0.001015993894164381,1.656
0.001013261876477967,1.657
0.00101073680400145,1.658
0.001008418566542577,1.659
0.0010063062282499476,1.66
0.0010043979403416975,1.661
0.0010026909716369132,1.662
0.0010011818430287927,1.663
0.0009998665305135284,1.664
0.0009987406894480131,1.665
0.0009977998451828171,1.666
0.0009970394914165202,1.667
0.000996455045971832,1.668
0.0009960416536116173,1.669
0.0009957939365200042,1.67
0.000995705901520988,1.671
0.0009957711026022415,1.672
0.0009959829161381999,1.673
0.0009963347467559225,1.674
0.000996820100557893,1.675
0.0009974325207817267,1.676
0.0009981653860211535,1.677
0.000999011634887977,1.678
0.0009999636144842024,1.679
0.0010010132229746902,1.68
0.0010021522689420395,1.681
0.001003372834270779,1.682
0.0010046674984127205,1.683
0.0010060293592160897,1.684
0.0010074518209496534,1.685
0.001008928213468825,1.686
0.001010451486141842,1.687
0.001012014236660975,1.688
0.0010136090282169895,1.689
0.0010152286887612175,1.69
0.0010168663532540432,1.691
0.001018515218828018,1.692
0.0010201682283077474,1.693
0.0010218180704413616,1.694
0.0010234576625248756,1.695
0.0010250808473088809,1.696
0.0010266829357598272,1.697
0.001028260901079975,1.698
0.0010298131577340553,1.699
0.0010313389649723316,1.7
0.0010328377455626541,1.701
0.0010343088467605057,1.702
0.0010357519603563714,1.703
0.0010371677859177502,1.704
0.0010385584207310403,1.705
0.0010399273069078216,1.706
0.0010412787994084332,1.707
0.0010426175284174628,1.708
0.001043947849727641,1.709
0.0010452736741646998,1.71
0.0010465986898742258,1.711
0.001047926713488258,1.712
0.001049261946727567,1.713
0.0010506090842980513,1.714
0.0010519732824637573,1.715
0.0010533600062433202,1.716
0.0010547747898057049,1.717
0.0010562229602734527,1.718
0.0010577093746141494,1.719
0.0010592382008522516,1.72
0.001060812755004743,1.721
0.0010624353975245502,1.722
0.0010641074941590987,1.723
0.0010658294474108988,1.724
0.0010676008036856531,1.725
0.0010694204355768651,1.726
0.0010712867833981598,1.727
0.0010731981166783799,1.728
0.0010751527596726822,1.729
0.0010771492304495988,1.73
0.0010791862677302262,1.731
0.001081262742914004,1.732
0.0010833774627678385,1.733
0.0010855288850980323,1.734
0.0010877148508189904,1.735
0.0010899325088501684,1.736
0.001092178488449748,1.737
0.001094449167429882,1.738
0.0010967408797840988,1.739
0.0010990500337566135,1.74
0.0011013731709732869,1.741
0.0011037069915911368,1.742
0.0011060483505862103,1.743
0.0011083942101447579,1.744
0.0011107415203576256,1.745
0.001113086996562771,1.746
0.0011154268354514382,1.747
0.0011177565793977849,1.748
0.0011200713190756143,1.749
0.0011223661308867637,1.75
0.0011246364771438275,1.751
0.0011268783896636661,1.752
0.0011290883814271645,1.753
0.0011312631096445475,1.754
0.001133398917944806,1.755
0.0011354914974166651,1.756
0.0011375358163177528,1.757
0.0011395261808972111,1.758
0.0011414562141716697,1.759
0.0011433187924714254,1.76
0.0011451061497860155,1.761
0.0011468101999569554,1.762
0.0011484229115426045,1.763
0.0011499365774344887,1.764
0.0011513439409068463,1.765
0.0011526382083066869,1.766
0.0011538129990547247,1.767
0.0011548622830659624,1.768
0.00115578033306698,1.769
0.001156561675406091,1.77
0.001157200972807553,1.771
0.0011576927691328031,1.772
0.0011580311948243005,1.773
0.0011582099755377232,1.774
0.0011582229491478209,1.775
0.0011580648378526385,1.776
0.0011577318684436446,1.777
0.0011572220163459657,1.778
0.001156534802533961,1.779
0.0011556706714944947,1.78
0.0011546302303015925,1.781
0.0011534139388124534,1.782
0.001152022565969823,1.783
0.001150457993118203,1.784
0.001148723764718217,1.785
0.0011468251493749742,1.786
0.0011447687279278905,1.787
0.0011425616681169065,1.788
0.0011402110619763695,1.789
0.0011377237616457983,1.79
0.0011351067524262347,1.791
0.0011323676480906035,1.792
0.0011295149308027312,1.793
0.0011265578391687653,1.794
0.0011235059485183675,1.795
0.0011203686252930123,1.796
0.001117154744012083,1.797
0.0011138729110636127,1.798
0.0011105319635855261,1.799
0.0011071413689209063,1.8
0.0011037113722271144,1.801
0.001100252893295546,1.802
0.001096777222441927,1.803
0.001093295599190834,1.804
0.0010898187869144693,1.805
0.0010863567723801597,1.806
0.001082918643915372,1.807
0.0010795125705701564,1.808
0.0010761458126383296,1.809
0.0010728248097790234,1.81
0.001069555390478156,1.811
0.0010663430516511562,1.812
0.0010631932295417268,1.813
0.0010601115083678748,1.814
0.0010571037243651462,1.815
0.0010541759260359364,1.816
0.0010513341662956451,1.817
0.0010485841792414012,1.818
0.0010459311404429298,1.819
0.0010433797035562123,1.82
0.001040934254057408,1.821
0.0010385991599858155,1.822
0.0010363789017658685,1.823
0.0010342780983027824,1.824
0.0010323014710203933,1.825
0.0010304537506018376,1.826
0.001028739496539281,1.827
0.0010271628411780951,1.828
0.0010257272995538341,1.829
0.0010244358017083026,1.83
0.0010232909041817887,1.831
0.0010222949945854788,1.832
0.0010214503726710847,1.833
0.0010207591996168972,1.834
0.0010202233478455484,1.835
0.001019844192605117,1.836
0.00101962240119205,1.837
0.001019557790367897,1.838
0.0010196492755150646,1.839
0.001019894875553443,1.84
0.0010202917882350738,1.841
0.001020836595352792,1.842
0.0010215255729553417,1.843
0.0010223550054735435,1.844
0.0010233214173439402,1.845
0.0010244216792835276,1.846
0.0010256529884005443,1.847
0.0010270127513830492,1.848
0.0010284984079067556,1.849
0.0010301072248505563,1.85
0.001031836081055598,1.851
0.001033681255847164,1.852
0.0010356382610257663,1.853
0.0010377018025476763,1.854
0.0010398659220232384,1.855
0.0010421242605163253,1.856
0.0010444703453320436,1.857
0.0010468978171941467,1.858
0.0010494005172060757,1.859
0.0010519723681920248,1.86
0.0010546070770350495,1.861
0.0010572978557864445,1.862
0.0010600374092766954,1.863
0.0010628182091236723,1.864
0.0010656328463642176,1.865
0.0010684742889852496,1.866
0.0010713359928477423,1.867
0.0010742118500367095,1.868
0.0010770959555682117,1.869
0.0010799822397377537,1.87
0.0010828641898900523,1.871
0.0010857349311548734,1.872
0.0010885876504719391,1.873
0.0010914160658906352,1.874
0.0010942146741342795,1.875
0.0010969786729775688,1.876
0.0010997035715330156,1.877
0.0011023846894436227,1.878
0.0011050169706484012,1.879
0.001107595359659363,1.88
0.0011101154909711167,1.881
0.0011125743069296114,1.882
0.0011149704357582232,1.883
0.0011173042955567372,1.884
0.0011195779233325038,1.885
0.0011217945513928376,1.886
0.0011239579729212423,1.887
0.0011260718732072144,1.888
0.001128139521853942,1.889
0.0011301640423623744,1.89
0.0011321489456723598,1.891
0.0011340984880092533,1.892
0.001136017701838615,1.893
0.0011379121519267978,1.894
0.0011397875337246408,1.895
0.0011416492433591805,1.896
0.0011435020155947015,1.897
0.001145349688381676,1.898
0.0011471951240892406,1.899
0.0011490402675418763,1.9
0.0011508862748775227,1.901
0.0011527336593890076,1.902
0.0011545824373584395,1.903
0.0011564322732245237,1.904
0.0011582826280061294,1.905
0.0011601329126196198,1.906
0.0011619826361020098,1.907
0.0011638315283402528,1.908
0.0011656796183091738,1.909
0.0011675272598451218,1.91
0.001169375106945393,1.911
0.001171224045199291,1.912
0.001173075089918906,1.913
0.0011749292644827195,1.914
0.0011767874639844345,1.915
0.0011786502861091503,1.916
0.0011805178099879932,1.917
0.0011823894007058967,1.918
0.0011842637382728008,1.919
0.001186139174076905,1.92
0.00118801427376316,1.921
0.0011898883321853977,1.922
0.001191761728158727,1.923
0.0011936360442099119,1.924
0.0011955139109336974,1.925
0.0011973985841854152,1.926
0.001199293360663907,1.927
0.001201201104004351,1.928
0.0012031241721025627,1.929
0.0012050647307189437,1.93
0.0012070251563395396,1.931
0.0012090082913950024,1.932
0.001211017492484373,1.933
0.0012130564853476695,1.934
0.001215129059760438,1.935
0.0012172386687307188,1.936
0.0012193880696703173,1.937
0.0012215791841535424,1.938
0.0012238131973721503,1.939
0.001226090699418582,1.94
0.0012284116720629285,1.941
0.0012307753491630324,1.942
0.0012331802163470938,1.943
0.0012356243547199848,1.944
0.0012381060031786757,1.945
0.0012406240762399257,1.946
0.0012431784921558906,1.947
0.0012457702657637066,1.948
0.0012484013594555798,1.949
0.001251074312646265,1.95
0.0012537917107069386,1.951
0.0012565556824444674,1.952
0.0012593677268503364,1.953
0.0012622289578024706,1.954
0.0012651404865999158,1.955
0.0012681036334960486,1.956
0.0012711198828322125,1.957
0.001274190632514748,1.958
0.0012773168269292546,1.959
0.0012804986028039137,1.96
0.001283735110911368,1.961
0.0012870245683627227,1.962
0.0012903644078186127,1.963
0.0012937513765458866,1.964
0.0012971815577255653,1.965
0.0013006503512505232,1.966
0.0013041524590187237,1.967
0.0013076819095482596,1.968
0.001311232132121343,1.969
0.0013147960628080001,1.97
0.001318366247929324,1.971
0.001321934913894075,1.972
0.0013254939903683833,1.973
0.0013290350886262516,1.974
0.001332549434983393,1.975
0.0013360277441627794,1.976
0.0013394600202392309,1.977
0.0013428353534471094,1.978
0.0013461418801968418,1.979
0.0013493669835319992,1.98
0.0013524975994028171,1.981
0.0013555204591364986,1.982
0.0013584222143564059,1.983
0.001361189464541774,1.984
0.0013638087299058157,1.985
0.0013662664225440842,1.986
0.0013685488655247797,1.987
0.0013706423873740639,1.988
0.001372533476661105,1.989
0.001374208928023011,1.99
0.0013756558679380937,1.991
0.0013768615386954492,1.992
0.0013778128860059652,1.993
0.001378496370975314,1.994
0.0013788984498864375,1.995
0.0013790066183884397,1.996
0.0013788105583019137,1.997
0.0013783030557150714,1.998
0.0013774805429419917,1.999
0.001376343198472896,2.0
0.0013748946016996163,2.001
0.0013731409982973134,2.002
0.0013710902757344838,2.003
0.0013687508589645073,2.004
0.0013661309575246207,2.005
0.0013632385352310092,2.006
0.0013600818404115671,2.007
0.0013566699819580856,2.008
0.0013530132295564276,2.009
0.0013491230085592861,2.01
0.0013450116670409684,2.011
0.0013406921052632902,2.012
0.0013361773469172684,2.013
0.0013314801125285116,2.014
0.0013266124405553732,2.015
0.0013215853930162536,2.016
0.001316408872531118,2.017
0.0013110915610760258,2.018
0.0013056409722122222,2.019
0.0013000635932357697,2.02
0.001294365077637202,2.021
0.0012885504272505458,2.022
0.001282624084245507,2.023
0.001276589869733357,2.024
0.0012704508482753462,2.025
0.0012642093927537961,2.026
0.001257867626477047,2.027
0.0012514280675678094,2.028
0.001244894170239326,2.029
0.0012382705921756105,2.03
0.0012315631480069881,2.031
0.001224778487290318,2.032
0.0012179235871308087,2.033
0.001211005192440121,2.034
0.0012040294026766066,2.035
0.0011970015768281116,2.036
0.0011899265082867723,2.037
0.0011828086390048972,2.038
0.0011756521411054406,2.039
0.0011684608338009702,2.04
0.0011612379792474334,2.041
0.0011539860781391085,2.042
0.0011467068471876151,2.043
0.0011394014572189508,2.044
0.001132070924549717,2.045
0.0011247165151271766,2.046
0.0011173400947028182,2.047
0.0011099443812170894,2.048
0.001102533036779844,2.049
0.001095110529960059,2.05
0.0010876817282607356,2.051
0.001080251361136144,2.052
0.0010728237727840974,2.053
0.0010654032368801539,2.054
0.0010579945611435373,2.055
0.001050603553916968,2.056
0.001043237187141888,2.057
0.0010359034659383692,2.058
0.0010286110657435144,2.059
0.0010213688255015477,2.06
0.0010141852454120645,2.061
0.001007068223827879,2.062
0.0010000251470809775,2.063
0.0009930631581122774,2.064
0.0009861893681130727,2.065
0.0009794109249681034,2.066
0.0009727349437231519,2.067
0.0009661683302622469,2.068
0.0009597175517274227,2.069
0.0009533884234297437,2.07
0.0009471859855298455,2.071
0.0009411145249491172,2.072
0.000935177755935095,2.073
0.0009293791182661484,2.074
0.000923722108556577,2.075
0.0009182105470591028,2.076
0.0009128487025260827,2.077
0.0009076412384257607,2.078
0.0009025929896756019,2.079
0.0008977086306342988,2.08
0.000892992366374966,2.081
0.0008884478004978594,2.082
0.0008840779949263906,2.083
0.0008798855731287834,2.084
0.0008758727392712994,2.085
0.0008720412028395076,2.086
0.0008683920569364732,2.087
0.0008649256740690207,2.088
0.0008616416711493755,2.089
0.000858538944246186,2.09
0.0008556157372196796,2.091
0.0008528697293560685,2.092
0.0008502981602570645,2.093
0.0008478980093084658,2.094
0.0008456662213222646,2.095
0.0008435999421875584,2.096
0.0008416967119775262,2.097
0.0008399545620036223,2.098
0.0008383719750595907,2.099
0.0008369476909458679,2.1
0.0008356803954689453,2.101
0.0008345684509801531,2.102
0.0008336098756673343,2.103
0.0008328025868463373,2.104
0.0008321446956262133,2.105
0.000831634660934472,2.106
0.0008312712591484869,2.107
0.0008310533992527551,2.108
0.000830979844491702,2.109
0.0008310489818912619,2.11
0.0008312588248111132,2.111
0.0008316072748844844,2.112
0.0008320924536308749,2.113
0.0008327129043493599,2.114
0.0008334675871229045,2.115
0.000834355671687381,2.116
0.0008353762101642508,2.117
0.0008365278921801765,2.118
0.0008378090781075832,2.119
0.0008392180779145599,2.12
0.0008407534654413913,2.121
0.0008424142643069383,2.122
0.0008441999460741657,2.123
0.0008461102313515907,2.124
0.0008481447615830637,2.125
0.0008503028587035167,2.126
0.0008525836043677349,2.127
0.0008549862230093893,2.128
0.0008575105495827012,2.129
0.0008601574117294568,2.13
0.0008629288704753928,2.131
0.0008658283062378516,2.132
0.0008688603436653019,2.133
0.0008720306151508563,2.134
0.0008753453805488381,2.135
0.0008788110514038081,2.136
0.000882433739551898,2.137
0.0008862190180356411,2.138
0.0008901719543270882,2.139
0.0008942972409799946,2.14
0.0008985992434085418,2.141
0.0009030819406297003,2.142
0.0009077488035599307,2.143
0.000912602654190341,2.144
0.0009176455500657805,2.145
0.00092287872112422,2.146
0.0009283025489238137,2.147
0.0009339165813973647,2.148
0.0009397195933964756,2.149
0.0009457096646318885,2.15
0.0009518842141649151,2.151
0.0009582399605650925,2.152
0.0009647728363001558,2.153
0.0009714779322717868,2.154
0.0009783495253554548,2.155
0.000985381176180513,2.156
0.0009925658800309413,2.157
0.000999896283541226,2.158
0.0010073649628032696,2.159
0.0010149647118470602,2.16
0.001022688759041482,2.161
0.0010305308291662563,2.162
0.0010384849996895758,2.163
0.0010465453611546926,2.164
0.0010547056321605467,2.165
0.0010629590189640157,2.166
0.0010712984561024883,2.167
0.0010797170258380789,2.168
0.0010882082931979184,2.169
0.0010967664632516184,2.17
0.0011053863652212747,2.171
0.0011140632907877595,2.172
0.0011227927262811778,2.173
0.0011315700178167443,2.174
0.001140390025133704,2.175
0.0011492468917614416,2.176
0.0011581340840217927,2.177
0.0011670447127342686,2.178
0.0011759719988812688,2.179
0.0011849097446360527,2.18
0.0011938527389034424,2.181
0.001202797065746653,2.182
0.0012117403075401357,2.183
0.001220681646129123,2.184
0.0012296218547550176,2.185
0.0012385631537740745,2.186
0.0012475088967616919,2.187
0.001256463070946695,2.188
0.0012654296826515238,2.189
0.0012744122847140008,2.19
0.0012834139455888917,2.191
0.0012924376443251573,2.192
0.0013014867641865531,2.193
0.0013105654049854277,2.194
0.0013196784216798411,2.195
0.001328831194519276,2.196
0.0013380291856119383,2.197
0.0013472774129159397,2.198
0.0013565800591268202,2.199
0.0013659403502107872,2.2
0.0013753605717733168,2.201
0.0013848420288316492,2.202
0.0013943850172924007,2.203
0.001403988991320326,2.204
0.0014136528820467766,2.205
0.0014233753461823878,2.206
0.0014331547879368196,2.207
0.0014429891360175071,2.208
0.0014528755392036314,2.209
0.0014628103004203656,2.21
0.0014727892111347837,2.211
0.0014828080997879127,2.212
0.001492863332455717,2.213
0.001502952149058035,2.214
0.0015130727884627479,2.215
0.0015232243579612673,2.216
0.0015334064193979811,2.217
0.0015436183809933565,2.218
0.0015538590343564275,2.219
0.0015641266079500235,2.22
0.0015744192844787317,2.221
0.0015847357636165071,2.222
0.0015950755366762044,2.223
0.001605438768893672,2.224
0.0016158258076836162,2.225
0.001626236545647367,2.226
0.0016366701731956096,2.227
0.0016471256644001611,2.228
0.001657602687853229,2.229
0.001668102421570596,2.23
0.0016786280131928474,2.231
0.0016891846050313478,2.232
0.0016997789172908393,2.233
0.0017104184727372166,2.234
0.0017211106772586594,2.235
0.0017318621220856695,2.236
0.0017426783793387962,2.237
0.0017535641569767907,2.238
0.0017645234588693425,2.239
0.001775559586814721,2.24
0.0017866750471169836,2.241
0.0017978714609799967,2.242
0.0018091495227624073,2.243
0.001820508993677419,2.244
0.0018319486894095174,2.245
0.0018434664207551087,2.246
0.001855058861937435,2.247
0.0018667213539049954,2.248
0.0018784477186982072,2.249
0.0018902301968889894,2.25
0.0019020595153015653,2.251
0.0019139249553190108,2.252
0.0019258143100698098,2.253
0.001937713758325532,2.254
0.0019496077839832296,2.255
0.0019614791986464217,2.256
0.001973309165666258,2.257
0.0019850771494779665,2.258
0.0019967608935962623,2.259
0.002008336533030985,2.26
0.0020197787575466333,2.261
0.0020310608598569386,2.262
0.0020421546341449033,2.263
0.0020530303194948546,2.264
0.002063656849899436,2.265
0.002074002446367793,2.266
0.002084035365621886,2.267
0.002093724599505395,2.268
0.0021030403382160494,2.269
0.0021119539943360594,2.27
0.0021204376446548458,2.271
0.002128463192198382,2.272
0.00213600221778245,2.273
0.0021430271931585556,2.274
0.002149513524198397,2.275
0.002155441456180716,2.276
0.0021607973229186453,2.277
0.0021655739565611897,2.278
0.002169770208291615,2.279
0.002173389665409026,2.28
0.002176438782739933,2.281
0.0021789248964746606,2.282
0.0021808549166562026,2.283
0.0021822352266453113,2.284
0.0021830724159094565,2.285
0.002183374105275795,2.286
0.0021831495424598384,2.287
0.002182410001909125,2.288
0.0021811690550476185,2.289
0.0021794427143025374,2.29
0.0021772494042134227,2.291
0.002174609703168157,2.292
0.0021715458314217695,2.293
0.002168080908749946,2.294
0.0021642380407063382,2.295
0.002160039430153562,2.296
0.0021555059411125484,2.297
0.0021506573569450706,2.298
0.002145513006146461,2.299
0.00214009228232594,2.3
0.0021344148679715677,2.301
0.0021285006474928694,2.302
0.0021223693430037546,2.303
0.0021160399535363897,2.304
0.0021095301675046613,2.305
0.0021028559948292037,2.306
0.0020960316884103135,2.307
0.002089069759245346,2.308
0.002081981008301829,2.309
0.002074774741339415,2.31
0.0020674592256923058,2.311
0.00206004224060077,2.312
0.0020525315641331137,2.313
0.0020449353063242415,2.314
0.0020372620203625612,2.315
0.0020295205319978385,2.316
0.0020217194601847375,2.317
0.002013866582119542,2.318
0.0020059684972981557,2.319
0.001998030926661308,2.32
0.0019900594034675005,2.321
0.0019820598778378796,2.322
0.001974038981232866,2.323
0.00196600387677548,2.324
0.0019579617096741786,2.325
0.0019499189174525592,2.326
0.0019418809564330152,2.327
0.0019338527401440318,2.328
0.0019258394133455298,2.329
0.0019178469432876702,2.33
0.0019098823501259392,2.331
0.0019019535998757145,2.332
0.0018940692202279602,2.333
0.0018862377132721287,2.334
0.0018784668990236527,2.335
0.0018707634637878583,2.336
0.0018631329631171203,2.337
0.001855580203283956,2.338
0.0018481096867669078,2.339
0.0018407258950205935,2.34
0.001833433337981269,2.341
0.0018262363587260974,2.342
0.0018191387246039958,2.343
0.0018121431812214025,2.344
0.0018052513009647394,2.345
0.0017984637706498032,2.346
0.0017917808566647458,2.347
0.0017852027068006497,2.348
0.0017787293481031556,2.349
0.001772360372783038,2.35
0.0017660944686724845,2.351
0.0017599291943299457,2.352
0.0017538612633629293,2.353
0.001747887107104461,2.354
0.0017420033266042,2.355
0.0017362068508042165,2.356
0.0017304947485643888,2.357
0.0017248637580648681,2.358
0.0017193098702505774,2.359
0.0017138284128936478,2.36
0.001708414688222757,2.361
0.0017030647698274156,2.362
0.0016977760894183772,2.363
0.001692547684553917,2.364
0.0016873800973388213,2.365
0.0016822749537679662,2.366
0.0016772342893385153,2.367
0.0016722597869523487,2.368
0.0016673522618629285,2.369
0.0016625116503449534,2.37
0.0016577373455116343,2.371
0.0016530284950567816,2.372
0.0016483840406335045,2.373
0.0016438024873533532,2.374
0.0016392815213677053,2.375
0.0016348177243960252,2.376
0.0016304065932329832,2.377
0.0016260427962003538,2.378
0.001621720440988762,2.379
0.0016174332381191866,2.38
0.0016131745743455078,2.381
0.001608937529982024,2.382
0.001604714837999058,2.383
0.0016004987403934817,2.384
0.0015962807313588828,2.385
0.0015920513701047744,2.386
0.001587800478772619,2.387
0.0015835178074063226,2.388
0.0015791938978367546,2.389
0.00157482081265733,2.39
0.0015703925131186685,2.391
0.0015659047627293952,2.392
0.001561354511892278,2.393
0.001556738986208241,2.394
0.001552055155898683,2.395
0.0015473001347156322,2.396
0.0015424721924152743,2.397
0.0015375716376980785,2.398
0.0015326011616824896,2.399
0.001527565599024774,2.4
0.0015224712320707065,2.401
0.0015173248431242833,2.402
0.0015121328119985275,2.403
0.0015069006484454872,2.404
0.0015016331055094949,2.405
0.0014963345644227416,2.406
0.0014910093318041156,2.407
0.0014856617429598025,2.408
0.0014802960740364034,2.409
0.0014749162628202607,2.41
0.0014695255309988063,2.411
0.001464126199678607,2.412
0.001458719936966684,2.413
0.0014533082995808713,2.414
0.0014478932502576926,2.415
0.0014424774683106305,2.416
0.0014370644021434954,2.417
0.001431658067996001,2.418
0.0014262626392138246,2.419
0.0014208819260153897,2.42
0.0014155189449689878,2.421
0.0014101757820950758,2.422
0.0014048537126673008,2.423
0.0013995532998811939,2.424
0.0013942743117088228,2.425
0.001389015648689305,2.426
0.0013837755669463534,2.427
0.001378552166521362,2.428
0.0013733438540219898,2.429
0.0013681495524678826,2.43
0.0013629685965986628,2.431
0.0013578003478126642,2.432
0.0013526436950177891,2.433
0.0013474968057219528,2.434
0.0013423573908360605,2.435
0.0013372233186785339,2.436
0.0013320932362962108,2.437
0.001326967007926497,2.438
0.0013218458983356742,2.439
0.0013167324730830102,2.44
0.0013116302409762529,2.441
0.0013065431147171935,2.442
0.0013014748079207756,2.443
0.001296428346464101,2.444
0.001291405880006802,2.445
0.001286408803107434,2.446
0.001281437994242278,2.447
0.0012764940081358188,2.448
0.0012715771908973447,2.449
0.0012666877410143914,2.45
0.0012618257433207013,2.451
0.0012569911987858266,2.452
0.0012521840538996618,2.453
0.001247404208140634,2.454
0.001242651464700148,2.455
0.001237925400903985,2.456
0.0012332251683902997,2.457
0.001228549272726474,2.458
0.0012238954058483222,2.459
0.0012192603989768973,2.46
0.0012146403324807436,2.461
0.001210030798521063,2.462
0.001205427276715094,2.463
0.0012008255568303583,2.464
0.0011962221238210706,2.465
0.001191614412507585,2.466
0.001187000851292967,2.467
0.0011823806502836087,2.468
0.001177753341215444,2.469
0.0011731182166829228,2.47
0.0011684740188629232,2.471
0.0011638191087799301,2.472
0.0011591519120200333,2.473
0.0011544712897525167,2.474
0.0011497766756524803,2.475
0.0011450679551792652,2.476
0.0011403451044065724,2.477
0.001135607724897163,2.478
0.0011308547830028207,2.479
0.0011260847236414441,2.48
0.0011212957276268594,2.481
0.0011164857962210422,2.482
0.0011116525889923931,2.483
0.0011067931638693127,2.484
0.001101903873132713,2.485
0.0010969805336535773,2.486
0.0010920187318737894,2.487
0.0010870140898477407,2.488
0.0010819624425447705,2.489
0.0010768599230812051,2.49
0.0010717029354719001,2.491
0.0010664879820782554,2.492
0.0010612113637743531,2.493
0.0010558689448901064,2.494
0.001050456279953292,2.495
0.0010449691795363088,2.496
0.0010394044807230849,2.497
0.001033760736046245,2.498
0.0010280386397131746,2.499
0.001022241087081244,2.5
0.0010163728323695463,2.501
0.0010104397921617586,2.502
0.0010044482179795487,2.503
0.0009984041989678355,2.504
0.000992313785570536,2.505
0.0009861834574181206,2.506
0.0009800204692930557,2.507
0.0009738328873900475,2.508
0.0009676293465261866,2.509
0.0009614186190317518,2.51
0.0009552091633677799,2.511
0.0009490089107615612,2.512
0.0009428254081428777,2.513
0.0009366661367190357,2.514
0.0009305387726408541,2.515
0.0009244513021822463,2.516
0.0009184119740582021,2.517
0.000912429084235168,2.518
0.0009065106612947253,2.519
0.000900664246031745,2.52
0.0008948969193855906,2.521
0.0008892154789111377,2.522
0.0008836265316966452,2.523
0.0008781364039868009,2.524
0.0008727509936154633,2.525
0.0008674758044473795,2.526
0.0008623162433990238,2.527
0.0008572780112308654,2.528
0.0008523673943215772,2.529
0.0008475913898043424,2.53
0.0008429576694902527,2.531
0.0008384744056613372,2.532
0.0008341499851567667,2.533
0.0008299926662955694,2.534
0.0008260103196855537,2.535
0.000822210415310804,2.536
0.0008186002502514481,2.537
0.000815187240279168,2.538
0.0008119791224586226,2.539
0.0008089840221511965,2.54
0.0008062103937201549,2.541
0.0008036668638763897,2.542
0.0008013620124533085,2.543
0.0007993041292813631,2.544
0.0007975010258997328,2.545
0.000795960025341162,2.546
0.0007946881815701156,2.547
0.0007936926355179326,2.548
0.0007929809686217838,2.549
0.000792561454062838,2.55
0.0007924431401339634,2.551
0.0007926357385904544,2.552
0.0007931493436627396,2.553
0.0007939940531223603,2.554
0.0007951796028357983,2.555
0.0007967151327886718,2.556
0.0007986091076262123,2.557
0.0008008693227656499,2.558
0.0008035029685834526,2.559
0.0008065167530186782,2.56
0.0008099170223302587,2.561
0.0008137098140992408,2.562
0.0008179008392390468,2.563
0.000822495432283373,2.564
0.0008274985100728745,2.565
0.0008329145538232464,2.566
0.0008387476014939051,2.567
0.0008450012269428081,2.568
0.0008516784909260235,2.569
0.0008587818609091742,2.57
0.0008663131238597273,2.571
0.0008742733676599934,2.572
0.0008826630954316682,2.573
0.0008914824383042777,2.574
0.0009007313730690523,2.575
0.0009104098655192838,2.576
0.0009205178808975044,2.577
0.0009310552283583241,2.578
0.0009420213218826307,2.579
0.0009534151095441561,2.58
0.0009652353325124841,2.581
0.0009774809412840097,2.582
0.0009901513867961035,2.583
0.0010032466614760393,2.584
0.0010167671041347876,2.585
0.0010307130515204922,2.586
0.0010450844510226588,2.587
0.0010598805381706283,2.588
0.0010750996362900735,2.589
0.0010907390722751124,2.59
0.0011067951615131584,2.591
0.001123263212585947,2.592
0.0011401375189995103,2.593
0.0011574113388788684,2.594
0.001175076889675414,2.595
0.0011931253597897492,2.596
0.001211546903869225,2.597
0.0012303306077925714,2.598
0.0012494644571112922,2.599
0.0012689353627900223,2.6
0.0012887292760032278,2.601
0.0013088313728274329,2.602
0.0013292262359000996,2.603
0.0013498979346602041,2.604
0.0013708299271519514,2.605
0.0013920048300411403,2.606
0.0014134042940534429,2.607
0.001435009178209009,2.608
0.0014567999285010872,2.609
0.0014787569710003915,2.61
0.0015008610642638874,2.611
0.001523093630823455,2.612
0.0015454370627464638,2.613
0.001567874944856361,2.614
0.0015903920906454986,2.615
0.0016129742669537621,2.616
0.001635607585905821,2.617
0.0016582779037060881,2.618
0.0016809708552797747,2.619
0.001703672734049912,2.62
0.001726371681509429,2.621
0.0017490585030586958,2.622
0.001771726737315408,2.623
0.0017943718586881324,2.624
0.0018169899817515871,2.625
0.0018395771695248978,2.626
0.0018621300960558536,2.627
0.0018846474100986193,2.628
0.0019071307229248592,2.629
0.0019295848323546167,2.63
0.0019520172707068154,2.631
0.0019744373783691233,2.632
0.0019968551399923962,2.633
0.002019280071394383,2.634
0.0020417205240777286,2.635
0.0020641835946432307,2.636
0.0020866754028700278,2.637
0.002109201364429689,2.638
0.0021317662945608655,2.639
0.002154374346247626,2.64
0.002177028826125696,2.641
0.002199731943534892,2.642
0.0022224845516389167,2.643
0.002245285930683441,2.644
0.0022681336521951,2.645
0.0022910235582276036,2.646
0.0023139498855931657,2.647
0.0023369055486523183,2.648
0.0023598825642834934,2.649
0.002382872570685165,2.65
0.00240586736752531,2.651
0.0024288593887210287,2.652
0.002451842009693503,2.653
0.002474809593451439,2.654
0.0024977571978954077,2.655
0.002520679895294602,2.656
0.0025435719024594254,2.657
0.0025664262197265795,2.658
0.0025892353674606496,2.659
0.0026119929213680717,2.66
0.0026346951210575714,2.661
0.0026573421092143134,2.662
0.0026799386130171394,2.663
0.0027024939888828075,2.664
0.0027250216554578423,2.665
0.002747538024647518,2.666
0.0027700610976243473,2.667
0.0027926089441302434,2.668
0.0028151984291499683,2.669
0.0028378446534916566,2.67
0.0028605611962858103,2.671
0.0028833606842265883,2.672
0.0029062552197430024,2.673
0.002929256551073283,2.674
0.0029523760195505604,2.675
0.0029756243371180774,2.676
0.0029990112636593927,2.677
0.00302254525184638,2.678
0.0030462331011904173,2.679
0.003070079626472487,2.68
0.0030940873257322586,2.681
0.0031182560781544064,2.682
0.003142582971036448,2.683
0.003167062265757627,2.684
0.003191685405506791,2.685
0.0032164411570601114,2.686
0.003241316124513027,2.687
0.003266295640040479,2.688
0.0032913648034896244,2.689
0.003316509411959598,2.69
0.0033417165207094038,2.691
0.003366974393432945,2.692
0.003392271697015527,2.693
0.0034175962395979454,2.694
0.0034429342788723444,2.695
0.003468271191512868,2.696
0.003493592982349409,2.697
0.003518887588261692,2.698
0.0035441455017472968,2.699
0.0035693597148335598,2.7
0.0035945251273075086,2.701
0.0036196376102513896,2.702
0.0036446929126632806,2.703
0.003669685572672125,2.704
0.003694607959284038,2.705
0.0037194495451435762,2.706
0.0037441964800208655,2.707
0.0037688314215754246,2.708
0.0037933334796199374,2.709
0.003817678214363537,2.71
0.0038418377301459574,2.711
0.003865780856047432,2.712
0.0038894733590636205,2.713
0.003912878163693765,2.714
0.003935955565170433,2.715
0.003958663406463677,2.716
0.003980957168086882,2.717
0.004002789909806658,2.718
0.004024112012586866,2.719
0.004044870787661611,2.72
0.004065010271607847,2.721
0.00408447153120121,2.722
0.004103193414883846,2.723
0.00412111344673427,2.724
0.0041381686811681005,2.725
0.004154296507980199,2.726
0.004169435487384377,2.727
0.004183526332374119,2.728
0.004196513112098615,2.729
0.00420834459238777,2.73
0.0042189753823447685,2.731
0.004228366327045985,2.732
0.004236483528421705,2.733
0.004243296011895429,2.734
0.004248773734614994,2.735
0.004252888371715585,2.736
0.00425561713396169,2.737
0.0042569473551341795,2.738
0.004256879716614842,2.739
0.00425542937955264,2.74
0.004252625112142566,2.741
0.00424850682437064,2.742
0.004243122067810545,2.743
0.004236522069937954,2.744
0.004228758164486132,2.745
0.0042198799770394625,2.746
0.004209935914788798,2.747
0.0041989747507159845,2.748
0.004187046898808591,2.749
0.004174205032234611,2.75
0.004160504199303524,2.751
0.00414600160726975,2.752
0.004130756231534042,2.753
0.004114828373140346,2.754
0.004098279235279334,2.755
0.004081170528717189,2.756
0.004063564061014536,2.757
0.004045521233215426,2.758
0.0040271023745131074,2.759
0.004008365903659755,2.76
0.003989367516900461,2.761
0.003970159857218887,2.762
0.003950792883921718,2.763
0.003931314577249529,2.764
0.003911771510579875,2.765
0.003892209131008538,2.766
0.0038726717523669017,2.767
0.003853202286493388,2.768
0.0038338417549096068,2.769
0.003814628681829634,2.77
0.00379559861571423,2.771
0.0037767840629709497,2.772
0.003758214824170486,2.773
0.0037399184080458606,2.774
0.003721920227924474,2.775
0.003704243469408295,2.776
0.0036869087226650845,2.777
0.0036699337838039026,2.778
0.0036533340544301616,2.779
0.0036371234797088385,2.78
0.0036213155855299283,2.781
0.003605924242316618,2.782
0.0035909639684030795,2.783
0.0035764497184276258,2.784
0.0035623962183620743,2.785
0.003548816998172329,2.786
0.0035357234095778466,2.787
0.003523124060830658,2.788
0.003511024842436339,2.789
0.003499429185461824,2.79
0.003488338128078459,2.791
0.0034777501119010084,2.792
0.0034676606876417955,2.793
0.003458062391652021,2.794
0.003448944900912933,2.795
0.003440295316557387,2.796
0.003432098396875799,2.797
0.003424336680978303,2.798
0.0034169904800393897,2.799
0.0034100377007274885,2.8
0.0034034536040561925,2.801
0.0033972108849807917,2.802
0.0033912804115375414,2.803
0.0033856325140566718,2.804
0.00338023847289479,2.805
0.003375071917269021,2.806
0.003370109882963996,2.807
0.003365333272781811,2.808
0.003360726515196509,2.809
0.003356276323595379,2.81
0.0033519699047203175,2.811
0.003347793828467019,2.812
0.0033437347466076443,2.813
0.0033397816735313878,2.814
0.0033359285226917876,2.815
0.0033321759459328717,2.816
0.0033285321120255108,2.817
0.003325012337252817,2.818
0.003321637670294761,2.819
0.003318432707251526,2.82
0.0033154231249291964,2.821
0.003312633736075112,2.822
0.0033100878099139026,2.823
0.0033078075294386165,2.824
0.00330581470735649,2.825
0.003304131158924572,2.826
0.0033027787252013063,2.827
0.0033017791223083097,2.828
0.003301153740401412,2.829
0.003300923449591025,2.83
0.003301108417449735,2.831
0.0033017279189497665,2.832
0.003302800124192095,2.833
0.0033043418683040213,2.834
0.0033063684232719783,2.835
0.003308893292254212,2.836
0.0033119280344904257,2.837
0.003315482112588523,2.838
0.0033195627415441055,2.839
0.0033241747109382064,2.84
0.0033293201648510813,2.841
0.003334998417863629,2.842
0.0033412060055326917,2.843
0.0033479370945597407,2.844
0.0033551841563427354,2.845
0.0033629387272373036,2.846
0.003371192131045844,2.847
0.0033799360526481055,2.848
0.0033891628268265545,2.849
0.003398865299256894,2.85
0.003409036153695784,2.851
0.003419666891662094,2.852
0.003430747208996233,2.853
0.0034422654222208936,2.854
0.0034542095855915876,2.855
0.0034665683517315317,2.856
0.00347933098345818,2.857
0.003492486494221319,2.858
0.003506022484639931,2.859
0.0035199245985995035,2.86
0.003534176898262111,2.861
0.003548762485243824,2.862
0.003563663741600801,2.863
0.003578862221265685,2.864
0.0035943384777917587,2.865
0.0036100720073280333,2.866
0.003626041311525805,2.867
0.0036422239465098163,2.868
0.0036585963890559863,2.869
0.003675133627338152,2.87
0.003691808521500703,2.871
0.003708591145973994,2.872
0.0037254484064931717,2.873
0.00374234399623324,2.874
0.0037592384311468372,2.875
0.0037760889519038187,2.876
0.0037928493448580927,2.877
0.003809469845548628,2.878
0.003825897277315386,2.879
0.0038420755426565797,2.88
0.0038579465180002734,2.881
0.003873451326399729,2.882
0.003888531901272416,2.883
0.003903132690740946,2.884
0.003917202272649454,2.885
0.003930694569654133,2.886
0.003943569304726958,2.887
0.0039557913518025786,2.888
0.003967328809070703,2.889
0.003978150593291662,2.89
0.0039882258010562645,2.891
0.003997526303565614,2.892
0.004006031198482421,2.893
0.004013730755880289,2.894
0.004020628614375081,2.895
0.004026741868035017,2.896
0.004032099137439337,2.897
0.0040367371214105096,2.898
0.0040406964492413905,2.899
0.004044018119314003,2.9
0.00404674195266819,2.901
0.004048907215779137,2.902
0.00405055398077099,2.903
0.004051723969679291,2.904
0.004052460722364952,2.905
0.004052809356100299,2.906
0.004052816149060854,2.907
0.004052528106471177,2.908
0.004051992584269224,2.909
0.004051256970818556,2.91
0.004050368376847412,2.911
0.004049373267484938,2.912
0.004048316990626946,2.913
0.004047243203907954,2.914
0.0040461932563347815,2.915
0.00404520561076761,2.916
0.0040443153801393746,2.917
0.0040435540152595935,2.918
0.004042949161148095,2.919
0.004042524670386294,2.92
0.004042300718466322,2.921
0.004042293960569872,2.922
0.004042517696342588,2.923
0.004042982027331645,2.924
0.004043694008668986,2.925
0.004044657821679535,2.926
0.004045875012341944,2.927
0.004047344837916933,2.928
0.004049064734023044,2.929
0.004051030857579657,2.93
0.004053238592110346,2.931
0.0040556828525640755,2.932
0.004058358028791997,2.933
0.004061257468541629,2.934
0.004064372616115113,2.935
0.004067692338858851,2.936
0.004071203068747715,2.937
0.004074889760505408,2.938
0.004078737068294879,2.939
0.004082730212159894,2.94
0.004086855301525104,2.941
0.004091099007822006,2.942
0.004095447565603708,2.943
0.004099885531512922,2.944
0.0041043954134017445,2.945
0.0041089589023150155,2.946
0.0041135590618914565,2.947
0.0041181823469070246,2.948
0.0041228198479555155,2.949
0.0041274675482639075,2.95
0.0041321255508484376,2.951
0.004136796401317339,2.952
0.004141482922719538,2.953
0.004146186515122664,2.954
0.0041509069076193505,2.955
0.0041556432527948455,2.956
0.0041603954613408526,2.957
0.004165164922682786,2.958
0.004169954439765802,2.959
0.004174767512290413,2.96
0.00417960718997115,2.961
0.004184474768877837,2.962
0.0041893686396541506,2.963
0.004194283576670849,2.964
0.004199210618946595,2.965
0.004204137580892535,2.966
0.00420905018180861,2.967
0.004213933591659387,2.968
0.004218773944917954,2.969
0.004223559294601885,2.97
0.004228279567362836,2.971
0.004232925383721043,2.972
0.004237486438935159,2.973
0.004241951022697199,2.974
0.004246307527649658,2.975
0.0042505469689612845,2.976
0.004254665120619801,2.977
0.004258663711282977,2.978
0.004262550625965379,2.979
0.00426633918568454,2.98
0.004270046663218452,2.981
0.004273692244633127,2.982
0.00427729481698784,2.983
0.004280871355241676,2.984
0.004284436649266412,2.985
0.004288004173144018,2.986
0.004291587121255687,2.987
0.004295198884753307,2.988
0.004298852799110601,2.989
0.0043025612330014245,2.99
0.004306334382984733,2.991
0.004310179593499634,2.992
0.004314101680027087,2.993
0.004318103603803997,2.994
0.004322186546381883,2.995
0.0043263494785057265,2.996
0.0043305894079412426,2.997
0.004334903061365563,2.998
0.004339289264162712,2.999
0.0043437507684854024,3.0
0.004348294871631008,3.001
0.004352932710626985,3.002
0.004357677441701157,3.003
0.004362541929663552,3.004
0.004367537031283501,3.005
0.004372671222327236,3.006
0.004377951100690737,3.007
0.004383381750687048,3.008
0.00438896658016994,3.009
0.004394706907627674,3.01
0.00440060174350727,3.011
0.00440664811423639,3.012
0.004412842072599883,3.013
0.004419180286400035,3.014
0.004425661874608461,3.015
0.004432290031944611,3.016
0.004439072982920217,3.017
0.004446023934090589,3.018
0.004453159917013965,3.019
0.004460499673290883,3.02
0.004468061238181531,3.021
0.004475860513089767,3.022
0.004483911592032595,3.023
0.0044922280610215784,3.024
0.00450082406848069,3.025
0.0045097147500147905,3.026
0.004518916087173536,3.027
0.004528444321251536,3.028
0.004538315025216126,3.029
0.004548541945479733,3.03
0.004559135870011432,3.031
0.0045701039873321594,3.032
0.004581449951961919,3.033
0.004593174278664515,3.034
0.004605274601273913,3.035
0.004617745687098423,3.036
0.004630579274380874,3.037
0.004643763778064826,3.038
0.004657283920488537,3.039
0.004671120486710179,3.04
0.004685250482879828,3.041
0.0046996477557174855,3.042
0.004714283858341769,3.043
0.004729128914823494,3.044
0.004744152314276988,3.045
0.004759323114682933,3.046
0.00477461009757871,3.047
0.004789981489199359,3.048
0.004805404392461426,3.049
0.004820843935599905,3.05
0.004836262313502021,3.051
0.004851618403356127,3.052
0.004866868590030392,3.053
0.004881968539823402,3.054
0.004896875151898753,3.055
0.004911548159624007,3.056
0.0049259511236736326,3.057
0.004940051687504863,3.058
0.004953821088005864,3.059
0.004967233026641404,3.06
0.0049802620993406885,3.061
0.004992882039810554,3.062
0.005005064082218183,3.063
0.0050167758452342726,3.064
0.005027981074182058,3.065
0.00503864019088915,3.066
0.005048711327730588,3.067
0.005058151673154988,3.068
0.005066919144154149,3.069
0.00507497434693633,3.07
0.005082282627301248,3.071
0.005088815867360498,3.072
0.00509455358377239,3.073
0.005099482859319328,3.074
0.005103596740174648,3.075
0.005106891287106411,3.076
0.005109362866346379,3.077
0.005111008037842448,3.078
0.0051118264914270534,3.079
0.0051118249282566105,3.08
0.005111019796450985,3.081
0.005109438256923071,3.082
0.005107117564179093,3.083
0.005104103246753277,3.084
0.0051004464653893605,3.085
0.005096200809415295,3.086
0.005091419182859429,3.087
0.005086152319213725,3.088
0.005080449770788807,3.089
0.005074362029000971,3.09
0.0050679419373896775,3.091
0.005061244800497691,3.092
0.0050543274093064845,3.093
0.00504724641224233,3.094
0.005040056524082848,3.095
0.0050328091056862055,3.096
0.005025551560247455,3.097
0.005018327491446164,3.098
0.005011177072652813,3.099
0.005004137197914294,3.1
0.004997241366593816,3.101
0.004990519389980147,3.102
0.004983997009274094,3.103
0.004977695559421393,3.104
0.0049716318490718794,3.105
0.004965818309848662,3.106
0.004960263308592038,3.107
0.004954971554126304,3.108
0.004949944662180045,3.109
0.004945181953887005,3.11
0.004940681456240761,3.111
0.004936440924757336,3.112
0.0049324585840240754,3.113
0.004928733239710189,3.114
0.004925263491541755,3.115
0.004922046309539982,3.116
0.004919076202167341,3.117
0.004916346053352148,3.118
0.004913849088753956,3.119
0.0049115806151043785,3.12
0.0049095388196561925,3.121
0.004907724620411882,3.122
0.004906140854775818,3.123
0.0049047912035385865,3.124
0.004903679207401743,3.125
0.004902807567734723,3.126
0.004902177693575533,3.127
0.004901789249695683,3.128
0.004901639483642478,3.129
0.004901722637668673,3.13
0.004902030291171206,3.131
0.00490255297783673,3.132
0.004903282337222388,3.133
0.004904212781539361,3.134
0.004905342091749004,3.135
0.004906670756194362,3.136
0.004908200173837806,3.137
0.004909930406551898,3.138
0.004911858791585042,3.139
0.0049139800846369494,3.14
0.004916287166108591,3.141
0.004918771008096347,3.142
0.004921419821581923,3.143
0.004924218364570365,3.144
0.004927148006516303,3.145
0.004930186957038786,3.146
0.004933310250053318,3.147
0.004936490331785381,3.148
0.004939698990211705,3.149
0.004942910041435486,3.15
0.0049461016482161895,3.151
0.004949257531069137,3.152
0.00495236674858711,3.153
0.004955422044583808,3.154
0.004958417242872829,3.155
0.004961344962591285,3.156
0.004964196152601324,3.157
0.004966961549434544,3.158
0.004969633583782483,3.159
0.004972207374050483,3.16
0.004974680409495858,3.161
0.0049770510836342555,3.162
0.004979316630939432,3.163
0.004981471403195328,3.164
0.0049835060450868635,3.165
0.0049854073101133585,3.166
0.0049871585443114165,3.167
0.0049887414051985575,3.168
0.004990138586229254,3.169
0.004991336476185681,3.17
0.004992326839539283,3.171
0.004993107023520427,3.172
0.0049936785463382954,3.173
0.0049940444968630225,3.174
0.004994207190030391,3.175
0.004994167877566561,3.176
0.004993928731927049,3.177
0.004993495515928683,3.178
0.004992879503806955,3.179
0.004992098315518775,3.18
0.004991175880171554,3.181
0.004990141866323487,3.182
0.004989030882130603,3.183
0.004987881601536697,3.184
0.004986735814921503,3.185
0.00498563730544015,3.186
0.004984630435303123,3.187
0.004983758458385932,3.188
0.004983062021995399,3.189
0.004982578682450082,3.19
0.004982343653034211,3.191
0.0049823909988034815,3.192
0.004982754473085272,3.193
0.004983467800191765,3.194
0.004984564504762088,3.195
0.00498607743606745,3.196
0.00498803816724543,3.197
0.004990476454311504,3.198
0.004993419900834062,3.199
0.004996893898644633,3.2
0.005000921825157543,3.201
0.005005525391496758,3.202
0.005010724968659498,3.203
0.005016539692534487,3.204
0.005022987179671555,3.205
0.00503008277275685,3.206
0.005037838562418933,3.207
0.005046262941968831,3.208
0.00505536123030312,3.209
0.005065136946522378,3.21
0.005075592993218669,3.211
0.005086732365460551,3.212
0.005098558196226134,3.213
0.005111072982577845,3.214
0.0051242772445795155,3.215
0.005138168690477341,3.216
0.005152742883228527,3.217
0.005167995011725877,3.218
0.005183921550326927,3.219
0.005200521027723665,3.22
0.005217793669327914,3.221
0.005235739924135444,3.222
0.0052543584989248856,3.223
0.005273645436316253,3.224
0.005293595167152669,3.225
0.005314202498517737,3.226
0.005335464003700691,3.227
0.005357378335529404,3.228
0.005379945699592903,3.229
0.005403166881628692,3.23
0.005427042202124639,3.231
0.005451570652548486,3.232
0.00547674933455168,3.233
0.005502573208827226,3.234
0.005529035068811785,3.235
0.005556125599037954,3.236
0.005583833377489636,3.237
0.005612144726966894,3.238
0.005641043368092252,3.239
0.005670509839829914,3.24
0.00570052076836529,3.241
0.005731048414763333,3.242
0.005762061048040088,3.243
0.0057935241763524435,3.244
0.005825402165611027,3.245
0.005857659809964801,3.246
0.0058902636281306965,3.247
0.005923182752390328,3.248
0.005956389336673691,3.249
0.005989858498733898,3.25
0.006023567908418592,3.251
0.0060574971822731265,3.252
0.006091627180807619,3.253
0.006125939130593744,3.254
0.006160413317092755,3.255
0.006195027453085177,3.256
0.006229755879864327,3.257
0.006264570815812476,3.258
0.006299445266234468,3.259
0.006334356220648655,3.26
0.006369287252382254,3.261
0.006404230216050281,3.262
0.006439185891137508,3.263
0.006474163424483397,3.264
0.006509178442333893,3.265
0.006544249838123247,3.266
0.006579396051556592,3.267
0.006614632955416513,3.268
0.0066499747383815125,3.269
0.006685436418675699,3.27
0.006721035741571687,3.271
0.006756793575427197,3.272
0.006792732929815401,3.273
0.00682887697037789,3.274
0.006865246616289741,3.275
0.006901858702711873,3.276
0.0069387256330249465,3.277
0.006975856374681569,3.278
0.007013257705997185,3.279
0.007050934821682427,3.28
0.007088890997703066,3.281
0.007127126424466304,3.282
0.007165636985438572,3.283
0.007204414265953455,3.284
0.0072434472246132395,3.285
0.007282724495527468,3.286
0.007322236002980084,3.287
0.007361973191213805,3.288
0.007401927675393343,3.289
0.00744208887765241,3.29
0.007482442388352872,3.291
0.007522970562490643,3.292
0.00756365474698211,3.293
0.007604477316161477,3.294
0.007645422421694492,3.295
0.007686475343189544,3.296
0.007727620813980859,3.297
0.007768840916175981,3.298
0.007810113094037202,3.299
0.007851408701262273,3.3
0.007892692565797482,3.301
0.007933923977496777,3.302
0.007975059016629807,3.303
0.008016053747763777,3.304
0.00805686764251965,3.305
0.008097466445993708,3.306
0.008137823694841038,3.307
0.00817792032223629,3.308
0.00821774214831296,3.309
0.008257275932325506,3.31
0.008296506301298131,3.311
0.008335416145130514,3.312
0.008373990385564625,3.313
0.008412220575264907,3.314
0.008450108226401498,3.315
0.00848766617884197,3.316
0.008524917957507447,3.317
0.008561895326390038,3.318
0.008598634497421891,3.319
0.008635171709564052,3.32
0.00867153937975728,3.321
0.008707764302353318,3.322
0.008743868142152863,3.323
0.008779868695048439,3.324
0.00881578043228167,3.325
0.008851613984030957,3.326
0.00888737485366088,3.327
0.008923062125762821,3.328
0.008958668155668011,3.329
0.008994179405302696,3.33
0.009029577527175831,3.331
0.009064839814167487,3.332
0.009099938755493505,3.333
0.009134840945860728,3.334
0.009169506209638894,3.335
0.00920388800577443,3.336
0.009237935245162924,3.337
0.00927159458806734,3.338
0.009304812238822681,3.339
0.009337534755458388,3.34
0.009369708806078675,3.341
0.009401280127624345,3.342
0.009432192175302834,3.343
0.009462385021032468,3.344
0.009491794963815877,3.345
0.009520355088221265,3.346
0.009547996706149142,3.347
0.009574651311708725,3.348
0.009600252436949855,3.349
0.00962473667803726,3.35
0.009648043212835824,3.351
0.009670111432418655,3.352
0.009690877713515548,3.353
0.009710274510069117,3.354
0.009728234039228713,3.355
0.009744694918857242,3.356
0.009759608662358915,3.357
0.009772944378460224,3.358
0.009784691047980906,3.359
0.009794857113946745,3.36
0.009803467501384921,3.361
0.009810558525120106,3.362
0.009816171391968241,3.363
0.009820345900826961,3.364
0.009823117323245293,3.365
0.009824517982763585,3.366
0.009824581247507364,3.367
0.00982334489669669,3.368
0.009820852808249219,3.369
0.009817154956377656,3.37
0.00981230584781987,3.371
0.009806361694838625,3.372
0.009799376832995576,3.373
0.00979140024627025,3.374
0.009782473240533674,3.375
0.009772628609955205,3.376
0.0097618909738072,3.377
0.009750278272808012,3.378
0.009737804318960853,3.379
0.009724481466592954,3.38
0.009710322295997892,3.381
0.00969533968724978,3.382
0.009679545140147868,3.383
0.009662946083242516,3.384
0.009645544264822921,3.385
0.00962733686677483,3.386
0.009608319360289205,3.387
0.009588487871159432,3.388
0.009567839880781857,3.389
0.00954637327218111,3.39
0.009524084338606787,3.391
0.009500965705992312,3.392
0.009477005171352375,3.393
0.009452186197328922,3.394
0.009426490258960595,3.395
0.009399900515415492,3.396
0.009372405584320792,3.397
0.009344001824076707,3.398
0.009314692730192427,3.399
0.00928448533084201,3.4
0.009253386235986663,3.401
0.009221401568737676,3.402
0.009188541806875073,3.403
0.009154828069831372,3.404
0.00912029624416696,3.405
0.009084997778447965,3.406
0.009048997396503639,3.407
0.009012368485152652,3.408
0.008975187292771473,3.409
0.0089375277828982,3.41
0.008899459396478456,3.411
0.008861048154118742,3.412
0.008822358911859143,3.413
0.008783456634048824,3.414
0.008744406232718403,3.415
0.008705271324186808,3.416
0.008666112355362158,3.417
0.00862698460653398,3.418
0.008587936674469044,3.419
0.008549009941739431,3.42
0.00851023894897239,3.421
0.008471652085609762,3.422
0.008433272213646918,3.423
0.008395117224625766,3.424
0.008357200543015739,3.425
0.008319531368523519,3.426
0.008282114288610556,3.427
0.008244948446693661,3.428
0.008208027711409745,3.429
0.008171343129851832,3.43
0.008134886970273765,3.431
0.008098656669650447,3.432
0.008062657598658245,3.433
0.008026904175661024,3.434
0.007991419210831907,3.435
0.00795623165483687,3.436
0.007921373113624721,3.437
0.007886873963499668,3.438
0.007852760755480793,3.439
0.007819056205306714,3.44
0.007785781007053309,3.441
0.007752955699269786,3.442
0.007720601774477858,3.443
0.007688742198536754,3.444
0.007657401663166528,3.445
0.007626606733965649,3.446
0.0075963858947895035,3.447
0.00756676940700509,3.448
0.007537788898776356,3.449
0.007509476632748296,3.45
0.007481864435396851,3.451
0.0074549823013222785,3.452
0.007428856732228538,3.453
0.007403509168479477,3.454
0.007378955336151912,3.455
0.007355205982262348,3.456
0.007332268417654599,3.457
0.007310148012772547,3.458
0.007288849247529145,3.459
0.00726837615537378,3.46
0.007248732062011273,3.461
0.007229918627575781,3.462
0.007211934335195781,3.463
0.007194772930068301,3.464
0.007178422762121386,3.465
0.007162867521784223,3.466
0.007148087702927067,3.467
0.007134061851146588,3.468
0.007120767151493484,3.469
0.007108179154388326,3.47
0.00709627064388162,3.471
0.007085010439715959,3.472
0.007074363633507758,3.473
0.007064293885348875,3.474
0.007054766702038485,3.475
0.007045752227071185,3.476
0.007037226766140119,3.477
0.0070291728296056,3.478
0.007021577820228821,3.479
0.007014431721420157,3.48
0.007007724206246613,3.481
0.007001442009507149,3.482
0.006995568132940164,3.483
0.006990083751029684,3.484
0.006984971716376593,3.485
0.00698021995645763,3.486
0.0069758238321771145,3.487
0.006971787054170926,3.488
0.006968120963983633,3.489
0.0069648422035583826,3.49
0.0069619691983997855,3.491
0.00695951894346737,3.492
0.006957506344614274,3.493
0.006955946738846538,3.494
0.006954859623965987,3.495
0.006954271369717872,3.496
0.006954216016614615,3.497
0.006954734077311613,3.498
0.006955869603607619,3.499
0.006957666453993854,3.5
0.006960165653244818,3.501
0.006963405215829579,3.502
0.00696742149154162,3.503
0.006972249990783777,3.504
0.006977924789944878,3.505
0.006984476948517104,3.506
0.006991932883873066,3.507
0.00700031361510472,3.508
0.007009635385941266,3.509
0.0070199115942225915,3.51
0.007031155442185817,3.511
0.007043382446891124,3.512
0.007056611967640899,3.513
0.007070867187935354,3.514
0.007086173428047498,3.515
0.007102555348930919,3.516
0.00712003460292284,3.517
0.007138629624354663,3.518
0.007158357608338034,3.519
0.007179237189359535,3.52
0.007201290608088249,3.521
0.00722454502565534,3.522
0.007249032927900356,3.523
0.007274791574938983,3.524
0.007301861547769944,3.525
0.007330284642173539,3.526
0.007360101575500443,3.527
0.007391350054689712,3.528
0.007424063603463129,3.529
0.007458271193443718,3.53
0.007493997315374722,3.531
0.007531261854982291,3.532
0.007570079526320254,3.533
0.007610459765541802,3.534
0.007652408192582363,3.535
0.007695929287324509,3.536
0.007741028948477812,3.537
0.007787716016935527,3.538
0.007836002465102023,3.539
0.007885902299951248,3.54
0.007937429457994813,3.541
0.007990595190482933,3.542
0.008045405804144966,3.543
0.008101861723040088,3.544
0.008159957939686609,3.545
0.008219684845654496,3.546
0.008281028529867295,3.547
0.008343970349001023,3.548
0.008408485969099893,3.549
0.008474544354085749,3.55
0.00854210732148185,3.551
0.008611129808795382,3.552
0.008681560312062858,3.553
0.008753340920445378,3.554
0.008826406878515837,3.555
0.008900686225878638,3.556
0.00897610029654159,3.557
0.009052565278368173,3.558
0.009129994306604045,3.559
0.009208299449117266,3.56
0.009287393124727913,3.561
0.009367188618037162,3.562
0.009447599489662317,3.563
0.009528537878931972,3.564
0.009609912049461395,3.565
0.009691624189544801,3.566
0.009773569718970416,3.567
0.009855638199944613,3.568
0.009937714616599405,3.569
0.010019679989473815,3.57
0.010101411245741728,3.571
0.010182780739963291,3.572
0.010263655929749444,3.573
0.010343899724062026,3.574
0.010423371916698333,3.575
0.010501931850239298,3.576
0.010579442016312253,3.577
0.010655771784160422,3.578
0.010730800063884908,3.579
0.010804415654398596,3.58
0.010876514387598499,3.581
0.010946993887469128,3.582
0.011015749947449282,3.583
0.011082678662917391,3.584
0.01114768353979374,3.585
0.011210683340410723,3.586
0.011271617716376558,3.587
0.011330449732371404,3.588
0.011387165109497957,3.589
0.011441768321883471,3.59
0.011494276101862719,3.591
0.011544709533548468,3.592
0.011593087049434125,3.593
0.011639421229939806,3.594
0.011683719915599087,3.595
0.011725988840605774,3.596
0.011766233247145739,3.597
0.011804458238196307,3.598
0.01184066862534903,3.599
0.011874868972604398,3.6
0.011907064244170412,3.601
0.011937261033340037,3.602
0.0119654689530323,3.603
0.011991701573758522,3.604
0.012015976376303894,3.605
0.012038313476770144,3.606
0.01205873319899966,3.607
0.012077252739167934,3.608
0.012093882735962338,3.609
0.012108625690825436,3.61
0.012121477635209012,3.611
0.012132431924767676,3.612
0.012141482999868138,3.613
0.012148628889566032,3.614
0.012153871993453911,3.615
0.012157218000133278,3.616
0.012158673155233021,3.617
0.012158240434853003,3.618
0.012155915821861945,3.619
0.012151686575700137,3.62
0.012145532398032276,3.621
0.0121374283011274,3.622
0.012127347675969184,3.623
0.012115265052493093,3.624
0.012101158291955882,3.625
0.012085009660538118,3.626
0.012066805079247086,3.627
0.01204653106981527,3.628
0.012024170701544408,3.629
0.011999702576074585,3.63
0.01197310552821867,3.631
0.011944366494413891,3.632
0.011913487175378334,3.633
0.011880487254476881,3.634
0.011845403644202019,3.635
0.011808286031028828,3.636
0.011769189793157078,3.637
0.01172816898157404,3.638
0.011685273514323254,3.639
0.011640552172193296,3.64
0.011594058205915468,3.641
0.011545853786199971,3.642
0.011496012084714872,3.643
0.011444617095998415,3.644
0.011391761532066235,3.645
0.01133754327319413,3.646
0.011282060954716214,3.647
0.011225409488554201,3.648
0.011167676806674862,3.649
0.01110894304713354,3.65
0.011049282043759873,3.651
0.010988763788755474,3.652
0.010927456840084239,3.653
0.010865430346367505,3.654
0.010802755520583086,3.655
0.0107395064098954,3.656
0.010675759937680081,3.657
0.010611595305052767,3.658
0.010547092837247174,3.659
0.010482332258810347,3.66
0.010417390282103391,3.661
0.01035233796093324,3.662
0.010287239554360271,3.663
0.01022215427202007,3.664
0.010157139844130544,3.665
0.010092255819001278,3.666
0.010027565459860787,3.667
0.009963135984168587,3.668
0.009899037282241011,3.669
0.009835339503557809,3.67
0.009772109991159144,3.671
0.009709410413472789,3.672
0.009647295536236816,3.673
0.009585814294104577,3.674
0.009525011940967177,3.675
0.009464931693777448,3.676
0.009405615313989974,3.677
0.009347102684619468,3.678
0.009289430527289323,3.679
0.009232630615799702,3.68
0.00917672850565813,3.681
0.00912174398199971,3.682
0.009067693164332074,3.683
0.009014590915816436,3.684
0.008962452365106493,3.685
0.008911293144990489,3.686
0.008861128411163292,3.687
0.008811970872379343,3.688
0.008763828499902877,3.689
0.008716703412103757,3.69
0.0086705930917263,3.691
0.008625493294935557,3.692
0.008581401137957488,3.693
0.008538317395501756,3.694
0.008496247546484518,3.695
0.008455201322983297,3.696
0.008415190792533417,3.697
0.008376227330567905,3.698
0.008338318529382278,3.699
0.00830146682538792,3.7
0.008265670611979213,3.701
0.00823092639152259,3.702
0.008197230085440406,3.703
0.008164576748118206,3.704
0.008132958916314001,3.705
0.008102364933627633,3.706
0.008072779081379844,3.707
0.008044183774523423,3.708
0.008016562120013164,3.709
0.007989899126753186,3.71
0.007964180982655961,3.711
0.007939392741673277,3.712
0.007915515734311679,3.713
0.007892526471765606,3.714
0.007870397435059974,3.715
0.007849098342964654,3.716
0.007828596708214427,3.717
0.0078088577959370626,3.718
0.007789844657642457,3.719
0.007771518795278191,3.72
0.007753841656580053,3.721
0.007736776725606992,3.722
0.007720291620866438,3.723
0.007704359447612957,3.724
0.00768895868724497,3.725
0.007674071137436537,3.726
0.007659678525446723,3.727
0.007645760447795099,3.728
0.0076322960739937645,3.729
0.007619268617152634,3.73
0.007606669522431401,3.731
0.007594500387540785,3.732
0.0075827721005242614,3.733
0.007571501512515135,3.734
0.007560706810673759,3.735
0.007550403682596759,3.736
0.007540603999823371,3.737
0.0075313165304688335,3.738
0.007522547708423466,3.739
0.00751430135732705,3.74
0.007506577578609881,3.741
0.007499371408959117,3.742
0.007492671904466441,3.743
0.007486462192734532,3.744
0.00748072051584357,3.745
0.007475421814241815,3.746
0.0074705393672460105,3.747
0.007466046072638547,3.748
0.007461914873863485,3.749
0.007458117816328637,3.75
0.007454624135518172,3.751
0.007451399692649638,3.752
0.007448409774237507,3.753
0.007445624115174361,3.754
0.007443021424216033,3.755
0.007440591666982982,3.756
0.007438335419692289,3.757
0.007436260327712429,3.758
0.007434376059062615,3.759
0.007432690936656227,3.76
0.007431212612427668,3.761
0.007429951355240158,3.762
0.007428922761558002,3.763
0.007428148292091437,3.764
0.007427653725355205,3.765
0.007427466244920196,3.766
0.007427611134059753,3.767
0.007428109221895255,3.768
0.007428975813830457,3.769
0.007430220599419913,3.77
0.007431847551848491,3.771
0.007433855078188204,3.772
0.0074362374133450015,3.773
0.0074389871867623514,3.774
0.007442098186406777,3.775
0.007445567537212873,3.776
0.007449396863088381,3.777
0.007453592156773066,3.778
0.00745816221253573,3.779
0.0074631158752969055,3.78
0.007468459451006796,3.781
0.007474196348449742,3.782
0.007480329468999856,3.783
0.007486864523882485,3.784
0.007493812308737083,3.785
0.007501189213029643,3.786
0.007509015989632596,3.787
0.007517315149826739,3.788
0.007526107712092023,3.789
0.007535410380565709,3.79
0.007545233985080554,3.791
0.007555583074763647,3.792
0.007566456408945221,3.793
0.007577848770919348,3.794
0.007589754164656931,3.795
0.007602169408286812,3.796
0.007615096873741393,3.797
0.007628545434159952,3.798
0.007642529094196045,3.799
0.007657063682936558,3.8
0.007672163752993301,3.801
0.0076878425354260736,3.802
0.007704115271423882,3.803
0.007721003245247357,3.804
0.007738535984142332,3.805
0.007756750903349971,3.806
0.00777569081295337,3.807
0.007795400205073921,3.808
0.007815921427192962,3.809
0.00783729169895064,3.81
0.007859541515214065,3.811
0.007882694438949244,3.812
0.007906767838860252,3.813
0.00793177396601774,3.814
0.007957720924774248,3.815
0.007984613426116408,3.816
0.008012453504558068,3.817
0.008041241467753285,3.818
0.00807097715720109,3.819
0.008101661203813415,3.82
0.008133295607666135,3.821
0.008165882921025217,3.822
0.008199424085036842,3.823
0.008233916681199367,3.824
0.008269355826839183,3.825
0.008305737597989497,3.826
0.008343062580613857,3.827
0.00838133743364469,3.828
0.008420573759811058,3.829
0.008460784685416431,3.83
0.008501980726748433,3.831
0.008544167299596762,3.832
0.008587344669967474,3.833
0.008631508571262924,3.834
0.008676649794687687,3.835
0.008722753158748204,3.836
0.008769797424025826,3.837
0.008817756994425425,3.838
0.008866604780348002,3.839
0.008916315143100498,3.84
0.008966866212504001,3.841
0.009018241019063365,3.842
0.009070426875480736,3.843
0.009123412692959522,3.844
0.009177185342667999,3.845
0.009231728190684383,3.846
0.009287023591321605,3.847
0.009343056946876824,3.848
0.009399818915736756,3.849
0.009457304666228664,3.85
0.009515510882701464,3.851
0.00957443193715988,3.852
0.009634056769053042,3.853
0.009694367588427934,3.854
0.009755340740088747,3.855
0.00981694920671908,3.856
0.009879165559313252,3.857
0.009941963907879004,3.858
0.01000531965926464,3.859
0.01006920705729111,3.86
0.010133596745492354,3.861
0.010198456465195323,3.862
0.01026375517500914,3.863
0.010329467652160184,3.864
0.010395576701532567,3.865
0.010462071816512144,3.866
0.01052894489342601,3.867
0.010596186113286686,3.868
0.010663783972600451,3.869
0.010731729745155462,3.87
0.010800022568173692,3.871
0.01086867180932081,3.872
0.01093769603591622,3.873
0.011007119376844766,3.874
0.0110769664178763,3.875
0.011147257263480965,3.876
0.011218005206922317,3.877
0.011289218273975303,3.878
0.011360903026065657,3.879
0.011433068314866762,3.88
0.011505727991138906,3.881
0.011578902276660955,3.882
0.011652617672694652,3.883
0.011726905492875197,3.884
0.011801799286137915,3.885
0.011877331542010401,3.886
0.011953530156945513,3.887
0.012030415284725537,3.888
0.012107997341913212,3.889
0.012186276554316668,3.89
0.012265243659269405,3.891
0.012344881278297663,3.892
0.012425165950052408,3.893
0.012506070868641661,3.894
0.01258756894008375,3.895
0.012669635390734674,3.896
0.012752249128638362,3.897
0.012835392377871494,3.898
0.0129190486257354,3.899
0.0130031994295701,3.9
0.013087820916028094,3.901
0.01317288074827845,3.902
0.013258335979303228,3.903
0.013344131800080962,3.904
0.013430201056027042,3.905
0.013516464550201059,3.906
0.013602832234826995,3.907
0.013689205292706076,3.908
0.013775478990987116,3.909
0.013861546074574571,3.91
0.013947300278338981,3.911
0.014032639314507319,3.912
0.014117466579658795,3.913
0.014201690987020375,3.914
0.01428522478419756,3.915
0.01436797974548648,3.916
0.01444986259687588,3.917
0.014530771280515973,3.918
0.01461059418966492,3.919
0.014689213223436557,3.92
0.014766509408233933,3.921
0.014842369421828731,3.922
0.014916691955558704,3.923
0.01498939286604657,3.924
0.015060407874529017,3.925
0.015129691758914725,3.926
0.015197213595046735,3.927
0.015262948667529946,3.928
0.015326870042749604,3.929
0.015388945158900368,3.93
0.015449139936000939,3.931
0.015507426774390891,3.932
0.015563791732649985,3.933
0.015618239104576803,3.934
0.01567079303585126,3.935
0.015721496017069188,3.936
0.01577040447552517,3.937
0.015817582156451508,3.938
0.015863092432389023,3.939
0.015906991624179072,3.94
0.015949326201819443,3.941
0.015990134669880383,3.942
0.016029451472036833,3.943
0.016067309983466605,3.944
0.016103743625772025,3.945
0.016138785162903267,3.946
0.016172464550442706,3.947
0.01620480603175812,3.948
0.016235825379314426,3.949
0.01626552819649882,3.95
0.01629391001344036,3.951
0.01632095854186843,3.952
0.016346657924174293,3.953
0.01637099419074624,3.954
0.016393960577719052,3.955
0.01641556107302178,3.956
0.016435810744395395,3.957
0.016454732078399866,3.958
0.016472348253223437,3.959
0.016488677345678552,3.96
0.01650373239241213,3.961
0.016517527664493898,3.962
0.016530086715759233,3.963
0.016541448324848107,3.964
0.016551669260203523,3.965
0.01656082410073886,3.966
0.01656900262133583,3.967
0.01657630531775391,3.968
0.016582837624364032,3.969
0.016588703402133007,3.97
0.01659399877095214,3.971
0.016598808116354762,3.972
0.01660320309664816,3.973
0.016607242877982056,3.974
0.01661097364421065,3.975
0.016614428036655846,3.976
0.016617625704882556,3.977
0.0166205740346974,3.978
0.01662326848888319,3.979
0.016625694688336003,3.98
0.01662783362531389,3.981
0.016629667786399006,3.982
0.016631184981897234,3.983
0.016632378636352866,3.984
0.016633245208661072,3.985
0.016633780378325826,3.986
0.01663397580180087,3.987
0.016633817718308845,3.988
0.016633287761368683,3.989
0.01663236535980835,3.99
0.01663103041404791,3.991
0.01662926472516017,3.992
0.016627050987590507,3.993
0.016624369007992947,3.994
0.016621190820303656,3.995
0.016617478567407935,3.996
0.016613187181435958,3.997
0.01660826912760048,3.998
0.016602677482512596,3.999
0.016596366180729818,4.0
0.016589288070355365,4.001
0.016581392148749048,4.002
0.016572621682135327,4.003
0.016562914660471682,4.004
0.016552207196902223,4.005
0.016540439275780847,4.006
0.016527561090107334,4.007
0.016513537534506607,4.008
0.01649834855819767,4.009
0.016481984085796462,4.01
0.016464435437846956,4.011
0.016445690034318845,4.012
0.016425734805981237,4.013
0.016404565225516803,4.014
0.016382193059726845,4.015
0.01635864948454568,4.016
0.01633398355392046,4.017
0.01630825714252859,4.018
0.016281537925451523,4.019
0.01625389211872474,4.02
0.01622537860510368,4.021
0.01619604557962313,4.022
0.0161659298848103,4.023
0.016135058013358582,4.024
0.01610344690043934,4.025
0.016071103396004757,4.026
0.016038024260247547,4.027
0.016004200029865145,4.028
0.015969623186585964,4.029
0.015934297622982565,4.03
0.015898246029458753,4.031
0.015861512938722094,4.032
0.015824162324638496,4.033
0.015786270007632483,4.034
0.015747913663304712,4.035
0.015709166463062297,4.036
0.01567009863850505,4.037
0.015630784256602248,4.038
0.0155913075141258,4.039
0.015551765780064295,4.04
0.015512269312885175,4.041
0.015472938435727439,4.042
0.015433899240769008,4.043
0.015395278884361605,4.044
0.015357201275795642,4.045
0.01531978358001969,4.046
0.015283133557288246,4.047
0.015247347553263808,4.048
0.015212509328484563,4.049
0.015178690532200338,4.05
0.015145953216215723,4.051
0.015114353509725856,4.052
0.015083944969691078,4.053
0.015054780394663887,4.054
0.015026911416140078,4.055
0.015000385848136543,4.056
0.014975243849403031,4.057
0.01495151513686521,4.058
0.014929218836191142,4.059
0.014908364994053848,4.06
0.014888955658433007,4.061
0.014870984562708425,4.062
0.014854435651951173,4.063
0.014839281544140437,4.064
0.014825483571245301,4.065
0.014812994159165253,4.066
0.014801760703701315,4.067
0.014791729805017232,4.068
0.014782851367302542,4.069
0.014775082334015123,4.07
0.014768389686189548,4.071
0.014762752038816142,4.072
0.014758158826012405,4.073
0.014754605927195838,4.074
0.014752088959401301,4.075
0.014750600546368117,4.076
0.01475013693756104,4.077
0.014750710609995027,4.078
0.014752361306731951,4.079
0.014755161205896828,4.08
0.014759213297677294,4.081
0.014764643909106435,4.082
0.014771591620094057,4.083
0.014780195922207633,4.084
0.014790589668536283,4.085
0.014802897051799645,4.086
0.014817234454949002,4.087
0.014833710629842152,4.088
0.01485242537217565,4.089
0.014873467748993655,4.09
0.014896915110536998,4.091
0.014922833751541669,4.092
0.01495128152436773,4.093
0.01498231203762692,4.094
0.015015979513650628,4.095
0.015052343127475418,4.096
0.015091469738051748,4.097
0.015133434235919608,4.098
0.015178317163619264,4.099
0.015226199762970126,4.1
0.01527715801026203,4.101
0.015331259289070445,4.102
0.015388564046993222,4.103
0.015449130124821362,4.104
0.015513015879272373,4.105
0.015580280405398052,4.106
0.015650980930175813,4.107
0.015725168488311583,4.108
0.01580288423069859,4.109
0.01588415848476471,4.11
0.015969012060890842,4.111
0.01605745732290315,4.112
0.016149497398839786,4.113
0.016245124217363387,4.114
0.016344317902629368,4.115
0.016447049161667233,4.116
0.01655328322493896,4.117
0.016662982742458695,4.118
0.016776108213663543,4.119
0.01689261572868343,4.12
0.01701245295651523,4.121
0.017135555504305428,4.122
0.017261845247761184,4.123
0.017391229951112155,4.124
0.01752360291397406,4.125
0.017658843199732314,4.126
0.017796817295237535,4.127
0.017937381249257776,4.128
0.0180803816321492,4.129
0.018225654539066913,4.13
0.018373023591016373,4.131
0.018522299804238817,4.132
0.018673285286381753,4.133
0.018825779322708142,4.134
0.01897958427720283,4.135
0.019134510134753018,4.136
0.019290377565683716,4.137
0.019447019637567287,4.138
0.019604282101905995,4.139
0.019762021639126805,4.14
0.01992010098189947,4.141
0.02007838147356599,4.142
0.020236718238043367,4.143
0.020394963902219673,4.144
0.020552979467139038,4.145
0.02071064479431761,4.146
0.02086786276153501,4.147
0.02102455547911384,4.148
0.021180654025317762,4.149
0.021336086078020417,4.15
0.021490767954626528,4.151
0.02164460370232479,4.152
0.021797486434591843,4.153
0.021949297177250637,4.154
0.022099903571260432,4.155
0.022249163329088124,4.156
0.022396932516317265,4.157
0.022543074449126885,4.158
0.022687465475626473,4.159
0.02282999593434612,4.16
0.022970565919288775,4.161
0.023109076725778506,4.162
0.023245421511034998,4.163
0.023379481415793928,4.164
0.02351113014733924,4.165
0.023640243029582862,4.166
0.023766705495926427,4.167
0.02389041965723693,4.168
0.02401130923661455,4.169
0.024129322901407513,4.17
0.024244435565402518,4.171
0.024356646875927847,4.172
0.02446597605917588,4.173
0.024572452645184324,4.174
0.024676104850633623,4.175
0.02477695194559047,4.176
0.02487500678178329,4.177
0.024970286713447136,4.178
0.025062825731930086,4.179
0.025152682966099994,4.18
0.02523994627448564,4.181
0.025324730941140697,4.182
0.02540717383243309,4.183
0.025487423695780925,4.184
0.02556562912339495,4.185
0.025641927859830698,4.186
0.02571644238503337,4.187
0.025789282676332875,4.188
0.025860551502928035,4.189
0.02593034802391895,4.19
0.025998769166442552,4.191
0.026065909783707025,4.192
0.026131862485684883,4.193
0.026196717704201948,4.194
0.026260564106160997,4.195
0.02632348905514759,4.196
0.02638557860532374,4.197
0.02644691655774796,4.198
0.02650758234087353,4.199
0.026567647731315685,4.2
0.02662717253910934,4.201
0.02668619991590672,4.202
0.026744753641763812,4.203
0.026802840457771235,4.204
0.026860457940386835,4.205
0.02691760536196641,4.206
0.026974294392264776,4.207
0.027030557068984766,4.208
0.027086449025699535,4.209
0.027142046965651395,4.21
0.027197440792094244,4.211
0.02725272208113119,4.212
0.027307972204061646,4.213
0.027363255042876854,4.214
0.027418616815698967,4.215
0.027474089784659896,4.216
0.027529695086038204,4.217
0.02758544291446094,4.218
0.02764133041498456,4.219
0.027697338084268226,4.22
0.027753425759023016,4.221
0.027809529631958,4.222
0.027865561259096894,4.223
0.027921408019021928,4.224
0.027976933806007846,4.225
0.0280319796259232,4.226
0.028086364668028704,4.227
0.02813988842345745,4.228
0.028192333895994317,4.229
0.028243471403138373,4.23
0.028293062243841045,4.231
0.02834086174528271,4.232
0.028386621675622288,4.233
0.028430092293378995,4.234
0.02847102405116601,4.235
0.02850916812532449,4.236
0.028544273757135953,4.237
0.028576082499702584,4.238
0.028604327773951794,4.239
0.02862875177390566,4.24
0.02864914182643862,4.241
0.028665377245894783,4.242
0.02867747513375011,4.243
0.028685624268663043,4.244
0.02869019774559232,4.245
0.02869173895773137,4.246
0.02869092114222625,4.247
