VaMe,time
-0.009494574663626729,0.001
-0.008796968926113416,0.002
-0.008101656806719324,0.003
-0.007409239138054097,0.004
-0.006720304796850915,0.005
-0.006035425475187633,0.006
-0.005355147382970893,0.007
-0.004679981185349626,0.008
-0.004010392597841819,0.009
-0.0033467966356183778,0.01
-0.002689558130843014,0.011
-0.0020389996460129286,0.012
-0.0013954144443708188,0.013
-0.0007590772347252923,0.014
-0.0001302458271787059,0.015
0.0004908446314871244,0.016
0.0011039873220698992,0.017
0.0017090047450396462,0.018
0.0023057451144308846,0.019
0.0028940757994220623,0.02
0.0034738756019182886,0.021
0.004045028228015532,0.022
0.004607419636545469,0.023
0.005160939677534834,0.024
0.005705485237170007,0.025
0.006240962020177652,0.026
0.0067672840332285,0.027
0.00728437099426966,0.028
0.007792144418786228,0.029
0.00829052350489695,0.03
0.008779421964361918,0.031
0.009258746572470692,0.032
0.009728397563598034,0.033
0.01018827033593659,0.034
0.010638257516427177,0.035
0.011078250423955997,0.036
0.011508139303427322,0.037
0.011927812172963355,0.038
0.012337152492452371,0.039
0.012736036375088381,0.04
0.013124330901696075,0.041
0.013501894896266969,0.042
0.013868581809557383,0.043
0.01422424328004642,0.044
0.014568732276340137,0.045
0.014901905224749571,0.046
0.015223622837794784,0.047
0.015533749752349287,0.048
0.015832153498278698,0.049
0.016118703595108683,0.05
0.01639327160263218,0.051
0.016655732653280537,0.052
0.016905968348238168,0.053
0.017143870018290416,0.054
0.017369340549011437,0.055
0.017582292698000376,0.056
0.017782643202202804,0.057
0.017970306414251024,0.058
0.018145194833144314,0.059
0.01830722947604888,0.06
0.018456355039911443,0.061
0.018592553643004054,0.062
0.01871585456628471,0.063
0.01882633933998897,0.064
0.01892414176865336,0.065
0.01900944253104415,0.066
0.019082458207309007,0.067
0.019143425593910947,0.068
0.019192586108530772,0.069
0.019230179611548853,0.07
0.01925645193693916,0.071
0.019271669058847418,0.072
0.01927612887218307,0.073
0.019270167370209344,0.074
0.019254159148097735,0.075
0.0192285128701337,0.076
0.019193663067023307,0.077
0.019150060167943822,0.078
0.01909816073254892,0.079
0.019038419366230068,0.08
0.018971282978664256,0.081
0.018897187158858506,0.082
0.01881655381612065,0.083
0.018729789705502316,0.084
0.018637286995516252,0.085
0.018539427099472892,0.086
0.018436586795756806,0.087
0.01832914414301479,0.088
0.018217481968684595,0.089
0.01810198767268787,0.09
0.017983049437906323,0.091
0.01786105029453614,0.092
0.01773636227552229,0.093
0.01760934262960488,0.094
0.017480332489114146,0.095
0.01734965724476722,0.096
0.01721762818950069,0.097
0.01708454499818935,0.098
0.016950698110287148,0.099
0.016816370290589227,0.1
0.016681837157094776,0.101
0.01654736668932325,0.102
0.016413217759326703,0.103
0.016279638017730226,0.104
0.016146862270425257,0.105
0.016015112516411852,0.106
0.015884599261130616,0.107
0.015755522627386973,0.108
0.015628072594223837,0.109
0.015502428911946232,0.11
0.015378761529561599,0.111
0.01525723190606764,0.112
0.01513799491016445,0.113
0.015021200570651,0.114
0.014906994916869181,0.115
0.014795519483324132,0.116
0.014686909540310721,0.117
0.014581291552305305,0.118
0.0144787808438633,0.119
0.014379480750032843,0.12
0.014283483733087845,0.121
0.014190873596883223,0.122
0.014101727682395947,0.123
0.014016118456303746,0.124
0.013934114176823468,0.125
0.013855778526872937,0.126
0.013781169438699257,0.127
0.013710337574777121,0.128
0.013643324934192066,0.129
0.013580163844332303,0.13
0.013520876319361433,0.131
0.013465473579504554,0.132
0.013413955500707633,0.133
0.013366310003091032,0.134
0.013322512810292206,0.135
0.013282527977399625,0.136
0.01324630900810479,0.137
0.01321380013898319,0.138
0.013184937584656994,0.139
0.013159650643406804,0.14
0.013137862485463558,0.141
0.013119490354793416,0.142
0.013104444891262978,0.143
0.013092628597830327,0.144
0.013083934399527935,0.145
0.01307824572880246,0.146
0.013075438276945118,0.147
0.013075381861695497,0.148
0.013077940877886324,0.149
0.013082972996571707,0.15
0.013090327247428491,0.151
0.013099843646111813,0.152
0.013111355401430238,0.153
0.013124692459999837,0.154
0.013139684786905075,0.155
0.013156164910090641,0.156
0.013173969860920261,0.157
0.013192942602620964,0.158
0.013212932709277612,0.159
0.013233795580436272,0.16
0.013255389199734683,0.161
0.013277569175244586,0.162
0.013300186641305615,0.163
0.013323093040632887,0.164
0.013346149505536689,0.165
0.013369235611397285,0.166
0.013392254692441772,0.167
0.013415135169906597,0.168
0.013437828205041963,0.169
0.013460302383585272,0.17
0.013482536206389862,0.171
0.013504509799492399,0.172
0.013526198981393968,0.173
0.013547574646211306,0.174
0.013568606412244734,0.175
0.01358926644276205,0.176
0.013609530693418788,0.177
0.013629377436842336,0.178
0.013648784193239822,0.179
0.013667724559090039,0.18
0.013686166257127333,0.181
0.013704071100681644,0.182
0.013721396743158103,0.183
0.0137380993747557,0.184
0.013754136126927706,0.185
0.013769465906490596,0.186
0.01378404768986604,0.187
0.013797836758019771,0.188
0.01381078210652776,0.189
0.013822828453249978,0.19
0.013833922058395532,0.191
0.013844016439055681,0.192
0.01385307500003393,0.193
0.013861069508575938,0.194
0.013867974858703955,0.195
0.013873763180626268,0.196
0.013878402273714825,0.197
0.013881860022779895,0.198
0.013884110931897575,0.199
0.01388514051969411,0.2
0.0138849464723537,0.201
0.01388353717869473,0.202
0.013880928527751996,0.203
0.013877139721601836,0.204
0.01387218858094106,0.205
0.01386608697560903,0.206
0.013858837923275696,0.207
0.01385043602794725,0.208
0.013840871131440132,0.209
0.013830133509743102,0.21
0.013818219254672404,0.211
0.013805135177216897,0.212
0.013790902641478947,0.213
0.013775559638951797,0.214
0.013759160491594154,0.215
0.013741772865560994,0.216
0.013723472234285237,0.217
0.013704334861070436,0.218
0.01368443210017681,0.219
0.013663829204361795,0.22
0.013642588646862625,0.221
0.013620774688732427,0.222
0.013598456465334492,0.223
0.013575708953775653,0.224
0.01355261204804552,0.225
0.013529248100760559,0.226
0.013505698381895526,0.227
0.013482038999514832,0.228
0.013458337211107374,0.229
0.013434649438062142,0.23
0.01341102125723606,0.231
0.013387487862650755,0.232
0.013364073789607071,0.233
0.013340792698401847,0.234
0.013317648584214848,0.235
0.013294638332642073,0.236
0.013271754382851246,0.237
0.013248986444835461,0.238
0.013226321767705903,0.239
0.013203743811336745,0.24
0.013181229719839586,0.241
0.013158748103015858,0.242
0.013136259151883153,0.243
0.013113717540698754,0.244
0.013091076568618399,0.245
0.013068291950936752,0.246
0.01304532468643745,0.247
0.013022142997486549,0.248
0.012998723463728478,0.249
0.0129750512572466,0.25
0.012951118887937664,0.251
0.012926922528287489,0.252
0.012902456665403218,0.253
0.012877711521991918,0.254
0.012852676969635051,0.255
0.012827350400780632,0.256
0.01280174325891435,0.257
0.01277588353573057,0.258
0.01274981399704083,0.259
0.012723586955639807,0.26
0.012697257125593985,0.261
0.01267087505084861,0.262
0.012644484049003727,0.263
0.0126181212056083,0.264
0.01259181957328674,0.265
0.01256560877163308,0.266
0.012539513445601346,0.267
0.012513550913758213,0.268
0.012487730489662972,0.269
0.012462055560257592,0.27
0.012436526356209255,0.271
0.012411140630173961,0.272
0.012385891795987697,0.273
0.012360767182185456,0.274
0.012335749699983882,0.275
0.012310822993954747,0.276
0.012285977242044261,0.277
0.012261213271388051,0.278
0.012236544180297796,0.279
0.012211994322006857,0.28
0.012187595763041665,0.281
0.012163382740449816,0.282
0.01213938600592178,0.283
0.012115630411014803,0.284
0.012092137071303317,0.285
0.012068927282140986,0.286
0.012046024827543847,0.287
0.012023455787550291,0.288
0.012001246496115748,0.289
0.011979420760312465,0.29
0.011957997522395783,0.291
0.011936989806808858,0.292
0.011916405198358878,0.293
0.011896247489282157,0.294
0.011876518723107387,0.295
0.011857220758191164,0.296
0.011838355669974545,0.297
0.011819924716631522,0.298
0.01180192604789249,0.299
0.011784351802340767,0.3
0.011767185786076592,0.301
0.01175040297603163,0.302
0.011733971031855616,0.303
0.011717852962965621,0.304
0.011702010267538527,0.305
0.011686406390000561,0.306
0.01167101035242891,0.307
0.011655800169528392,0.308
0.011640765426421982,0.309
0.011625908242786873,0.31
0.011611241896325359,0.311
0.011596786729078363,0.312
0.011582564272821283,0.313
0.011568592946494842,0.314
0.011554888805728409,0.315
0.01154147078447767,0.316
0.011528366710264417,0.317
0.011515617372265424,0.318
0.01150327796195483,0.319
0.011491417084614765,0.32
0.011480113845778728,0.321
0.01146945368459003,0.322
0.011459523653705374,0.323
0.011450407752262765,0.324
0.011442183099913529,0.325
0.011434918174980368,0.326
0.011428673624449357,0.327
0.011423504567094019,0.328
0.011419463098770918,0.329
0.011416600511941507,0.33
0.0114149689661411,0.331
0.011414622227869929,0.332
0.011415615167174376,0.333
0.011418001940895766,0.334
0.011421833111212159,0.335
0.011427152524412206,0.336
0.011433995407371033,0.337
0.011442388400169623,0.338
0.011452350434879717,0.339
0.011463892961809408,0.34
0.011477019231511119,0.341
0.011491723646736203,0.342
0.01150799254651138,0.343
0.011525806714738115,0.344
0.011545144671131805,0.345
0.011565985651817951,0.346
0.011588311495353379,0.347
0.011612106779562292,0.348
0.011637356742384593,0.349
0.011664043622337687,0.35
0.011692144131364114,0.351
0.01172163072037597,0.352
0.011752475917826619,0.353
0.011784656811436117,0.354
0.011818157784561308,0.355
0.011852971150490983,0.356
0.01188909594606799,0.357
0.011926535343004186,0.358
0.011965293171202436,0.359
0.012005369987355938,0.36
0.01204675943110815,0.361
0.012089446268234168,0.362
0.01213340680391644,0.363
0.012178610318797948,0.364
0.01222501960289378,0.365
0.012272590059539769,0.366
0.012321268681961269,0.367
0.012370994772635143,0.368
0.012421702454852333,0.369
0.012473322825229064,0.37
0.012525783726528947,0.371
0.012579008029677392,0.372
0.012632914623841132,0.373
0.012687424845874614,0.374
0.012742471580749093,0.375
0.012798006021030716,0.376
0.012853999007644371,0.377
0.01291043614953997,0.378
0.012967308928726658,0.379
0.013024607846617815,0.38
0.013082322508461372,0.381
0.01314044645038165,0.382
0.01319898091713904,0.383
0.013257934789889533,0.384
0.013317321132870258,0.385
0.013377151844829833,0.386
0.013437432601545965,0.387
0.013498160740005191,0.388
0.013559326777981068,0.389
0.013620917227505401,0.39
0.013682916140224061,0.391
0.013745304577015683,0.392
0.013808058221910214,0.393
0.013871144277694756,0.394
0.013934519993031138,0.395
0.013998134290968764,0.396
0.014061931274988978,0.397
0.014125853596991571,0.398
0.014189844751364734,0.399
0.014253849944458706,0.4
0.014317815319201036,0.401
0.014381685561606683,0.402
0.01444540026431658,0.403
0.01450889029028985,0.404
0.014572076319187712,0.405
0.014634870587284044,0.406
0.014697180267586657,0.407
0.014758910465318619,0.408
0.014819966045167766,0.409
0.014880252151493314,0.41
0.014939673391625144,0.411
0.014998131783912372,0.412
0.015055523718544826,0.413
0.015111736588285253,0.414
0.015166646472825385,0.415
0.015220118075841085,0.416
0.015272006545776207,0.417
0.015322159860773343,0.418
0.015370421050515027,0.419
0.01541663024992779,0.42
0.0154606266686753,0.421
0.015502250328284641,0.422
0.01554134308070181,0.423
0.015577748085748558,0.424
0.015611306911067298,0.425
0.01564185544364725,0.426
0.015669223530490363,0.427
0.01569324225230791,0.428
0.01571375632570567,0.429
0.015730636062355356,0.43
0.015743784976740074,0.431
0.015753140725475987,0.432
0.01575866824314159,0.433
0.015760347157863605,0.434
0.015758161262623707,0.435
0.01575209857599578,0.436
0.01574216132558759,0.437
0.015728377228631903,0.438
0.01571080565357988,0.439
0.015689537662611656,0.44
0.015664691284959068,0.441
0.015636403824825694,0.442
0.015604822924090548,0.443
0.015570097685175987,0.444
0.015532371192999161,0.445
0.015491776410923214,0.446
0.015448436403399745,0.447
0.015402467098690656,0.448
0.015353980078193169,0.449
0.015303084451696055,0.45
0.015249888001442943,0.451
0.01519449797834867,0.452
0.01513702186837561,0.453
0.015077568263772576,0.454
0.01501624773949995,0.455
0.014953173434130914,0.456
0.014888460922824259,0.457
0.014822226961858276,0.458
0.014754586782178166,0.459
0.014685650249301544,0.46
0.014615518771560452,0.461
0.014544285375406843,0.462
0.014472037869411565,0.463
0.014398862303374208,0.464
0.014324844223058793,0.465
0.014250066962994745,0.466
0.014174608027408782,0.467
0.014098536649151153,0.468
0.014021915027394461,0.469
0.013944801869183447,0.47
0.013867254836637597,0.471
0.01378933004662272,0.472
0.01371107906355258,0.473
0.013632545803641816,0.474
0.013553766140289409,0.475
0.013474770437313757,0.476
0.013395586745292912,0.477
0.013316242895333253,0.478
0.013236767351062108,0.479
0.013157189332822587,0.48
0.013077538692296947,0.481
0.012997845760067678,0.482
0.012918141045318356,0.483
0.01283845444835138,0.484
0.01275881369859945,0.485
0.012679241994653048,0.486
0.012599755282170817,0.487
0.012520360294592865,0.488
0.012441054603031841,0.489
0.012361828766055263,0.49
0.012282669518494257,0.491
0.012203563019280819,0.492
0.012124497689178814,0.493
0.012045466359875058,0.494
0.011966467576835433,0.495
0.011887506087800185,0.496
0.011808592681933912,0.497
0.011729743545891387,0.498
0.011650979175824897,0.499
0.011572322676813062,0.5
0.011493797067988113,0.501
0.011415421874075892,0.502
0.011337211324660965,0.503
0.011259176810399911,0.504
0.011181332958979662,0.505
0.011103704010036311,0.506
0.011026327798443035,0.507
0.010949256334160405,0.508
0.010872553126703245,0.509
0.010796288146520245,0.51
0.01072053184778493,0.511
0.010645350376961083,0.512
0.010570804159926533,0.513
0.010496950044943977,0.514
0.010423844847624392,0.515
0.01035154817821137,0.516
0.010280123619358266,0.517
0.0102096378766718,0.518
0.010140157866279637,0.519
0.010071746861385776,0.52
0.010004462370573768,0.521
0.00993835733746502,0.522
0.009873482899443481,0.523
0.009809890102752563,0.524
0.009747629724947662,0.525
0.00968675052672599,0.526
0.009627296711341257,0.527
0.00956930584000676,0.528
0.009512808225597158,0.529
0.009457827549134191,0.53
0.009404381566599151,0.531
0.009352482246249657,0.532
0.009302135437104507,0.533
0.009253340401298365,0.534
0.009206089496446739,0.535
0.009160368206916703,0.536
0.009116155622627258,0.537
0.009073425361707355,0.538
0.009032146828815531,0.539
0.00899228658993109,0.54
0.008953809532410824,0.541
0.008916679395105551,0.542
0.00888085824780647,0.543
0.008846304904907187,0.544
0.008812973469209994,0.545
0.00878081398604925,0.546
0.008749775744825848,0.547
0.008719811602916667,0.548
0.008690881410431959,0.549
0.008662953544195854,0.55
0.008636004263676337,0.551
0.008610015098004896,0.552
0.008584968893722164,0.553
0.008560845737987,0.554
0.008537620643115348,0.555
0.008515264041142966,0.556
0.00849374404078915,0.557
0.00847302887438431,0.558
0.008453089011383851,0.559
0.008433898988268818,0.56
0.008415438910815478,0.561
0.008397695386645474,0.562
0.00838066150552319,0.563
0.008364335499452381,0.564
0.008348717926731471,0.565
0.008333808040817011,0.566
0.008319601365888293,0.567
0.008306090215435595,0.568
0.008293266345976524,0.569
0.008281123483373875,0.57
0.008269658373241562,0.571
0.008258870155813593,0.572
0.008248758334848817,0.573
0.008239319976679512,0.574
0.008230547323499267,0.575
0.008222426968010422,0.576
0.008214940424826624,0.577
0.008208064757629372,0.578
0.008201772297509981,0.579
0.00819602964558296,0.58
0.008190796975825101,0.581
0.008186028408873473,0.582
0.008181673110156799,0.583
0.008177676290355604,0.584
0.008173979764205917,0.585
0.008170522146163218,0.586
0.008167238811941271,0.587
0.008164061614986217,0.588
0.008160918136276708,0.589
0.008157730601786463,0.59
0.008154415763130031,0.591
0.008150887042483878,0.592
0.008147058359338497,0.593
0.008142847810882578,0.594
0.008138179609404755,0.595
0.00813298315591841,0.596
0.008127189676975665,0.597
0.008120729943814079,0.598
0.008113536774725719,0.599
0.00810555132409271,0.6
0.008096728822338665,0.601
0.008087040693144755,0.602
0.008076472292688265,0.603
0.008065017175407292,0.604
0.008052671010850767,0.605
0.008039429647964055,0.606
0.008025292684370747,0.607
0.008010269041252058,0.608
0.007994380723629095,0.609
0.007977663609646123,0.61
0.007960165564351083,0.611
0.007941942585483731,0.612
0.007923053931107192,0.613
0.007903557438990917,0.614
0.007883506528185032,0.615
0.007862949625432812,0.616
0.007841931057889594,0.617
0.007820491878182753,0.618
0.007798669947973375,0.619
0.007776499322240329,0.62
0.00775400915712275,0.621
0.007731222540393368,0.622
0.007708155766365797,0.623
0.007684818175333343,0.624
0.007661212289246163,0.625
0.0076373343317114855,0.626
0.007613175401892244,0.627
0.007588723059251192,0.628
0.007563962832491483,0.629
0.007538879431499405,0.63
0.007513457703576482,0.631
0.007487683486896661,0.632
0.007461544500013264,0.633
0.007435031277730398,0.634
0.007408137971964991,0.635
0.007380862650753462,0.636
0.007353206634745599,0.637
0.007325172494959318,0.638
0.00729676122167967,0.639
0.007267970694988287,0.64
0.007238797216464327,0.641
0.007209239050947689,0.642
0.007179299685410892,0.643
0.0071489897347252265,0.644
0.007118327526662787,0.645
0.00708733866168842,0.646
0.007056054791004712,0.647
0.007024511744976398,0.648
0.006992747137076631,0.649
0.006960797682617107,0.65
0.006928696686762713,0.651
0.006896472326788485,0.652
0.006864146984459608,0.653
0.006831737149069111,0.654
0.006799253430896694,0.655
0.006766700860650547,0.656
0.006734079590100732,0.657
0.006701385494259436,0.658
0.006668610143748353,0.659
0.006635740436048184,0.66
0.006602759013387969,0.661
0.006569646188010591,0.662
0.006536382814410793,0.663
0.0065029530928816985,0.664
0.006469346692670948,0.665
0.006435559896767608,0.666
0.00640159561631192,0.667
0.006367462268582295,0.668
0.006333171641850314,0.669
0.006298736034826962,0.67
0.006264165539152844,0.671
0.006229467008578548,0.672
0.0061946453810576155,0.673
0.006159706114115713,0.674
0.006124657156255331,0.675
0.006089509838599671,0.676
0.006054278620554848,0.677
0.006018979786794203,0.678
0.005983629348940303,0.679
0.005948240778722242,0.68
0.005912823708956381,0.681
0.005877384218442411,0.682
0.005841925897621664,0.683
0.005806450539767022,0.684
0.0057709580884529104,0.685
0.005735445996326141,0.686
0.005699908291229621,0.687
0.005664334906241614,0.688
0.005628712006819666,0.689
0.00559302356870379,0.69
0.005557253685252008,0.691
0.005521388823300049,0.692
0.005485419383798171,0.693
0.005449340083891377,0.694
0.005413148920431707,0.695
0.005376844925637376,0.696
0.0053404258046404465,0.697
0.005303887231189295,0.698
0.005267224498803715,0.699
0.005230435280883451,0.7
0.005193521995986132,0.701
0.005156493226244815,0.702
0.005119364121040639,0.703
0.0050821558030189696,0.704
0.0050448938702172055,0.705
0.005007606162341967,0.706
0.004970320231975258,0.707
0.004933061538924267,0.708
0.004895853359380003,0.709
0.004858718182069352,0.71
0.004821679399066401,0.711
0.004784762429299989,0.712
0.004747995077895796,0.713
0.0047114071892046284,0.714
0.004675029706038739,0.715
0.00463889328326863,0.716
0.00460302675251696,0.717
0.004567456058359379,0.718
0.004532204235621744,0.719
0.004497292255025357,0.72
0.004462739997432011,0.721
0.0044285667793900274,0.722
0.004394791184176066,0.723
0.00436143026935913,0.724
0.004328498867649997,0.725
0.004296010041981157,0.726
0.004263976917792311,0.727
0.004232415003991009,0.728
0.004201343960628572,0.729
0.004170788151427856,0.73
0.004140775618713729,0.731
0.004111335840697567,0.732
0.00408249790062199,0.733
0.0040542906414663005,0.734
0.00402674429549923,0.735
0.003999891773730565,0.736
0.003973768663699959,0.737
0.0039484121606714615,0.738
0.003923859526933788,0.739
0.0039001465873606364,0.74
0.0038773065689951583,0.741
0.0038553694135276496,0.742
0.003834361577685538,0.743
0.0038143062646877374,0.744
0.0037952239729809197,0.745
0.003777133204461294,0.746
0.0037600511535706427,0.747
0.0037439942018857044,0.748
0.003728978062304052,0.749
0.003715017457820101,0.75
0.0037021254094672137,0.751
0.0036903126063381926,0.752
0.003679587395308476,0.753
0.0036699562715094432,0.754
0.003661424199859217,0.755
0.0036539943588742353,0.756
0.0036476674810469274,0.757
0.0036424412600638357,0.758
0.0036383102090045537,0.759
0.0036352661192856736,0.76
0.003633299057397611,0.761
0.0036323985981233883,0.762
0.0036325548539971287,0.763
0.0036337589502416835,0.764
0.003636002789203841,0.765
0.0036392781384103653,0.766
0.0036435753943010827,0.767
0.0036488827889493516,0.768
0.003655186573811557,0.769
0.0036624717823644302,0.77
0.0036707227799041018,0.771
0.003679923213000197,0.772
0.0036900553886935576,0.773
0.003701099476610565,0.774
0.0037130332607245124,0.775
0.0037258328359422795,0.776
0.0037394738587476677,0.777
0.003753932769537639,0.778
0.0037691877015253025,0.779
0.0037852188881794847,0.78
0.003802008320400839,0.781
0.0038195385722922612,0.782
0.0038377914980517866,0.783
0.0038567482357712325,0.784
0.0038763910654332104,0.785
0.0038967059242110695,0.786
0.003917684071255757,0.787
0.003939322272636941,0.788
0.003961621556421794,0.789
0.0039845849444785225,0.79
0.004008214965455922,0.791
0.004032512063877867,0.792
0.0040574743680332455,0.793
0.004083098005028914,0.794
0.004109376976951599,0.795
0.004136302586568414,0.796
0.004163863160325663,0.797
0.004192044547382624,0.798
0.00422083104044901,0.799
0.0042502061315927335,0.8
0.004280152855639087,0.801
0.004310653656886088,0.802
0.004341689719806303,0.803
0.004373239994096944,0.804
0.004405280800095157,0.805
0.004437786813466805,0.806
0.004470733109571914,0.807
0.0045040973712289385,0.808
0.004537861723427837,0.809
0.004572013990647535,0.81
0.004606548238095191,0.811
0.004641464455447616,0.812
0.004676767273209879,0.813
0.004712463743228866,0.814
0.004748560718358453,0.815
0.004785063123222999,0.816
0.004821974067703682,0.817
0.004859296167888457,0.818
0.004897032769397822,0.819
0.0049351885379040296,0.82
0.004973769589752785,0.821
0.005012783458149143,0.822
0.005052239047707915,0.823
0.005092146513570664,0.824
0.005132516848532617,0.825
0.0051733609739106805,0.826
0.005214688323831013,0.827
0.005256505347696525,0.828
0.0052988147289095115,0.829
0.0053416156081854465,0.83
0.005384904127183349,0.831
0.0054286735549903,0.832
0.0054729138763147285,0.833
0.0055176110929499745,0.834
0.005562746645652321,0.835
0.005608297246950977,0.836
0.005654234952409244,0.837
0.0057005271247573645,0.838
0.005747136423928059,0.839
0.005794021336037684,0.84
0.005841137401025372,0.841
0.005888438747220168,0.842
0.005935879388253337,0.843
0.005983413822290871,0.844
0.006030996586108619,0.845
0.006078580826880556,0.846
0.006126116919450809,0.847
0.006173552632175664,0.848
0.006220835088982861,0.849
0.0062679131872595524,0.85
0.006314739123498115,0.851
0.006361268526220269,0.852
0.006407459207100531,0.853
0.006453268837902851,0.854
0.00649865248629335,0.855
0.006543561555122997,0.856
0.006587944774782643,0.857
0.00663175009208658,0.858
0.006674926029140247,0.859
0.006717422031093372,0.86
0.00675918783313233,0.861
0.006800171987770714,0.862
0.006840319965397785,0.863
0.006879572712111495,0.864
0.006917866401710191,0.865
0.006955132998844971,0.866
0.006991300493202938,0.867
0.007026292396795723,0.868
0.007060027605317748,0.869
0.0070924219751258505,0.87
0.007123391435847101,0.871
0.007152855229442371,0.872
0.007180737910892609,0.873
0.007206969146331262,0.874
0.007231481201455396,0.875
0.007254206119762321,0.876
0.007275076017282711,0.877
0.0072940275333854354,0.878
0.007311007755077284,0.879
0.007325978583481945,0.88
0.007338918370931508,0.881
0.007349820787152476,0.882
0.007358691274560289,0.883
0.007365541686307413,0.884
0.007370384701841549,0.885
0.007373231301795502,0.886
0.007374093262345145,0.887
0.007372988521704158,0.888
0.007369946098765315,0.889
0.007365009020802173,0.89
0.0073582347558374004,0.891
0.007349692973153759,0.892
0.007339460954311193,0.893
0.007327618041350222,0.894
0.007314241912881563,0.895
0.007299408606056384,0.896
0.007283194892386764,0.897
0.0072656802453075885,0.898
0.0072469471812382814,0.899
0.007227080186174861,0.9
0.007206163791721312,0.901
0.007184280318963676,0.902
0.0071615078202944575,0.903
0.007137918928353346,0.904
0.00711358101200132,0.905
0.007088557154654347,0.906
0.00706290712449418,0.907
0.007036687890318381,0.908
0.007009953577760205,0.909
0.006982754892992252,0.91
0.006955138162198045,0.911
0.006927144393401944,0.912
0.006898809010171356,0.913
0.006870162547433517,0.914
0.006841231868460531,0.915
0.006812041296744976,0.916
0.006782613352424018,0.917
0.006752968949848724,0.918
0.006723126977841504,0.919
0.0066931032803488975,0.92
0.006662909372251252,0.921
0.006632551723713998,0.922
0.006602032182973254,0.923
0.006571349034394921,0.924
0.0065404977829678105,0.925
0.006509471237682394,0.926
0.006478258875499868,0.927
0.006446845826235827,0.928
0.006415212326046484,0.929
0.0063833342616943685,0.93
0.006351184354564054,0.931
0.006318733013782906,0.932
0.0062859482225413495,0.933
0.006252794648468454,0.934
0.006219233460320692,0.935
0.006185224370303116,0.936
0.006150729529390747,0.937
0.006115717601843841,0.938
0.006080166533896678,0.939
0.006044063946115098,0.94
0.006007404533680114,0.941
0.005970185645478006,0.942
0.005932404935520487,0.943
0.005894062841469154,0.944
0.005855167628694201,0.945
0.005815739073724899,0.946
0.0057758092615538765,0.947
0.0057354207948778005,0.948
0.0056946232584990765,0.949
0.005653468933820774,0.95
0.005612008943884988,0.951
0.0055702912397644555,0.952
0.005528360853359851,0.953
0.005486261146476951,0.954
0.0054440347042586466,0.955
0.005401723571230454,0.956
0.005359368981850272,0.957
0.0053170107479831915,0.958
0.005274686498985593,0.959
0.005232430989841477,0.96
0.0051902756477550435,0.961
0.005148248408120975,0.962
0.005106373750828892,0.963
0.005064672762509468,0.964
0.005023163054698634,0.965
0.004981858466138374,0.966
0.004940768700221443,0.967
0.004899899233342871,0.968
0.004859251602011596,0.969
0.004818823721284111,0.97
0.0047786098950902585,0.971
0.004738600745936968,0.972
0.0046987837061123775,0.973
0.0046591443563901306,0.974
0.004619668205859858,0.975
0.004580342286809388,0.976
0.004541156109169726,0.977
0.00450210167788157,0.978
0.004463172409650645,0.979
0.004424361342868264,0.98
0.004385660101189604,0.981
0.004347059972418922,0.982
0.0043085546119242995,0.983
0.004270142720948819,0.984
0.004231829573545554,0.985
0.004193627035361716,0.986
0.0041555521399297725,0.987
0.004117624583710851,0.988
0.004079863978003841,0.989
0.0040422882497533,0.99
0.004004913952317728,0.991
0.003967757649070487,0.992
0.003930837138583089,0.993
0.0038941720804269385,0.994
0.003857784030902288,0.995
0.0038216959190229827,0.996
0.003785930997040678,0.997
0.0037505115059712525,0.998
0.0037154577697535757,0.999
0.003680788405612498,1.0
0.003646521402035917,1.001
0.00361267512812628,1.002
0.0035792686128108156,1.003
0.0035463209623169747,1.004
0.003513850246404812,1.005
0.0034818726997255848,1.006
0.003450402960103356,1.007
0.003419455087586678,1.008
0.003389043529316727,1.009
0.0033591835128625553,1.01
0.0033298907738643895,1.011
0.0033011806980385323,1.012
0.0032730672261092773,1.013
0.0032455622619904636,1.014
0.003218676033850704,1.015
0.0031924179355812643,1.016
0.0031667971134834287,1.017
0.0031418225240744885,1.018
0.003117502515076975,1.019
0.0030938441013881515,1.02
0.0030708522698732715,1.021
0.003048529728616476,1.022
0.003026877213576016,1.023
0.003005894048755497,1.024
0.0029855786700228436,1.025
0.0029659290658493537,1.026
0.0029469431461813292,1.027
0.0029286189671339207,1.028
0.0029109546565769715,1.029
0.0028939478925489406,1.03
0.0028775951418242253,1.031
0.002861891417990449,1.032
0.0028468310211444206,1.033
0.00283240864610837,1.034
0.0028186199127926853,1.035
0.0028054609235700577,1.036
0.002792927167648876,1.037
0.0027810126524189034,1.038
0.0027697096984405727,1.039
0.0027590090059745045,1.04
0.0027489000796842833,1.041
0.002739372481190124,1.042
0.002730417323051307,1.043
0.0027220278471461763,1.044
0.002714198678516697,1.045
0.002706924467334563,1.046
0.002700199313852795,1.047
0.002694017576273076,1.048
0.0026883751372171875,1.049
0.0026832700265812972,1.05
0.002678702148123146,1.051
0.0026746723484591638,1.052
0.0026711811833374914,1.053
0.002668227820764714,1.054
0.0026658094569254,1.055
0.002663921190192396,1.056
0.002662555987516811,1.057
0.0026617047301997457,1.058
0.002661356602961286,1.059
0.002661499741399126,1.06
0.002662121771006197,1.061
0.0026632099704322304,1.062
0.0026647509485842355,1.063
0.0026667300469633724,1.064
0.0026691311742301485,1.065
0.00267193760088569,1.066
0.002675133352244527,1.067
0.00267870447094421,1.068
0.002682639726749002,1.069
0.0026869306122803034,1.07
0.0026915706099282077,1.071
0.002696553892137011,1.072
0.0027018739456668036,1.073
0.002707522911715275,1.074
0.002713491961828002,1.075
0.002719772114402343,1.076
0.0027263548075718643,1.077
0.0027332320779281938,1.078
0.002740396458739782,1.079
0.0027478407229240462,1.08
0.0027555575764171615,1.081
0.0027635393781895263,1.082
0.0027717779366555105,1.083
0.002780264408580759,1.084
0.002788989298755048,1.085
0.0027979425234574717,1.086
0.0028071134659863554,1.087
0.0028164909320660034,1.088
0.0028260629161900503,1.089
0.00283581613890405,1.09
0.0028457355234684308,1.091
0.0028558040522244864,1.092
0.0028660032686651966,1.093
0.002876314164310607,1.094
0.0028867180597671512,1.095
0.0028971973374716923,1.096
0.002907736026305559,1.097
0.002918320248290265,1.098
0.0029289385166058743,1.099
0.002939581832150368,1.1
0.0029502434855210678,1.101
0.002960918461735651,1.102
0.0029716023848376434,1.103
0.0029822902422465434,1.104
0.002992975684568469,1.105
0.0030036515442462565,1.106
0.0030143111859190215,1.107
0.0030249498217261436,1.108
0.0030355653279363804,1.109
0.003046158479437931,1.11
0.0030567326409835266,1.111
0.0030672929995323554,1.112
0.0030778454368768767,1.113
0.0030883952453456412,1.114
0.003098946172257856,1.115
0.0031095003056441114,1.116
0.0031200587032684936,1.117
0.003130622106280782,1.118
0.0031411912148681127,1.119
0.00315176640251214,1.12
0.003162346993185243,1.121
0.0031729304925249735,1.122
0.003183512345065385,1.123
0.0031940864108107037,1.124
0.0032046457383449654,1.125
0.003215183146062092,1.126
0.0032256914292648074,1.127
0.0032361631675863764,1.128
0.0032465901446315604,1.129
0.003256962556161571,1.13
0.0032672685135025008,1.131
0.0032774943167130414,1.132
0.0032876253612863352,1.133
0.0032976471332330608,1.134
0.003307545894420135,1.135
0.0033173088916443536,1.136
0.0033269240300081216,1.137
0.003336379035614599,1.138
0.0033456603655779124,1.139
0.00335475249835374,1.14
0.0033636381081535555,1.141
0.0033722988544360667,1.142
0.0033807161168426386,1.143
0.0033888712970607444,1.144
0.0033967456326662055,1.145
0.0034043195820339677,1.146
0.0034115719821232976,1.147
0.0034184794582987196,1.148
0.003425016557897139,1.149
0.0034311565373571066,1.15
0.0034368723060211564,1.151
0.003442137134161936,1.152
0.0034469249577829906,1.153
0.0034512101837603617,1.154
0.0034549669233635686,1.155
0.0034581679498840727,1.156
0.0034607843930109,1.157
0.0034627869809346202,1.158
0.003464148355659959,1.159
0.0034648453961862104,1.16
0.0034648608436463747,1.161
0.0034641838084821953,1.162
0.0034628088999689166,1.163
0.0034607340629623437,1.164
0.0034579581116972354,1.165
0.0034544798803796393,1.166
0.0034502998794332996,1.167
0.0034454230606786396,1.168
0.0034398608681447803,1.169
0.003433631913476184,1.17
0.003426761344984442,1.171
0.0034192792051307317,1.172
0.0034112181870910186,1.173
0.0034026113185423967,1.174
0.0033934903202611495,1.175
0.0033838852223332214,1.176
0.003373824985346802,1.177
0.003363338303764349,1.178
0.0033524540670620464,1.179
0.003341201424769322,1.18
0.0033296095485543047,1.181
0.0033177071864022418,1.182
0.003305522102315994,1.183
0.0032930804915927005,1.184
0.0032804064490213067,1.185
0.0032675215422792573,1.186
0.0032544445186207496,1.187
0.0032411911710193476,1.188
0.0032277744133012098,1.189
0.0032142046288246694,1.19
0.0032004903150859285,1.191
0.0031866389349954273,1.192
0.0031726577545299977,1.193
0.0031585543751119307,1.194
0.0031443367070543866,1.195
0.0031300123083694642,1.196
0.003115587482796325,1.197
0.003101067029525522,1.198
0.003086455117110374,1.199
0.0030717566863407504,1.2
0.0030569785148666906,1.201
0.0030421295501755607,1.202
0.0030272204460192196,1.203
0.0030122624059757013,1.204
0.0029972658373825763,1.205
0.0029822397726234225,1.206
0.0029671925390117398,1.207
0.002952133019534165,1.208
0.002937071615643412,1.209
0.002922020590289447,1.21
0.0029069937920648474,1.211
0.002892005824566239,1.212
0.0028770708975440276,1.213
0.0028622019733229188,1.214
0.00284741085588865,1.215
0.002832709147280082,1.216
0.0028181093583213583,1.217
0.002803625598478265,1.218
0.0027892736707102886,1.219
0.0027750706004358522,1.22
0.0027610337142595772,1.221
0.0027471795450879875,1.222
0.0027335230996264853,1.223
0.0027200779086347855,1.224
0.002706856646367792,1.225
0.0026938717402165287,1.226
0.002681135615712761,1.227
0.0026686605179849932,1.228
0.002656457973465303,1.229
0.0026445381017315343,1.23
0.0026329092044218324,1.231
0.0026215779368264714,1.232
0.002610549864115153,1.233
0.0025998299776801626,1.234
0.0025894229384441896,1.235
0.0025793329968350335,1.236
0.0025695636073484133,1.237
0.0025601168694019943,1.238
0.0025509931278094706,1.239
0.002542191049110076,1.24
0.0025337081071769903,1.241
0.002525541138754829,1.242
0.0025176867280968522,1.243
0.002510141341194817,1.244
0.0025029011788800996,1.245
0.0024959617390921266,1.246
0.0024893172192428756,1.247
0.0024829601407152565,1.248
0.002476881487060816,1.249
0.0024710711300019272,1.25
0.0024655180619317213,1.251
0.002460210216479632,1.252
0.0024551341307856534,1.253
0.0024502750120499236,1.254
0.0024456174625514747,1.255
0.0024411464953324343,1.256
0.0024368483440942034,1.257
0.0024327108419308166,1.258
0.0024287233231784643,1.259
0.002424876067038398,1.26
0.002421159385125957,1.261
0.002417562723068345,1.262
0.00241407442817677,1.263
0.0024106824751242116,1.264
0.0024073756888858934,1.265
0.0024041448621495653,1.266
0.002400983513159611,1.267
0.002397888218974333,1.268
0.002394858493506578,1.269
0.0023918962126382908,1.27
0.0023890046325246365,1.271
0.002386187168826991,1.272
0.002383446378024534,1.273
0.002380783675946701,1.274
0.0023781998131566897,1.275
0.0023756955328075088,1.276
0.0023732718990737466,1.277
0.002370930163480786,1.278
0.0023686712254446618,1.279
0.002366494907630213,1.28
0.0023643994952235086,1.281
0.0023623818173788263,1.282
0.0023604375829333383,1.283
0.002358561479001932,1.284
0.0023567469255408448,1.285
0.0023549859029555454,1.286
0.002353269351125245,1.287
0.0023515881269598506,1.288
0.002349934093366569,1.289
0.002348300988991106,1.29
0.0023466849224524308,1.291
0.002345084425877911,1.292
0.002343500057396077,1.293
0.002341933594783613,1.294
0.0023403869562081425,1.295
0.0023388612376269453,1.296
0.0023373564435470503,1.297
0.00233587207601625,1.298
0.0023344080979518663,1.299
0.0023329657526813363,1.3
0.002331548078140194,1.301
0.002330160124683862,1.302
0.002328808907393782,1.303
0.0023275031343213074,1.304
0.0023262527559420984,1.305
0.0023250683783829825,1.306
0.0023239605719874547,1.307
0.0023229391273732365,1.308
0.0023220124488904947,1.309
0.0023211873855270987,1.31
0.0023204695574497738,1.311
0.0023198638662664363,1.312
0.002319374875374133,1.313
0.0023190069656972233,1.314
0.002318764274558895,1.315
0.002318650447440042,1.316
0.002318668262977031,1.317
0.0023188192254984053,1.318
0.0023191032376490275,1.319
0.002319518450496772,1.32
0.0023200613381285573,1.321
0.002320726978254672,1.322
0.0023215094693561826,1.323
0.002322402392925098,1.324
0.0023233992281169362,1.325
0.0023244936312731353,1.326
0.002325679500501345,1.327
0.0023269507624193555,1.328
0.002328300853212919,1.329
0.002329722070388606,1.33
0.0023312053233260585,1.331
0.0023327406661277058,1.332
0.002334318328255671,1.333
0.0023359297100489294,1.334
0.0023375680628236906,1.335
0.0023392287510479405,1.336
0.0023409090640098625,1.337
0.0023426076216260705,1.338
0.0023443234758478405,1.339
0.0023460551158673844,1.34
0.002347799792930785,1.341
0.002349553538787993,1.342
0.00235131176041016,1.343
0.002353069926493743,1.344
0.0023548239809096975,1.345
0.0023565703662187976,1.346
0.0023583056754181183,1.347
0.0023600260329182275,1.348
0.002361726388456954,1.349
0.002363399973076237,1.35
0.002365038060522841,1.351
0.0023666299258306676,1.352
0.002368162889486513,1.353
0.0023696225665897166,1.354
0.0023709934138425766,1.355
0.002372259413992498,1.356
0.0023734046475741137,1.357
0.002374413573278886,1.358
0.0023752709104918053,1.359
0.0023759611015383526,1.36
0.00237646762168045,1.361
0.002376772811274508,1.362
0.002376858676932322,1.363
0.002376708300223648,1.364
0.002376307198519082,1.365
0.0023756442608868296,1.366
0.002374712080365871,1.367
0.0023735065919874006,1.368
0.002372026036483513,1.369
0.0023702694986224553,1.37
0.002368235710164722,1.371
0.0023659229079460928,1.372
0.0023633297503960296,1.373
0.002360456495189404,1.374
0.0023573057667173915,1.375
0.002353882743906528,1.376
0.002350194826445156,1.377
0.0023462508960490737,1.378
0.0023420603283704953,1.379
0.00233763195282312,1.38
0.0023329732353473665,1.381
0.002328089940500391,1.382
0.0023229862328332657,1.383
0.0023176648832972913,1.384
0.002312127315537066,1.385
0.0023063734475991093,1.386
0.0023004014478117093,1.387
0.0022942076672567667,1.388
0.0022877869199632236,1.389
0.0022811329624505307,1.39
0.0022742389038676245,1.391
0.002267097387623377,1.392
0.002259700467441222,1.393
0.0022520392226933125,1.394
0.0022441034614339517,1.395
0.0022358820077636216,1.396
0.0022273636886823217,1.397
0.002218538651511258,1.398
0.0022093995735858025,1.399
0.0021999424682111446,1.4
0.002190166884661167,1.401
0.0021800753979965342,1.402
0.002169672422121826,1.403
0.0021589627361510593,1.404
0.002147950647475045,1.405
0.0021366404517701347,1.406
0.0021250377363794706,1.407
0.0021131506393215205,1.408
0.002100990641585663,1.409
0.0020885728267701184,1.41
0.002075915614163021,1.411
0.0020630400057940826,1.412
0.002049968436157104,1.413
0.0020367234879728443,1.414
0.0020233270348281305,1.415
0.0020098002463720894,1.416
0.001996164203778507,1.417
0.0019824405060183637,1.418
0.001968651528367677,1.419
0.001954820321440876,1.42
0.001940970242876553,1.421
0.0019271244271665733,1.422
0.0019133052033034103,1.423
0.001899533615371388,1.424
0.0018858292257701377,1.425
0.0018722102115996335,1.426
0.0018586935376643436,1.427
0.0018452950046457463,1.428
0.001832029137473076,1.429
0.0018189090136295103,1.43
0.0018059462034655787,1.431
0.001793150892491846,1.432
0.001780532056770284,1.433
0.0017680975319360813,1.434
0.0017558539343637833,1.435
0.001743806537507956,1.436
0.0017319593110119668,1.437
0.001720315222896076,1.438
0.0017088766644462676,1.439
0.0016976457941129891,1.44
0.0016866246985222301,1.441
0.0016758153499130347,1.442
0.0016652193748108882,1.443
0.0016548376933448546,1.444
0.001644670211533375,1.445
0.0016347158401140915,1.446
0.001624972924197568,1.447
0.0016154398636152542,1.448
0.0016061156602855881,1.449
0.001597000265738019,1.45
0.001588094684329559,1.451
0.0015794008172636547,1.452
0.00157092105444231,1.453
0.0015626576824117702,1.454
0.0015546123620348024,1.455
0.0015467860528692399,1.456
0.0015391794728827786,1.457
0.0015317937550401598,1.458
0.0015246309411662507,1.459
0.0015176941890919688,1.46
0.0015109877016691944,1.461
0.0015045164211968775,1.462
0.0014982855450830833,1.463
0.0014922999515322307,1.464
0.001486563731121177,1.465
0.0014810800615577147,1.466
0.001475851432522071,1.467
0.0014708799515999894,1.468
0.0014661674818708427,1.469
0.0014617155322948728,1.47
0.0014575249693922455,1.471
0.001453595804098029,1.472
0.0014499273290905406,1.473
0.0014465185722513602,1.474
0.0014433687659628155,1.475
0.00144047758528042,1.476
0.00143784507362726,1.477
0.0014354712783783972,1.478
0.0014333557484160757,1.479
0.0014314972241156803,1.48
0.0014298937711124515,1.481
0.0014285432375477373,1.482
0.001427443744703041,1.483
0.0014265940559844003,1.484
0.0014259937796858783,1.485
0.0014256433708664665,1.486
0.0014255439005088743,1.487
0.001425696588481854,1.488
0.0014261022313322568,1.489
0.0014267608700318406,1.49
0.0014276719399994695,1.491
0.0014288347002199206,1.492
0.0014302485601822663,1.493
0.0014319131162030853,1.494
0.001433827884791439,1.495
0.0014359918596096068,1.496
0.0014384031908198417,1.497
0.0014410592158720123,1.498
0.0014439567218829032,1.499
0.0014470921606510871,1.5
0.0014504616913045146,1.501
0.0014540610664684176,1.502
0.001457885393320768,1.503
0.0014619288546977118,1.504
0.0014661846220949439,1.505
0.0014706451367973842,1.506
0.001475302626978439,1.507
0.0014801495941034976,1.508
0.0014851791119719693,1.509
0.001490384882153887,1.51
0.001495761042916618,1.511
0.001501301770627176,1.512
0.0015070007771516589,1.513
0.0015128509381060688,1.514
0.0015188443075201878,1.515
0.0015249725161161406,1.516
0.0015312272961132138,1.517
0.0015376009008431998,1.518
0.0015440863205796959,1.519
0.0015506772607978827,1.52
0.0015573678801375152,1.521
0.0015641523130084723,1.522
0.0015710241142279015,1.523
0.001577975978242091,1.524
0.0015850000152443364,1.525
0.0015920884283250256,1.526
0.0015992342101407316,1.527
0.0016064316061596654,1.528
0.001613676227809788,1.529
0.0016209647736495235,1.53
0.0016282943976235354,1.531
0.0016356619352219904,1.532
0.001643063433542388,1.533
0.0016504942902665993,1.534
0.0016579497733695949,1.535
0.0016654254784487788,1.536
0.0016729174995327666,1.537
0.001680422280448867,1.538
0.001687936185050583,1.539
0.0016954549340357414,1.54
0.0017029732138886097,1.541
0.0017104846937047544,1.542
0.001717982335754402,1.543
0.0017254587040904986,1.544
0.0017329061025923795,1.545
0.0017403165047658764,1.546
0.0017476812734606804,1.547
0.001754990800448657,1.548
0.0017622344257081164,1.549
0.0017694008865537366,1.55
0.0017764790916486885,1.551
0.0017834588338087793,1.552
0.0017903312031294606,1.553
0.0017970885756277504,1.554
0.0018037241171407843,1.555
0.0018102309734735805,1.556
0.0018166017242288118,1.557
0.001822828631071723,1.558
0.0018289044970235307,1.559
0.0018348235077323522,1.56
0.0018405816478840778,1.561
0.001846176604679367,1.562
0.0018516072186830494,1.563
0.001856872618314679,1.564
0.0018619713157917767,1.565
0.0018669007119241732,1.566
0.001871657202633739,1.567
0.0018762365135062996,1.568
0.001880633789815721,1.569
0.0018848433575103987,1.57
0.0018888584676877984,1.571
0.0018926714323384479,1.572
0.0018962741902002313,1.573
0.0018996589344915363,1.574
0.001902818443703887,1.575
0.0019057459667868914,1.576
0.0019084346970790192,1.577
0.0019108771698522953,1.578
0.0019130651820241013,1.579
0.0019149905092859327,1.58
0.0019166460472008946,1.581
0.0019180268616074943,1.582
0.0019191308878812054,1.583
0.0019199591588910188,1.584
0.001920515494120605,1.585
0.0019208056670477845,1.586
0.0019208362218804793,1.587
0.0019206134166461163,1.588
0.0019201429302730072,1.589
0.0019194304708393328,1.59
0.001918482735192038,1.591
0.0019173081630143324,1.592
0.0019159173095264629,1.593
0.0019143228429398943,1.594
0.0019125392116579273,1.595
0.0019105820589011286,1.596
0.0019084674850928696,1.597
0.0019062112633724917,1.598
0.0019038281522920303,1.599
0.001901331523040204,1.6
0.0018987334046908504,1.601
0.0018960447763768287,1.602
0.0018932758806968607,1.603
0.0018904364843810681,1.604
0.0018875360821004037,1.605
0.0018845840137116491,1.606
0.0018815894412139193,1.607
0.0018785611422690693,1.608
0.0018755071279450896,1.609
0.0018724341993966447,1.61
0.0018693476520473763,1.611
0.0018662512039594454,1.612
0.0018631470003060752,1.613
0.0018600356243003804,1.614
0.0018569162286722022,1.615
0.0018537868102764309,1.616
0.0018506444843009026,1.617
0.0018474856142574284,1.618
0.0018443057226337019,1.619
0.0018410992370576891,1.62
0.001837859365424195,1.621
0.001834578408659308,1.622
0.0018312484570126063,1.623
0.0018278621533026334,1.624
0.0018244132649842923,1.625
0.0018208969235345798,1.626
0.00181730945900396,1.627
0.0018136478286851787,1.628
0.0018099088171965852,1.629
0.0018060884861644242,1.63
0.0018021823088759435,1.631
0.0017981858524838158,1.632
0.0017940954888716577,1.633
0.00178990877880013,1.634
0.0017856244311044874,1.635
0.0017812418493139074,1.636
0.0017767604012283924,1.637
0.0017721787970870827,1.638
0.001767495035213368,1.639
0.0017627069436298146,1.64
0.001757812879248455,1.641
0.0017528121817694667,1.642
0.0017477052319019451,1.643
0.0017424930822559262,1.644
0.0017371767761227119,1.645
0.0017317567879405647,1.646
0.0017262330802403688,1.647
0.0017206057367444559,1.648
0.0017148756338037192,1.649
0.001709044716222612,1.65
0.0017031157738605928,1.651
0.001697091812808516,1.652
0.0016909753396024201,1.653
0.0016847680854808135,1.654
0.0016784714033104928,1.655
0.00167208697150625,1.656
0.0016656173364848188,1.657
0.0016590661181351397,1.658
0.0016524378590630562,1.659
0.001645737527997379,1.66
0.0016389698360727261,1.661
0.0016321388191458004,1.662
0.0016252480846612079,1.663
0.0016183015609351448,1.664
0.0016113042583480988,1.665
0.0016042627266501719,1.666
0.0015971851130245941,1.667
0.001590080821396019,1.668
0.001582959840470605,1.669
0.0015758319442794567,1.67
0.001568706159143053,1.671
0.0015615907796748937,1.672
0.0015544937651779595,1.673
0.001547423150754718,1.674
0.001540387307627997,1.675
0.001533395064216752,1.676
0.0015264557190702575,1.677
0.0015195789506059275,1.678
0.0015127746083313806,1.679
0.0015060523674255396,1.68
0.001499421298150796,1.681
0.0014928895571377052,1.682
0.0014864644067480465,1.683
0.0014801524870304847,1.684
0.0014739600667393164,1.685
0.0014678931048734117,1.686
0.0014619571250823007,1.687
0.0014561569741788588,1.688
0.0014504965500439597,1.689
0.0014449786021415402,1.69
0.0014396047019624432,1.691
0.0014343753880538591,1.692
0.0014292903797126144,1.693
0.0014243487327534447,1.694
0.0014195488415843236,1.695
0.0014148882888998773,1.696
0.0014103637542036186,1.697
0.0014059712253338388,1.698
0.0014017064453386123,1.699
0.0013975652825781572,1.7
0.0013935437842524506,1.701
0.001389637883090234,1.702
0.0013858430084428674,1.703
0.0013821540396902956,1.704
0.0013785657662876113,1.705
0.0013750735524879192,1.706
0.0013716738478687196,1.707
0.0013683644069763328,1.708
0.0013651441986576743,1.709
0.0013620130118656495,1.71
0.0013589708372535746,1.711
0.0013560173093598404,1.712
0.0013531516178380406,1.713
0.0013503729706982699,1.714
0.0013476812385089592,1.715
0.001345077404761143,1.716
0.00134256370668873,1.717
0.0013401434840012228,1.718
0.0013378207836396057,1.719
0.0013355997863119932,1.72
0.0013334842131674533,1.721
0.0013314770293241323,1.722
0.0013295806333271493,1.723
0.0013277973209809956,1.724
0.0013261296912131268,1.725
0.0013245808434089183,1.726
0.001323154337391148,1.727
0.001321853921892849,1.728
0.0013206831007458247,1.729
0.001319644749493624,1.73
0.001318741053069366,1.731
0.0013179737816354778,1.732
0.0013173446193721682,1.733
0.0013168552881535334,1.734
0.0013165074119519113,1.735
0.0013163021919483208,1.736
0.001316240052740705,1.737
0.001316320486081056,1.738
0.0013165421879527408,1.739
0.0013169033495213289,1.74
0.001317401927481768,1.741
0.001318035825860894,1.742
0.001318802962845589,1.743
0.001319701194409425,1.744
0.0013207280790035543,1.745
0.0013218805480286842,1.746
0.0013231546994767302,1.747
0.0013245459093980763,1.748
0.0013260491792348558,1.749
0.0013276594711012235,1.75
0.0013293718665068808,1.751
0.0013311814928327486,1.752
0.0013330832263499207,1.753
0.0013350713278020966,1.754
0.0013371393323694397,1.755
0.001339280355092445,1.756
0.0013414875875754628,1.757
0.0013437546765701172,1.758
0.0013460758564681505,1.759
0.0013484458209932016,1.76
0.0013508593532200052,1.761
0.0013533108383382317,1.762
0.0013557939814248011,1.763
0.0013583020099059006,1.764
0.0013608282568659687,1.765
0.0013633667977895076,1.766
0.0013659129178911836,1.767
0.0013684633090693306,1.768
0.0013710159381232654,1.769
0.0013735695689075353,1.77
0.001376123070474086,1.771
0.001378674922279827,1.772
0.0013812233206137768,1.773
0.0013837667960744757,1.774
0.0013863048912203686,1.775
0.0013888385714935275,1.776
0.0013913702679473538,1.777
0.0013939035493069065,1.778
0.0013964424758832323,1.779
0.0013989908514747424,1.78
0.0014015518179011234,1.781
0.0014041280332551306,1.782
0.0014067221087855418,1.783
0.0014093368538628365,1.784
0.0014119751873497355,1.785
0.0014146397753960881,1.786
0.0014173325754406967,1.787
0.0014200545932325402,1.788
0.0014228060161961048,1.789
0.0014255865409983878,1.79
0.0014283956344131828,1.791
0.0014312326195018543,1.792
0.001434096553432708,1.793
0.0014369859346330706,1.794
0.0014398984712782417,1.795
0.0014428312047356552,1.796
0.001445780991696393,1.797
0.001448745055830016,1.798
0.0014517213520727009,1.799
0.0014547086529602203,1.8
0.0014577063615812962,1.801
0.0014607140963450703,1.802
0.0014637311534432436,1.803
0.0014667560860157592,1.804
0.0014697866731617642,1.805
0.0014728202939820645,1.806
0.0014758544517756106,1.807
0.0014788872272447808,1.808
0.0014819175966523115,1.809
0.00148494561414281,1.81
0.001487972460593337,1.811
0.0014910003525346323,1.812
0.0014940322897591402,1.813
0.0014970716147507715,1.814
0.0015001214404350143,1.815
0.001503184218938501,1.816
0.001506261775316715,1.817
0.001509355780452911,1.818
0.0015124683123566409,1.819
0.0015156022261050225,1.82
0.0015187612568318795,1.821
0.0015219498672134114,1.822
0.0015251728697533462,1.823
0.0015284348841238474,1.824
0.0015317398071220195,1.825
0.001535090581828768,1.826
0.0015384893419788576,1.827
0.0015419376358735562,1.828
0.001545436411247892,1.829
0.0015489857694138407,1.83
0.0015525848199359367,1.831
0.001556231903005865,1.832
0.0015599250243380652,1.833
0.001563662147119431,1.834
0.0015674411368083627,1.835
0.0015712594112021001,1.836
0.001575113672517686,1.837
0.0015790001424565096,1.838
0.0015829152619213334,1.839
0.0015868564447199074,1.84
0.001590822562435141,1.841
0.0015948140517812054,1.842
0.0015988326477902122,1.843
0.0016028808027350222,1.844
0.0016069609368418696,1.845
0.0016110748470756768,1.846
0.0016152236458219775,1.847
0.0016194082417395294,1.848
0.001623629982393825,1.849
0.001627891106190001,1.85
0.00163219487749775,1.851
0.0016365454055872856,1.852
0.0016409472087355749,1.853
0.0016454046257307529,1.854
0.0016499212283615612,1.855
0.0016544994598205727,1.856
0.0016591406379987048,1.857
0.001663845200595678,1.858
0.0016686129472403756,1.859
0.0016734431244968498,1.86
0.0016783342926925751,1.861
0.0016832840386194286,1.862
0.0016882888095544018,1.863
0.001693344099448321,1.864
0.001698444843738342,1.865
0.0017035856911925132,1.866
0.0017087609603519678,1.867
0.0017139643196906658,1.868
0.001719188509153958,1.869
0.0017244254834432027,1.87
0.0017296669874397497,1.871
0.0017349052336511999,1.872
0.001740133405566922,1.873
0.001745345891735578,1.874
0.0017505382331640753,1.875
0.0017557067910859388,1.876
0.0017608481649435215,1.877
0.0017659584986445531,1.878
0.001771033030086199,1.879
0.0017760662045563915,1.88
0.0017810522453660085,1.881
0.001785985801669661,1.882
0.0017908624176207056,1.883
0.0017956787389373809,1.884
0.0018004324347268357,1.885
0.0018051218461313141,1.886
0.001809745403864996,1.887
0.0018143009594277562,1.888
0.001818785383684869,1.889
0.0018231947487292624,1.89
0.0018275249808119716,1.891
0.0018317725892459907,1.892
0.0018359351753938565,1.893
0.0018400115874197948,1.894
0.0018440016757769165,1.895
0.0018479056805781305,1.896
0.0018517234481720698,1.897
0.001855453931464428,1.898
0.0018590953388968095,1.899
0.0018626457579778229,1.9
0.0018661037861141922,1.901
0.00186946887927423,1.902
0.0018727413343123309,1.903
0.0018759219003344455,1.904
0.0018790111198917086,1.905
0.0018820087310912862,1.906
0.0018849135580622806,1.907
0.001887723921506446,1.908
0.0018904381092228256,1.909
0.0018930544648144564,1.91
0.001895571023429059,1.911
0.0018979850363936926,1.912
0.0019002929343684826,1.913
0.0019024909026413579,1.914
0.001904575658965196,1.915
0.0019065449694493286,1.916
0.0019083977301347782,1.917
0.001910133610518799,1.918
0.0019117523534398137,1.919
0.001913253075783597,1.92
0.0019146341283130242,1.921
0.0019158937250217732,1.922
0.0019170309216621324,1.923
0.0019180464262116145,1.924
0.0019189430264275787,1.925
0.0019197255968451587,1.926
0.001920400703767943,1.927
0.0019209758731516973,1.928
0.001921458664398317,1.929
0.0019218558733228254,1.93
0.00192217326396003,1.931
0.00192241586126997,1.932
0.001922588374852663,1.933
0.0019226953548829896,1.934
0.0019227409847286311,1.935
0.0019227286337527001,1.936
0.0019226604847555812,1.937
0.0019225375440693967,1.938
0.0019223599897226049,1.939
0.0019221275340052548,1.94
0.001921839558032342,1.941
0.001921494957395819,1.942
0.0019210917711988962,1.943
0.0019206268531224587,1.944
0.0019200959113949707,1.945
0.0019194939634691913,1.946
0.001918815938786048,1.947
0.0019180571889031292,1.948
0.0019172138393629698,1.949
0.0019162829906962744,1.95
0.001915262767523374,1.951
0.0019141521840697782,1.952
0.001912950771550506,1.953
0.0019116579592552193,1.954
0.0019102724403493795,1.955
0.001908792013413149,1.956
0.0019072141211100783,1.957
0.001905536702384171,1.958
0.0019037588484932518,1.959
0.0019018810361300079,1.96
0.0018999048981847833,1.961
0.0018978325794485715,1.962
0.0018956658911495215,1.963
0.001893405706896035,1.964
0.0018910519292192716,1.965
0.0018886038244304443,1.966
0.001886060249935709,1.967
0.0018834195175465465,1.968
0.0018806790014007056,1.969
0.0018778349155496,1.97
0.0018748825972390163,1.971
0.0018718171200014144,1.972
0.0018686338210031268,1.973
0.0018653285089882626,1.974
0.0018618972960341652,1.975
0.001858336095506732,1.976
0.00185464004673349,1.977
0.001850803361760209,1.978
0.0018468198512634022,1.979
0.0018426838259928214,1.98
0.0018383909359652529,1.981
0.0018339387459771163,1.982
0.001829326978663833,1.983
0.0018245573841275578,1.984
0.0018196332261702604,1.985
0.0018145584174121987,1.986
0.0018093365580609322,1.987
0.0018039704869407093,1.988
0.0017984627084786358,1.989
0.0017928162728232872,1.99
0.0017870354849666204,1.991
0.001781126213536829,1.992
0.001775095819209878,1.993
0.001768952783293391,1.994
0.0017627061455013047,1.995
0.0017563648591506526,1.996
0.0017499371665508803,1.997
0.0017434301243645623,1.998
0.0017368494006547003,1.999
0.0017301992954560593,2.0
0.0017234827784651343,2.001
0.001716701489507897,2.002
0.0017098559022709942,2.003
0.0017029457790199481,2.004
0.0016959707599394787,2.005
0.001688930827975722,2.006
0.0016818264771618393,2.007
0.001674658510296483,2.008
0.0016674275346839369,2.009
0.001660133501233167,2.01
0.001652775755189064,2.011
0.0016453536882373551,2.012
0.0016378676128251935,2.013
0.0016303194737503745,2.014
0.0016227132443829091,2.015
0.001615054975490605,2.016
0.0016073525051368686,2.017
0.0015996148688941082,2.018
0.0015918514861477293,2.019
0.0015840713548772036,2.02
0.0015762826863763367,2.021
0.001568493166925424,2.022
0.0015607104797748528,2.023
0.0015529426334781808,2.024
0.0015451979514159101,2.025
0.0015374847581081361,2.026
0.0015298108915261183,2.027
0.0015221833114228399,2.028
0.001514608045610408,2.029
0.001507090403911695,2.03
0.0014996351598985929,2.031
0.0014922465003189805,2.032
0.0014849277866823924,2.033
0.0014776813844777266,2.034
0.0014705087969673321,2.035
0.0014634110592243108,2.036
0.0014563891761468772,2.037
0.0014494444723311469,2.038
0.0014425788266361828,2.039
0.001435794785702258,2.04
0.0014290955394901915,2.041
0.0014224847313534807,2.042
0.0014159660813298633,2.043
0.001409542900096964,2.044
0.0014032177767656776,2.045
0.00139699271874725,2.046
0.0013908696663126531,2.047
0.0013848510562140533,2.048
0.001378940200954925,2.049
0.001373141409043611,2.05
0.001367459849833726,2.051
0.0013619012091899885,2.052
0.001356471203206631,2.053
0.001351175067731705,2.054
0.0013460172560116892,2.055
0.0013410015469073066,2.056
0.0013361314917107103,2.057
0.001331410931960538,2.058
0.001326844366692267,2.059
0.0013224370505471065,2.06
0.0013181947809240812,2.061
0.0013141234191990352,2.062
0.0013102283449023659,2.063
0.0013065141852967423,2.064
0.0013029849718848884,2.065
0.0012996444794708926,2.066
0.001296496457066816,2.067
0.0012935446886416409,2.068
0.0012907929351841554,2.069
0.0012882448067733684,2.07
0.0012859035887681277,2.071
0.0012837720145905626,2.072
0.0012818520184235478,2.073
0.0012801446363895927,2.074
0.001278650200181186,2.075
0.0012773687098151288,2.076
0.0012763001397283983,2.077
0.0012754445321720284,2.078
0.0012748018561341903,2.079
0.0012743716890100518,2.08
0.001274152852769844,2.081
0.0012741431806490278,2.082
0.0012743394784267715,2.083
0.0012747375490736654,2.084
0.0012753321615561494,2.085
0.0012761170384416958,2.086
0.0012770849970140889,2.087
0.0012782282508616146,2.088
0.0012795387803449525,2.089
0.001281008678829041,2.09
0.0012826303848537438,2.091
0.001284396704860714,2.092
0.001286300554801412,2.093
0.0012883345202271594,2.094
0.0012904906421012368,2.095
0.0012927607771831555,2.096
0.0012951373703541944,2.097
0.0012976142266378913,2.098
0.0013001870319175623,2.099
0.0013028535165381797,2.1
0.0013056132164075806,2.101
0.0013084668538277794,2.102
0.0013114155079202955,2.103
0.001314459990553305,2.104
0.0013176008178857944,2.105
0.001320838673635559,2.106
0.0013241748937403057,2.107
0.0013276116422076677,2.108
0.001331151711143773,2.109
0.0013347980212383293,2.11
0.0013385530758512898,2.111
0.001342418749363238,2.112
0.0013463965132129436,2.113
0.0013504877504281713,2.114
0.0013546937766843515,2.115
0.001359015550790412,2.116
0.0013634534515922685,2.117
0.001368007515546046,2.118
0.0013726780683870378,2.119
0.0013774663492825154,2.12
0.0013823748429414042,2.121
0.0013874072569210328,2.122
0.001392568192345473,2.123
0.0013978625948328101,2.124
0.0014032951314089926,2.125
0.0014088697650342901,2.126
0.001414589757445236,2.127
0.0014204580056809018,2.128
0.0014264774048550674,2.129
0.0014326510455958254,2.13
0.0014389822269627493,2.131
0.0014454743235995627,2.132
0.001452130542833235,2.133
0.001458953591136502,2.134
0.0014659453203901749,2.135
0.0014731065566523985,2.136
0.0014804372637489576,2.137
0.0014879369170843423,2.138
0.0014956048447480241,2.139
0.0015034403992632325,2.14
0.001511442911556782,2.141
0.001519611412795906,2.142
0.0015279442281247975,2.143
0.0015364387535555732,2.144
0.001545091659880648,2.145
0.0015538993721020268,2.146
0.0015628584968785607,2.147
0.0015719660296475467,2.148
0.0015812193251621136,2.149
0.0015906158767262535,2.15
0.0016001529778159364,2.151
0.0016098273404022317,2.152
0.0016196347262702397,2.153
0.0016295696464490666,2.154
0.0016396252026223595,2.155
0.001649793093279085,2.156
0.0016600637023385016,2.157
0.0016704261728374794,2.158
0.001680868422488962,2.159
0.0016913770810212314,2.16
0.0017019373723417084,2.161
0.001712533051159934,2.162
0.0017231464648450661,2.163
0.0017337586330192086,2.164
0.0017443492353031202,2.165
0.0017548966583742205,2.166
0.0017653783710585443,2.167
0.0017757716629890486,2.168
0.0017860545439874413,2.169
0.0017962065859582173,2.17
0.0018062095535452429,2.171
0.0018160477161416856,2.172
0.001825707774618006,2.173
0.0018351783777357331,2.174
0.0018444492492565654,2.175
0.001853510146096687,2.176
0.0018623502362805355,2.177
0.0018709583827211749,2.178
0.0018793240940375604,2.179
0.0018874385306954838,2.18
0.001895295218807113,2.181
0.0019028903979971864,2.182
0.001910223013415033,2.183
0.0019172943908681915,2.184
0.0019241076532787286,2.185
0.0019306669538355714,2.186
0.0019369766134428078,2.187
0.0019430402972278446,2.188
0.0019488604630105895,2.189
0.001954438249142292,2.19
0.001959773652087412,2.191
0.0019648656607081844,2.192
0.0019697121691016153,2.193
0.0019743097188280293,2.194
0.0019786532308135878,2.195
0.0019827358497733674,2.196
0.001986548916523752,2.197
0.001990082083747,2.198
0.0019933236400412804,2.199
0.001996261041065643,2.2
0.0019988815635864935,2.201
0.002001172988898285,2.202
0.002003124227819416,2.203
0.0020047258071605014,2.204
0.002005970159694785,2.205
0.0020068516826244045,2.206
0.002007366541814316,2.207
0.0020075122035676843,2.208
0.002007286686077299,2.209
0.0020066876820623823,2.21
0.002005712054631402,2.211
0.0020043561851373986,2.212
0.0020026170258419834,2.213
0.002000493294410953,2.214
0.001997986395850495,2.215
0.001995100887456188,2.216
0.001991844414799843,2.217
0.0019882271383387493,2.218
0.0019842607536297956,2.219
0.001979957315090225,2.22
0.0019753282849243052,2.221
0.0019703842984549387,2.222
0.001965135690366325,2.223
0.0019595932944541806,2.224
0.001953769050128497,2.225
0.0019476762395545667,2.226
0.0019413293088981435,2.227
0.00193474327244899,2.228
0.0019279328808358312,2.229
0.0019209120525283843,2.23
0.001913693987919518,2.231
0.0019062917599868639,2.232
0.0018987188293216194,2.233
0.0018909891735158105,2.234
0.0018831170188095944,2.235
0.0018751162804563368,2.236
0.001866999933837917,2.237
0.001858779676903071,2.238
0.0018504660808737838,2.239
0.0018420690204032095,2.24
0.0018335980754181742,2.241
0.0018250627783424835,2.242
0.0018164726704315976,2.243
0.0018078371415026478,2.244
0.001799165061194335,2.245
0.0017904643194101239,2.246
0.0017817415497393613,2.247
0.0017730022155544624,2.248
0.0017642508815902968,2.249
0.001755491345450936,2.25
0.0017467265129113346,2.251
0.0017379582383264568,2.252
0.001729187498749199,2.253
0.0017204149794618074,2.254
0.00171164175540876,2.255
0.001702869719923187,2.256
0.0016941015973508495,2.257
0.0016853405125181855,2.258
0.0016765893085294386,2.259
0.0016678501506065817,2.26
0.0016591248531013848,2.261
0.0016504157159576097,2.262
0.0016417263328960055,2.263
0.001633062059732535,2.264
0.0016244300624220795,2.265
0.0016158389555407826,2.266
0.0016072981029631769,2.267
0.0015988167794904065,2.268
0.0015904035991601978,2.269
0.0015820665388028027,2.27
0.0015738134036844072,2.271
0.0015656522963824432,2.272
0.001557591822241316,2.273
0.0015496409951248646,2.274
0.0015418088941512548,2.275
0.0015341041713367563,2.276
0.00152653460875604,2.277
0.001519106966992247,2.278
0.0015118271623941687,2.279
0.0015047005490476048,2.28
0.001497732091884141,2.281
0.0014909263689282873,2.282
0.0014842874029669128,2.283
0.0014778183879731416,2.284
0.0014715215251681027,2.285
0.001465398183249694,2.286
0.0014594493366492567,2.287
0.00145367604758803,2.288
0.001448079812353608,2.289
0.0014426626980771843,2.29
0.001437427254062063,2.291
0.0014323762193567619,2.292
0.001427512076020643,2.293
0.0014228365893111195,2.294
0.001418350614578418,2.295
0.0014140543270353538,2.296
0.0014099476787293368,2.297
0.0014060307878030716,2.298
0.001402304116731808,2.299
0.0013987683971407078,2.3
0.0013954243119373173,2.301
0.0013922720410114806,2.302
0.001389310887396475,2.303
0.0013865391540865998,2.304
0.0013839541987356971,2.305
0.0013815524556242001,2.306
0.0013793293454887087,2.307
0.0013772791893021886,2.308
0.0013753952678183517,2.309
0.001373670020658714,2.31
0.0013720952630661646,2.311
0.0013706623218051625,2.312
0.0013693620534769217,2.313
0.001368184736988307,2.314
0.0013671198722803688,2.315
0.0013661560260586976,2.316
0.0013652809293380813,2.317
0.0013644818873497502,2.318
0.0013637463566398443,2.319
0.0013630625072032327,2.32
0.0013624196553586145,2.321
0.0013618084998374828,2.322
0.0013612211202084687,2.323
0.001360650717660134,2.324
0.0013600910966309518,2.325
0.0013595360084480848,2.326
0.001358978737446618,2.327
0.0013584122923212746,2.328
0.001357830098417301,2.329
0.0013572267760643907,2.33
0.0013565987139156426,2.331
0.0013559443324645984,2.332
0.0013552640115224335,2.333
0.0013545597066181156,2.334
0.0013538343275322573,2.335
0.0013530909902308714,2.336
0.0013523323463605012,2.337
0.0013515603001900325,2.338
0.0013507762409129427,2.339
0.0013499815456386366,2.34
0.001349178040900605,2.341
0.0013483682890674826,2.342
0.0013475556649186519,2.343
0.001346744225877038,2.344
0.0013459384226159681,2.345
0.0013451427184250169,2.346
0.0013443611775201746,2.347
0.001343597088468593,2.348
0.0013428527317151833,2.349
0.0013421293552380788,2.35
0.0013414272574330016,2.351
0.0013407458056396507,2.352
0.0013400833496898087,2.353
0.0013394371690749268,2.354
0.0013388035847575269,2.355
0.0013381781726799604,2.356
0.0013375559069292722,2.357
0.0013369311183665552,2.358
0.0013362973226893455,2.359
0.0013356471913549485,2.36
0.0013349728812697603,2.361
0.0013342665856754439,2.362
0.0013335210212015165,2.363
0.0013327296913215262,2.364
0.001331886867130743,2.365
0.0013309872696898,2.366
0.0013300255464634178,2.367
0.001328995849812726,2.368
0.001327891875328621,2.369
0.0013267073713163335,2.37
0.001325436790692018,2.371
0.0013240757982018766,2.372
0.0013226215285505976,2.373
0.0013210725745253441,2.374
0.0013194287168503272,2.375
0.0013176904355179113,2.376
0.0013158582876110752,2.377
0.0013139323737943092,2.378
0.0013119122251342096,2.379
0.0013097972152801098,2.38
0.0013075872250996887,2.381
0.0013052832349900443,2.382
0.001302887692419987,2.383
0.0013004045991680977,2.384
0.001297839307671666,2.385
0.0012951980671318897,2.386
0.0012924873968642276,2.387
0.0012897134514165411,2.388
0.0012868816778347802,2.389
0.0012839969447668374,2.39
0.001281063954355724,2.391
0.0012780876304147475,2.392
0.0012750733394988937,2.393
0.001272026909946105,2.394
0.0012689544431287209,2.395
0.0012658619486291135,2.396
0.0012627549104138696,2.397
0.001259637979716733,2.398
0.0012565149257124713,2.399
0.0012533887473426643,2.4
0.001250261741316955,2.401
0.0012471354380701003,2.402
0.001244010515460995,2.403
0.0012408869051354749,2.404
0.0012377641718134419,2.405
0.0012346420106276808,2.406
0.0012315206412233093,2.407
0.0012284009441713235,2.408
0.0012252842507269636,2.409
0.0012221718715995462,2.41
0.001219064773723719,2.411
0.0012159638078466232,2.412
0.0012128703697708181,2.413
0.0012097870341955528,2.414
0.0012067178531450762,2.415
0.00120366825039595,2.416
0.0012006445618334815,2.417
0.0011976533666756414,2.418
0.0011947008963469243,2.419
0.0011917928350802483,2.42
0.0011889345304412185,2.421
0.001186131313906633,2.422
0.0011833886847443372,2.423
0.0011807123241611862,2.424
0.0011781079863676974,2.425
0.0011755813057119577,2.426
0.00117313754778807,2.427
0.0011707813386790202,2.428
0.0011685164472782234,2.429
0.0011663457140266248,2.43
0.0011642711308826794,2.431
0.0011622939666990006,2.432
0.001160414834680441,2.433
0.0011586336591838822,2.434
0.0011569495635396128,2.435
0.0011553607997951544,2.436
0.0011538648560163642,2.437
0.0011524587291009303,2.438
0.0011511392313797674,2.439
0.0011499032145966363,2.44
0.0011487476395232183,2.441
0.0011476694446427608,2.442
0.0011466652489617274,2.443
0.0011457310960710477,2.444
0.0011448624880512704,2.445
0.0011440547020940715,2.446
0.0011433031454067513,2.447
0.001142603559241169,2.448
0.001141952042245005,2.449
0.0011413449382564474,2.45
0.001140778645958232,2.451
0.001140249392960553,2.452
0.001139752985522379,2.453
0.0011392845623102912,2.454
0.0011388384835538388,2.455
0.001138408494689021,2.456
0.0011379881187227445,2.457
0.0011375710959855131,2.458
0.0011371517209671639,2.459
0.0011367249869534,2.46
0.0011362864866035593,2.461
0.0011358320616200682,2.462
0.0011353573202182213,2.463
0.0011348573265728436,2.464
0.0011343266836804395,2.465
0.0011337598502404425,2.466
0.0011331513682289137,2.467
0.0011324958425603018,2.468
0.0011317876879436966,2.469
0.0011310208100750272,2.47
0.0011301885144445597,2.471
0.0011292837765222268,2.472
0.0011282996683281124,2.473
0.0011272296588512515,2.474
0.001126067656885455,2.475
0.0011248077685000653,2.476
0.001123443883412935,2.477
0.0011219694552210425,2.478
0.0011203777983958966,2.479
0.0011186627847318519,2.48
0.0011168195667350925,2.481
0.0011148450624853504,2.482
0.0011127380679890836,2.483
0.0011104989367026908,2.484
0.001108128889818106,2.485
0.0011056292950708214,2.486
0.0011030014645007269,2.487
0.0011002471692260194,2.488
0.0010973694531573384,2.489
0.001094373254921539,2.49
0.0010912656608719222,2.491
0.001088055781497254,2.492
0.0010847542851166027,2.493
0.0010813726648953562,2.494
0.0010779224738146427,2.495
0.0010744149761806074,2.496
0.0010708614308405388,2.497
0.0010672736456487143,2.498
0.0010636643300676585,2.499
0.0010600470888195504,2.5
0.0010564361062068465,2.501
0.0010528456427763538,2.502
0.0010492895450836084,2.503
0.0010457810060945229,2.504
0.001042332638897235,2.505
0.001038956670844709,2.506
0.001035665060352284,2.507
0.0010324694898977474,2.508
0.0010293812550254142,2.509
0.0010264110844422282,2.51
0.0010235689748810776,2.511
0.00102086416061768,2.512
0.0010183052592414035,2.513
0.0010159005045129934,2.514
0.001013657949098748,2.515
0.0010115855634644701,2.516
0.0010096911839981022,2.517
0.0010079823139761913,2.518
0.0010064659070986074,2.519
0.0010051483383182363,2.52
0.0010040356139311066,2.521
0.0010031336593834214,2.522
0.0010024485226043758,2.523
0.0010019864457257203,2.524
0.0010017538072431733,2.525
0.0010017569400521506,2.526
0.0010020018573636236,2.527
0.0010024940021348557,2.528
0.0010032381819168924,2.529
0.0010042387111774704,2.53
0.0010054995984803662,2.531
0.0010070246272998085,2.532
0.0010088172995709307,2.533
0.0010108806692004895,2.534
0.0010132171368444696,2.535
0.0010158283510433071,2.536
0.0010187153102967602,2.537
0.001021878580069329,2.538
0.0010253184757496674,2.539
0.0010290351406232775,2.54
0.0010330285075643931,2.541
0.001037298155140796,2.542
0.0010418431008960547,2.543
0.0010466616368840832,2.544
0.001051751330931398,2.545
0.0010571092040211295,2.546
0.0010627319653731013,2.547
0.0010686161853315133,2.548
0.0010747583448861952,2.549
0.0010811547279309178,2.55
0.0010878011893353107,2.551
0.0010946929934635369,2.552
0.0011018249446794093,2.553
0.0011091917742824609,2.554
0.0011167885303054533,2.555
0.00112461076642704,2.556
0.0011326544640752451,2.557
0.0011409157045430872,2.558
0.0011493902250963516,2.559
0.0011580731608221075,2.56
0.0011669591820881273,2.561
0.001176042873569627,2.562
0.0011853190650639323,2.563
0.0011947829861951931,2.564
0.0012044302476913315,2.565
0.0012142566878091102,2.566
0.001224258130200004,2.567
0.0012344300925365252,2.568
0.0012447674768612386,2.569
0.0012552642970707878,2.57
0.0012659135411433682,2.571
0.0012767072084317762,2.572
0.0012876364364998603,2.573
0.001298691617734675,2.574
0.0013098624710520864,2.575
0.0013211380526013858,2.576
0.0013325066819170979,2.577
0.0013439557907884178,2.578
0.0013554717859855083,2.579
0.0013670400431422826,2.58
0.0013786450163530998,2.581
0.001390270309135379,2.582
0.0014018986141810302,2.583
0.0014135116508323835,2.584
0.0014250903408525727,2.585
0.001436615295574129,2.586
0.0014480674611327179,2.587
0.0014594287271035226,2.588
0.00147068236368366,2.589
0.0014818131930939126,2.59
0.0014928074313200117,2.591
0.0015036521711132098,2.592
0.001514334640090447,2.593
0.0015248417198097696,2.594
0.0015351602291392636,2.595
0.0015452778722848536,2.596
0.0015551842849525661,2.597
0.0015648717270027373,2.598
0.0015743352315436073,2.599
0.0015835721702675003,2.6
0.0015925813071123174,2.601
0.001601361660566022,2.602
0.0016099118377840736,2.603
0.0016182302683828004,2.604
0.001626315967359028,2.605
0.00163416918312775,2.606
0.0016417916404449784,2.607
0.0016491863468423608,2.608
0.0016563570030443348,2.609
0.0016633072071336867,2.61
0.0016700398997334836,2.611
0.0016765574399064983,2.612
0.0016828621789893518,2.613
0.0016889570623686062,2.614
0.0016948459289002182,2.615
0.0017005333883927452,2.616
0.001706024287378261,2.617
0.0017113230548272875,2.618
0.0017164335219888068,2.619
0.0017213595071567192,2.62
0.0017261057514279888,2.621
0.0017306786331052924,2.622
0.0017350864175010598,2.623
0.0017393390215486107,2.624
0.0017434473612207224,2.625
0.0017474224655994815,2.626
0.001751274736052792,2.627
0.0017550137615158072,2.628
0.0017586486960386649,2.629
0.0017621887851300194,2.63
0.0017656436957012172,2.631
0.0017690235818815707,2.632
0.0017723389410952862,2.633
0.001775600332775651,2.634
0.0017788180348612898,2.635
0.0017820017073845085,2.636
0.00178516011630734,2.637
0.0017883009416860252,2.638
0.0017914306617686257,2.639
0.0017945544863182219,2.64
0.0017976763172305545,2.641
0.0018007987346641719,2.642
0.0018039230241907306,2.643
0.0018070492573596128,2.644
0.0018101764091732588,2.645
0.0018133024548387462,2.646
0.0018164243596351746,2.647
0.001819537935733965,2.648
0.0018226377455581935,2.649
0.0018257173490971589,2.65
0.0018287699722506488,2.651
0.001831789381024723,2.652
0.001834770705875297,2.653
0.0018377110562849738,2.654
0.0018406098320652212,2.655
0.0018434686798131704,2.656
0.0018462910758880484,2.657
0.0018490815421343682,2.658
0.0018518446726104709,2.659
0.0018545845246306627,2.66
0.0018573048970776968,2.661
0.0018600103185881566,2.662
0.001862707097690951,2.663
0.0018654039822095143,2.664
0.0018681122915038433,2.665
0.001870845543488846,2.666
0.001873618687937071,2.667
0.0018764471078176425,2.668
0.0018793456460143492,2.669
0.0018823280509151466,2.67
0.0018854070379263216,2.671
0.0018885946865214818,2.672
0.0018919027833374426,2.673
0.0018953429819965903,2.674
0.001898926814490133,2.675
0.001902665611911038,2.676
0.0019065703831518802,2.677
0.0019106516705316551,2.678
0.0019149193651956892,2.679
0.0019193824482792554,2.68
0.0019240486742615305,2.681
0.0019289243355497495,2.682
0.0019340142637243863,2.683
0.0019393220272346074,2.684
0.0019448501242035723,2.685
0.0019506000165564143,2.686
0.0019565719761083355,2.687
0.0019627648612996836,2.688
0.0019691760672274077,2.689
0.0019758017481499124,2.69
0.0019826370949626985,2.691
0.001989676374073112,2.692
0.0019969127067548356,2.693
0.002004337965429407,2.694
0.0020119431704658857,2.695
0.0020197192631493488,2.696
0.002027657799142011,2.697
0.002035751224150086,2.698
0.002043992587483178,2.699
0.0020523748243364425,2.7
0.0020608902026021743,2.701
0.00206953056878103,2.702
0.0020782883029896635,2.703
0.00208715732857991,2.704
0.0020961336933080633,2.705
0.002105215595371868,2.706
0.00211440289169675,2.707
0.0021236961939423166,2.708
0.002133095812184207,2.709
0.0021426010603504907,2.71
0.0021522103080141046,2.711
0.002161921553358365,2.712
0.0021717329934523963,2.713
0.002181643315776899,2.714
0.0021916516870829385,2.715
0.0022017574791074615,2.716
0.0022119597809545184,2.717
0.0022222567874971666,2.718
0.0022326452717347134,2.719
0.002243120415827232,2.72
0.0022536760506373585,2.721
0.002264305040496521,2.722
0.0022749995391682094,2.723
0.0022857510083123186,2.724
0.0022965499722397147,2.725
0.0023073856086729414,2.726
0.0023182455285473565,2.727
0.0023291160778759613,2.728
0.002339983071198753,2.729
0.0023508326129286924,2.73
0.0023616517809334644,2.731
0.0023724290863203425,2.732
0.002383154660578966,2.733
0.0023938201243684353,2.734
0.0024044180897279436,2.735
0.0024149413086572823,2.736
0.0024253818144162886,2.737
0.0024357308004276375,2.738
0.002445979617477322,2.739
0.0024561213634930242,2.74
0.0024661522904042606,2.741
0.002476072622955389,2.742
0.0024858866618319595,2.743
0.002495602194927733,2.744
0.002505229378501169,2.745
0.0025147793334774344,2.746
0.0025242627610434056,2.747
0.0025336889446226996,2.748
0.0025430653704402472,2.749
0.002552397787721992,2.75
0.002561690305163111,2.751
0.0025709453359350374,2.752
0.0025801634770224054,2.753
0.0025893434812851992,2.754
0.0025984824440150626,2.755
0.0026075762553380154,2.756
0.002616620283053417,2.757
0.0026256101743628315,2.758
0.00263454262155563,2.759
0.0026434159343185527,2.76
0.0026522302940589445,2.761
0.002660987618288163,2.762
0.0026696910212890565,2.763
0.0026783439146649316,2.764
0.002686948956551687,2.765
0.0026955073558938883,2.766
0.0027040189744293184,2.767
0.002712483065840519,2.768
0.0027208991253281885,2.769
0.0027292675342321677,2.77
0.00273758996452808,2.771
0.00274586960346315,2.772
0.002754111263628911,2.773
0.0027623214010456276,2.774
0.002770507985902568,2.775
0.0027786800946213402,2.776
0.0027868470846326553,2.777
0.0027950176002611645,2.778
0.002803199357670931,2.779
0.0028114003952501997,2.78
0.002819631174649879,2.781
0.0028279063722458308,2.782
0.002836245678963773,2.783
0.0028446734004162343,2.784
0.0028532169507150588,2.785
0.0028619047899692026,2.786
0.002870764950420636,2.787
0.0028798250691517407,2.788
0.0028891135375827097,2.789
0.002898660624249205,2.79
0.0029084989016149986,2.791
0.002918662930821738,2.792
0.002929188399022499,2.793
0.002940110973965918,2.794
0.0029514651582560054,2.795
0.0029632834240345797,2.796
0.0029755958141819707,2.797
0.0029884299193873236,2.798
0.0030018109305454117,2.799
0.003015761569068019,2.8
0.0030303019247274647,2.801
0.003045449354752754,2.802
0.0030612185466017587,2.803
0.0030776216852725475,2.804
0.003094668605757993,2.805
0.0031123668653725823,2.806
0.003130721697919381,2.807
0.003149735852061241,2.808
0.003169409464631158,2.809
0.003189740212919697,2.81
0.003210723821262686,2.811
0.0032323547607009248,2.812
0.003254626934722432,2.813
0.003277534196967782,2.814
0.0033010705736024755,2.815
0.0033252300952179817,2.816
0.0033500062069689667,2.817
0.0033753909068905685,2.818
0.0034013740886510197,2.819
0.003427943569734488,2.82
0.0034550857000332233,2.821
0.0034827859814445744,2.822
0.003511029277226954,2.823
0.0035397995263809056,2.824
0.0035690790707463465,2.825
0.003598847860699561,2.826
0.0036290829165278606,2.827
0.0036597581829755166,2.828
0.003690844517311501,2.829
0.0037223096439230816,2.83
0.003754118274896879,2.831
0.003786232544075542,2.832
0.003818612591130934,2.833
0.0038512170606682466,2.834
0.003884003406291535,2.835
0.00391692798558507,2.836
0.003949945978965444,2.837
0.003983011189108184,2.838
0.004016075772415763,2.839
0.004049089925455566,2.84
0.004082001515539945,2.841
0.004114755627516561,2.842
0.004147294089941406,2.843
0.004179555243379455,2.844
0.0042114741746283185,2.845
0.004242983312932067,2.846
0.004274013166932182,2.847
0.004304493146138201,2.848
0.0043343525238890845,2.849
0.004363521595264765,2.85
0.004391933028148441,2.851
0.004419523315365673,2.852
0.004446234133821009,2.853
0.004472013330749405,2.854
0.004496815212911465,2.855
0.004520599833170282,2.856
0.004543331066724356,2.857
0.004564973931554511,2.858
0.004585492960640812,2.859
0.004604853397440517,2.86
0.004623024720153998,2.861
0.004639984509377516,2.862
0.004655721298482403,2.863
0.00467023596667365,2.864
0.004683541621304755,2.865
0.004695662118912774,2.866
0.004706629525103412,2.867
0.004716480898225495,2.868
0.004725254879443258,2.869
0.0047329889340141165,2.87
0.004739718318396771,2.871
0.00474547692828667,2.872
0.00475029889166085,2.873
0.004754219819522877,2.874
0.004757277440588184,2.875
0.004759511696213329,2.876
0.004760964397875072,2.877
0.004761678565091783,2.878
0.004761697565834767,2.879
0.004761064177698525,2.88
0.004759819686032612,2.881
0.004758003138312498,2.882
0.004755650870498228,2.883
0.0047527963926967875,2.884
0.004749470658893565,2.885
0.004745702654501508,2.886
0.00474152013423593,2.887
0.004736950261329476,2.888
0.004732019873880605,2.889
0.004726755159418508,2.89
0.0047211807270535824,2.891
0.004715318591712921,2.892
0.004709188018847387,2.893
0.004702806594433668,2.894
0.004696191798833315,2.895
0.004689362198835485,2.896
0.004682337916422729,2.897
0.00467514039382003,2.898
0.004667791626829274,2.899
0.004660313123762809,2.9
0.004652724843103533,2.901
0.004645044287844968,2.902
0.004637285828935982,2.903
0.004629460233235112,2.904
0.004621574326520621,2.905
0.004613630787878458,2.906
0.004605628187618366,2.907
0.00459756134314104,2.908
0.004589421897417582,2.909
0.00458119895626985,2.91
0.004572879659187206,2.911
0.004564449584478705,2.912
0.004555892902435212,2.913
0.004547192204513919,2.914
0.0045383279461989855,2.915
0.004529277676769853,2.916
0.004520015731013823,2.917
0.004510513938360991,2.918
0.004500742989899994,2.919
0.0044906736769082965,2.92
0.0044802775531115275,2.921
0.004469526910201042,2.922
0.004458394131703243,2.923
0.004446850616363862,2.924
0.004434865556754277,2.925
0.0044224049784832,2.926
0.004409431425601699,2.927
0.004395904309862111,2.928
0.004381780613296056,2.929
0.0043670157716627885,2.93
0.004351564836073843,2.931
0.004335384031068711,2.932
0.004318432676028916,2.933
0.004300675240012578,2.934
0.0042820831171545845,2.935
0.004262635608515277,2.936
0.004242319625292826,2.937
0.0042211278003691215,2.938
0.0041990554849645235,2.939
0.00417609866429667,2.94
0.0041522549165971595,2.941
0.004127526992990759,2.942
0.004101926665085532,2.943
0.004075477126190523,2.944
0.004048213508040009,2.945
0.004020181706834045,2.946
0.003991435975477038,2.947
0.003962035827008881,2.948
0.003932042777015259,2.949
0.0039015176289532686,2.95
0.00387051922859752,2.951
0.0038391049045817045,2.952
0.003807331619584755,2.953
0.003775256835359977,2.954
0.003742938863362651,2.955
0.0037104368194971716,2.956
0.0036778103163937373,2.957
0.0036451190224572384,2.958
0.0036124221982127137,2.959
0.0035797782897003766,2.96
0.0035472446196524866,2.961
0.003514877177591589,2.962
0.0034827304765474043,2.963
0.003450857421843366,2.964
0.003419309133635286,2.965
0.003388134685476197,2.966
0.0033573807600454177,2.967
0.0033270912974561265,2.968
0.0032973073038420975,2.969
0.003268066938561187,2.97
0.0032394058029621576,2.971
0.0032113572691806385,2.972
0.0031839527507015806,2.973
0.0031572218562736644,2.974
0.0031311923621388103,2.975
0.0031058899794724035,2.976
0.003081338087244725,2.977
0.0030575577853772266,2.978
0.0030345684117965717,2.979
0.0030123882370792785,2.98
0.0029910349567299366,2.981
0.0029705257905388452,2.982
0.0029508771452071976,2.983
0.0029321039865093158,2.984
0.002914219380765339,2.985
0.002897234646768085,2.986
0.002881160021868323,2.987
0.0028660053818042454,2.988
0.002851780703304154,2.989
0.0028384961834174234,2.99
0.0028261620044422323,2.991
0.0028147877693174535,2.992
0.002804381754656504,2.993
0.00279495032736272,2.994
0.002786497791104278,2.995
0.0027790264571991544,2.996
0.002772536607943717,2.997
0.0027670265677843045,2.998
0.0027624933002710823,2.999
0.0027589333430448515,3.0
0.002756343446092458,3.001
0.002754720447088116,3.002
0.002754060512788861,3.003
0.0027543586523443835,3.004
0.0027556092706207303,3.005
0.002757807349532179,3.006
0.00276094932654402,3.007
0.0027650332460745723,3.008
0.002770058230458769,3.009
0.002776023480061845,3.01
0.002782927152840825,3.011
0.002790765620863524,3.012
0.002799533383214142,3.013
0.0028092233695087266,3.014
0.0028198271970279764,3.015
0.0028313352261576273,3.016
0.00284373647489861,3.017
0.002857018480468133,3.018
0.0028711671649082494,3.019
0.002886166717271099,3.02
0.0029019994627117293,3.021
0.002918645665714469,3.022
0.0029360832793400913,3.023
0.00295428782111812,3.024
0.0029732325749841433,3.025
0.0029928890786313197,3.026
0.0030132276891984234,3.027
0.0030342180658514584,3.028
0.0030558294752433698,3.029
0.00307803085044551,3.03
0.0031007905561423648,3.031
0.0031240758367309263,3.032
0.003147852121192667,3.033
0.0031720827521434774,3.034
0.0031967295988863014,3.035
0.0032217543046376045,3.036
0.0032471196121700648,3.037
0.003272790444772812,3.038
0.00329873457050034,3.039
0.0033249226966856706,3.04
0.0033513278823136716,3.041
0.0033779242368013073,3.042
0.003404685299884074,3.043
0.003431583220799813,3.044
0.0034585895352366182,3.045
0.0034856769113244114,3.046
0.00351282071461708,3.047
0.0035399998420745584,3.048
0.0035671967206526555,3.049
0.00359439651559058,3.05
0.003621585718470607,3.051
0.0036487504517286017,3.052
0.003675875108062183,3.053
0.0037029419767203695,3.054
0.0037299318784809713,3.055
0.003756825189538634,3.056
0.003783602736600744,3.057
0.003810246425085242,3.058
0.003836739569289108,3.059
0.0038630668678348097,3.06
0.00388921398296234,3.061
0.003915166741213307,3.062
0.00394091004793644,3.063
0.003966426744517245,3.064
0.003991696828739816,3.065
0.004016697343986072,3.066
0.004041402746112834,3.067
0.004065785314406833,3.068
0.00408981541532931,3.069
0.004113461703139086,3.07
0.004136691433054298,3.071
0.004159471052472153,3.072
0.004181767161977204,3.073
0.004203547807057604,3.074
0.0042247839002204956,3.075
0.004245450429617241,3.076
0.0042655270443415156,3.077
0.004284997659140362,3.078
0.004303848887637448,3.079
0.004322067764696418,3.08
0.004339640376311334,3.081
0.004356552853290456,3.082
0.004372794171297241,3.083
0.004388359034457023,3.084
0.004403249762650233,3.085
0.00441747691154579,3.086
0.00443105870760437,3.087
0.004444019552616445,3.088
0.00445638790472775,3.089
0.004468193803259784,3.09
0.004479466476292882,3.091
0.004490232928487027,3.092
0.004500518146741324,3.093
0.004510346364771155,3.094
0.004519742276375602,3.095
0.0045287316058620734,3.096
0.004537340967372462,3.097
0.004545597134403067,3.098
0.0045535259208892695,3.099
0.004561150928005743,3.1
0.004568492502103289,3.101
0.00457556725288459,3.102
0.004582388116244935,3.103
0.004588964521384055,3.104
0.004595302314640792,3.105
0.0046014035678167585,3.106
0.004607266731914284,3.107
0.004612887451734032,3.108
0.0046182599310959135,3.109
0.004623378540617282,3.11
0.0046282393572626155,3.111
0.0046328412590392306,3.112
0.00463718617155821,3.113
0.00464127821035985,3.114
0.0046451218773808905,3.115
0.004648720273331653,3.116
0.0046520747338475235,3.117
0.004655186250162352,3.118
0.004658057553990511,3.119
0.004660694696859123,3.12
0.004663107748666324,3.121
0.004665310661443533,3.122
0.004667320477070007,3.123
0.004669156139789042,3.124
0.004670837172811492,3.125
0.00467238239972938,3.126
0.004673808783680944,3.127
0.004675130409191198,3.128
0.004676357737364235,3.129
0.004677497357664719,3.13
0.00467855220982496,3.131
0.004679521894797667,3.132
0.004680402730504565,3.133
0.004681187495976749,3.134
0.004681865049919649,3.135
0.004682420121386838,3.136
0.004682833353934431,3.137
0.004683081372548222,3.138
0.004683136825657478,3.139
0.004682968774500887,3.14
0.004682543726729419,3.141
0.004681827188412958,3.142
0.004680785430474277,3.143
0.004679387229395125,3.144
0.004677605384100142,3.145
0.0046754178065248,3.146
0.004672807983710653,3.147
0.004669764642178093,3.148
0.004666280541901377,3.149
0.004662350491112384,3.15
0.004657968994428755,3.151
0.004653128423107033,3.152
0.004647818537666632,3.153
0.004642027227089972,3.154
0.004635741654824183,3.155
0.004628949407144593,3.156
0.0046216397924304636,3.157
0.004613805449539145,3.158
0.0046054441678362165,3.159
0.004596560599859691,3.16
0.004587167461152172,3.161
0.004577285886140807,3.162
0.004566944791412509,3.163
0.00455617929887905,3.164
0.004545028422033265,3.165
0.004533532341121884,3.166
0.004521729964614456,3.167
0.004509657863101484,3.168
0.00449735093552699,3.169
0.004484843823930938,3.17
0.004472172010734955,3.171
0.004459372365259834,3.172
0.004446483320177379,3.173
0.004433544889905542,3.174
0.004420598704013772,3.175
0.004407688135224,3.176
0.004394858484666431,3.177
0.004382157086707761,3.178
0.004369633151999589,3.179
0.004357337201744693,3.18
0.004345320046099779,3.181
0.004333631407795764,3.182
0.004322318595140807,3.183
0.004311425908647057,3.184
0.0043009950402863465,3.185
0.004291065903186058,3.186
0.004281677253528578,3.187
0.004272866940483031,3.188
0.004264671850519781,3.189
0.004257127626790293,3.19
0.004250268237504911,3.191
0.0042441254507349264,3.192
0.004238728256476718,3.193
0.004234102321877366,3.194
0.00423026968121311,3.195
0.004227248800171255,3.196
0.00422505485800162,3.197
0.004223699954276544,3.198
0.004223193092406995,3.199
0.004223539961340296,3.2
0.004224742625712952,3.201
0.004226799263776255,3.202
0.004229704055460954,3.203
0.004233447260462788,3.204
0.004238015450177417,3.205
0.004243391737730904,3.206
0.004249555825506831,3.207
0.004256483957301928,3.208
0.004264149159266011,3.209
0.0042725219269506365,3.21
0.004281570969443743,3.211
0.004291263471560495,3.212
0.00430156469095579,3.213
0.004312437352514393,3.214
0.004323841724284512,3.215
0.00433573669169399,3.216
0.004348081171171478,3.217
0.004360835076350456,3.218
0.004373959520653198,3.219
0.004387416210067141,3.22
0.004401166201258361,3.221
0.00441516884664043,3.222
0.004429382214972199,3.223
0.004443765407545857,3.224
0.004458281766700153,3.225
0.00447290164133429,3.226
0.004487603860507018,3.227
0.004502375504678392,3.228
0.004517209961881096,3.229
0.004532103752710241,3.23
0.004547053393111003,3.231
0.004562054078050948,3.232
0.004577100739024698,3.233
0.004592190082725567,3.234
0.004607322151514414,3.235
0.004622501089340433,3.236
0.004637735308848039,3.237
0.004653037250175262,3.238
0.004668422864891324,3.239
0.0046839108943574626,3.24
0.004699521976463937,3.241
0.0047152776133571155,3.242
0.0047311990375508,3.243
0.004747305993173149,3.244
0.004763615563706611,3.245
0.004780141540647262,3.246
0.004796894836271421,3.247
0.00481388475682908,3.248
0.004831120433179325,3.249
0.004848611840610985,3.25
0.004866370155246037,3.251
0.004884407441169331,3.252
0.0049027358909054615,3.253
0.004921366997026727,3.254
0.004940311027737578,3.255
0.004959577003851651,3.256
0.004979173111670809,3.257
0.0049991072644132006,3.258
0.005019387440688988,3.259
0.005040021497868908,3.26
0.005061016319276405,3.261
0.005082376544473338,3.262
0.005104103792956656,3.263
0.005126197307450522,3.264
0.005148655912723672,3.265
0.005171480440989348,3.266
0.005194675939059383,3.267
0.005218253252818354,3.268
0.005242229658877593,3.269
0.005266628299991583,3.27
0.0052914763443158335,3.271
0.005316802230321524,3.272
0.005342633331109509,3.273
0.005368995755266325,3.274
0.005395916426083162,3.275
0.005423425720708675,3.276
0.005451559039459825,3.277
0.005480356756011379,3.278
0.005509862613312807,3.279
0.005540121067814296,3.28
0.005571174816173025,3.281
0.005603063922751206,3.282
0.005635826586667455,3.283
0.005669500103255694,3.284
0.005704120865396241,3.285
0.0057397233356398175,3.286
0.0057763386384127825,3.287
0.005813993885344193,3.288
0.005852712873050892,3.289
0.005892517538491234,3.29
0.005933429183890632,3.291
0.005975468986436801,3.292
0.00601865763915429,3.293
0.006063014131095077,3.294
0.006108554133709926,3.295
0.006155289069271146,3.296
0.006203226535782867,3.297
0.006252371486957317,3.298
0.006302727246236153,3.299
0.0063542960754593755,3.3
0.006407079371355199,3.301
0.0064610775433148115,3.302
0.0065162895615446985,3.303
0.006572712133485685,3.304
0.0066303385231390385,3.305
0.006689157330928941,3.306
0.0067491519321557615,3.307
0.006810300921177417,3.308
0.006872579021199218,3.309
0.00693595774075794,3.31
0.007000405515177364,3.311
0.007065887354964849,3.312
0.007132364113169152,3.313
0.007199791549386911,3.314
0.007268119472896178,3.315
0.0073372913333503015,3.316
0.00740724437999499,3.317
0.007477910080894636,3.318
0.00754921441882851,3.319
0.007621077847879063,3.32
0.007693414911180772,3.321
0.0077661340000073345,3.322
0.007839137974745804,3.323
0.007912325740902983,3.324
0.00798559410184582,3.325
0.008058839128169135,3.326
0.008131956622391447,3.327
0.008204841607692076,3.328
0.008277387058561,3.329
0.008349482247507907,3.33
0.008421011082202766,3.331
0.008491850871822724,3.332
0.00856187215244397,3.333
0.00863094006144198,3.334
0.008698917288284485,3.335
0.00876566839602216,3.336
0.008831065125209038,3.337
0.008894991811161098,3.338
0.008957349599705068,3.339
0.009018058106465826,3.34
0.009077053566056446,3.341
0.009134283211282714,3.342
0.009189697892191982,3.343
0.009243248475318223,3.344
0.009294889861815328,3.345
0.009344589467284484,3.346
0.009392334638895862,3.347
0.009438136565931194,3.348
0.009482030472034835,3.349
0.009524072632736037,3.35
0.009564335266917759,3.351
0.009602900492398576,3.352
0.009639854306111152,3.353
0.009675281289666816,3.354
0.009709260982557713,3.355
0.009741867018182445,3.356
0.00977316896138013,3.357
0.009803235381408919,3.358
0.009832136826019987,3.359
0.009859948207008007,3.36
0.009886750426713851,3.361
0.009912631115577747,3.362
0.009937684436637555,3.363
0.009962010018517518,3.364
0.009985711183597205,3.365
0.010008892727184178,3.366
0.010031658552653184,3.367
0.010054109445444229,3.368
0.010076341165533813,3.369
0.010098442888800723,3.37
0.01012049595290976,3.371
0.010142573029547321,3.372
0.010164738052997809,3.373
0.010187046996556752,3.374
0.010209549127132483,3.375
0.010232288320607512,3.376
0.01025530426250347,3.377
0.010278633501372987,3.378
0.010302310372517007,3.379
0.010326367817349328,3.38
0.010350838061086979,3.381
0.010375752997889454,3.382
0.010401144037041054,3.383
0.010427041165585535,3.384
0.010453471122737257,3.385
0.010480455031558436,3.386
0.010508006557322364,3.387
0.010536131593981621,3.388
0.010564829170331996,3.389
0.010594092418789315,3.39
0.010623909007101279,3.391
0.01065426118429163,3.392
0.010685125723414004,3.393
0.010716473842699949,3.394
0.010748270979474664,3.395
0.010780476221300513,3.396
0.01081304129354874,3.397
0.01084590935049031,3.398
0.010879014304078543,3.399
0.010912281259033782,3.4
0.010945627789237305,3.401
0.010978965461099378,3.402
0.01101220127760999,3.403
0.011045238823901647,3.404
0.011077978827310538,3.405
0.011110318849943575,3.406
0.011142151916498266,3.407
0.011173364495126842,3.408
0.01120383553567879,3.409
0.011233438260984014,3.41
0.011262044395052498,3.411
0.011289529255175644,3.412
0.011315776585456098,3.413
0.011340682492968842,3.414
0.01136415785316618,3.415
0.011386128472507508,3.416
0.011406532308583153,3.417
0.01142531377850769,3.418
0.011442417996919469,3.419
0.011457790464697483,3.42
0.011471384467645335,3.421
0.011483171848888698,3.422
0.011493151441207288,3.423
0.011501352457492578,3.424
0.011507832402377441,3.425
0.011512670300753902,3.426
0.011515956938749612,3.427
0.011517785005208501,3.428
0.011518243320811854,3.429
0.011517417160723707,3.43
0.011515391809542799,3.431
0.011512255464087653,3.432
0.011508100275392848,3.433
0.011503021959162038,3.434
0.011497118583258666,3.435
0.011490489057037952,3.436
0.011483231692688627,3.437
0.011475443034611553,3.438
0.011467216999629357,3.439
0.011458644259497976,3.44
0.011449811738532704,3.441
0.011440802092431125,3.442
0.011431693055087034,3.443
0.011422556552604447,3.444
0.01141345748049499,3.445
0.01140445230905678,3.446
0.011395588354162404,3.447
0.011386904596257318,3.448
0.011378433876297061,3.449
0.011370205568187559,3.45
0.011362248037542438,3.451
0.01135459047565109,3.452
0.011347263742008156,3.453
0.011340299940524141,3.454
0.011333730712535363,3.455
0.011327584581937448,3.456
0.011321883994975303,3.457
0.011316642932213654,3.458
0.01131186591871267,3.459
0.011307548565804862,3.46
0.01130367908429402,3.461
0.011300240357748813,3.462
0.011297212551837374,3.463
0.011294576164941138,3.464
0.011292315170612209,3.465
0.011290419729956064,3.466
0.011288887855243254,3.467
0.011287725392642594,3.468
0.011286943796229245,3.469
0.011286555868382188,3.47
0.011286571769936641,3.471
0.011286999201919801,3.472
0.01128784899690862,3.473
0.01128914291197657,3.474
0.011290919715815681,3.475
0.011293237654286227,3.476
0.011296172779978747,3.477
0.011299813465569446,3.478
0.011304252713095696,3.479
0.011309581829503566,3.48
0.011315889047731753,3.481
0.011323262710977049,3.482
0.011331795171815118,3.483
0.011341584540781649,3.484
0.01135273387935169,3.485
0.011365348446128968,3.486
0.011379531772592195,3.487
0.011395381701998773,3.488
0.011412988042672267,3.489
0.011432432681971237,3.49
0.01145379104757498,3.491
0.011477133270498529,3.492
0.011502524390896223,3.493
0.01153002361403455,3.494
0.011559682843411025,3.495
0.011591545176255363,3.496
0.011625644386436136,3.497
0.011662005652986515,3.498
0.011700646581262165,3.499
0.01174157750027588,3.5
0.011784800767382494,3.501
0.0118303095874906,3.502
0.011878087502673475,3.503
0.011928109174401168,3.504
0.011980341592951404,3.505
0.012034744450382752,3.506
0.012091269375830209,3.507
0.012149859022060908,3.508
0.012210447572489935,3.509
0.012272963160625214,3.51
0.012337331151431508,3.511
0.012403477005460186,3.512
0.012471327988314247,3.513
0.012540813311410999,3.514
0.012611862504593209,3.515
0.012684402177454781,3.516
0.012758352387676275,3.517
0.012833625181310841,3.518
0.012910126767295832,3.519
0.012987761733242752,3.52
0.013066436870320797,3.521
0.013146063417455773,3.522
0.013226557275407572,3.523
0.013307837087027987,3.524
0.0133898206109635,3.525
0.013472420329973409,3.526
0.013555539630476383,3.527
0.013639070703899634,3.528
0.013722893969839296,3.529
0.013806877891789492,3.53
0.013890879174555231,3.531
0.01397474412682237,3.532
0.014058310854355617,3.533
0.014141411181583382,3.534
0.014223871635828776,3.535
0.014305513310491439,3.536
0.014386150629533955,3.537
0.014465589326437552,3.538
0.014543624819840317,3.539
0.014620042951339644,3.54
0.014694624135730822,3.541
0.014767150159381529,3.542
0.014837412242068896,3.543
0.014905219152800468,3.544
0.014970404031577168,3.545
0.015032828394694374,3.546
0.01509238199040728,3.547
0.015148977728536305,3.548
0.015202541972444,3.549
0.015253003799714773,3.55
0.015300290961542201,3.551
0.0153443367927156,3.552
0.015385093004576628,3.553
0.015422541017393442,3.554
0.01545669873102044,3.555
0.015487622129338706,3.556
0.015515401782591627,3.557
0.015540155012230855,3.558
0.015562015062533548,3.559
0.015581119509933163,3.56
0.015597601723419134,3.561
0.015611588795793744,3.562
0.015623205000756384,3.563
0.015632576339839683,3.564
0.015639833050704818,3.565
0.01564510960197399,3.566
0.015648542678381876,3.567
0.015650267801364394,3.568
0.015650415356208005,3.569
0.01564910691931313,3.57
0.015646452801783485,3.571
0.0156425515105791,3.572
0.015637491348100305,3.573
0.015631353770914878,3.574
0.015624217622468751,3.575
0.015616163083706988,3.576
0.01560727418329528,3.577
0.015597638949879592,3.578
0.015587346716276141,3.579
0.015576483337443237,3.58
0.015565127553170252,3.581
0.0155533522421275,3.582
0.015541230477623054,3.583
0.0155288426594158,3.584
0.015516281399374257,3.585
0.015503652744623795,3.586
0.015491073442041514,3.587
0.015478664718100055,3.588
0.015466544715320647,3.589
0.015454823907056717,3.59
0.015443606142756307,3.591
0.015432992734449874,3.592
0.015423085393548093,3.593
0.01541398649944305,3.594
0.015405797198363536,3.595
0.015398614293880303,3.596
0.01539252683951839,3.597
0.015387613127517085,3.598
0.015383938721421705,3.599
0.015381556083973747,3.6
0.015380505680197288,3.601
0.015380817702180905,3.602
0.015382513543526138,3.603
0.015385606483516645,3.604
0.015390101244021518,3.605
0.01539599249511601,3.606
0.01540326343187842,3.607
0.015411886226313036,3.608
0.015421824904194968,3.609
0.0154330391921948,3.61
0.015445487409285282,3.611
0.015459127125825128,3.612
0.015473912929395725,3.613
0.015489792384202937,3.614
0.01550670410583284,3.615
0.015524580848758315,3.616
0.01554335544099565,3.617
0.015562965624594229,3.618
0.01558335616240658,3.619
0.015604478338530462,3.62
0.01562628754557619,3.621
0.015648739824626858,3.622
0.015671788044010284,3.623
0.0156953780527224,3.624
0.015719445280169594,3.625
0.015743913109362236,3.626
0.01576869416890019,3.627
0.015793693945427865,3.628
0.015818815275235192,3.629
0.01584396289379464,3.63
0.01586904767908795,3.631
0.015893990196973438,3.632
0.01591872305030415,3.633
0.015943191441122793,3.634
0.01596735134031346,3.635
0.015991164814750825,3.636
0.016014593341210453,3.637
0.016037592853911643,3.638
0.01606011481627146,3.639
0.01608211287932243,3.64
0.01610355049166282,3.641
0.016124405796990773,3.642
0.01614467281841471,3.643
0.016164359203223327,3.644
0.016183481208264443,3.645
0.016202056766121048,3.646
0.016220098355439427,3.647
0.016237609007562985,3.648
0.01625458346710839,3.649
0.01627101225905485,3.65
0.01628688502656482,3.651
0.016302191497075354,3.652
0.016316919852448434,3.653
0.016331053029759877,3.654
0.016344565197051127,3.655
0.01635742166100275,3.656
0.016369582775305116,3.657
0.01638100852379296,3.658
0.016391660032041334,3.659
0.01640149692734574,3.66
0.01641047359682877,3.661
0.016418540099398433,3.662
0.016425649792093454,3.663
0.01643176921900463,3.664
0.016436884689033714,3.665
0.016441002951149947,3.666
0.016444145621973737,3.667
0.01644633958149983,3.668
0.016447609623516393,3.669
0.016447979429401887,3.67
0.01644747957492063,3.671
0.01644615587356631,3.672
0.016444073363703546,3.673
0.01644131502716657,3.674
0.016437976108340174,3.675
0.016434155654675073,3.676
0.016429947919034987,3.677
0.016425437239386723,3.678
0.016420697901185825,3.679
0.016415796253326894,3.68
0.016410791668827855,3.681
0.016405735505721587,3.682
0.016400668889708234,3.683
0.016395620532804894,3.684
0.016390605810281844,3.685
0.016385627946577552,3.686
0.01638068142241391,3.687
0.016375756828494993,3.688
0.016370845715143224,3.689
0.016365943816074265,3.69
0.016361051419762247,3.691
0.016356170443036055,3.692
0.01635129918460347,3.693
0.01634642795364355,3.694
0.01634153915092888,3.695
0.016336611892061256,3.696
0.01633162794544887,3.697
0.016326576185629302,3.698
0.016321454488530125,3.699
0.01631626876151809,3.7
0.01631102926043005,3.701
0.01630574498001876,3.702
0.016300417647189674,3.703
0.016295037282027712,3.704
0.016289580180594305,3.705
0.016284008366117823,3.706
0.016278269797685603,3.707
0.016272299508928174,3.708
0.01626602077942932,3.709
0.01625934517266194,3.71
0.016252172902425446,3.711
0.016244396372595456,3.712
0.016235907167608424,3.713
0.016226604113855122,3.714
0.01621640007490938,3.715
0.016205226114623744,3.716
0.016193032239507733,3.717
0.016179784381864265,3.718
0.016165457806477067,3.719
0.01615002860331234,3.72
0.016133467666892422,3.721
0.016115741438171002,3.722
0.01609681855748717,3.723
0.016076677803745932,3.724
0.016055314042644413,3.725
0.016032741275576197,3.726
0.016008992678469395,3.727
0.015984117716956774,3.728
0.015958176704997547,3.729
0.015931233529604013,3.73
0.01590334811900767,3.731
0.015874571522188973,3.732
0.015844945651552894,3.733
0.0158145063529044,3.734
0.015783286837188347,3.735
0.01575131997578393,3.736
0.015718639446007033,3.737
0.015685280018824514,3.738
0.015651277182057943,3.739
0.015616666163802697,3.74
0.015581480324322529,3.741
0.015545748864182545,3.742
0.015509493864371738,3.743
0.015472727190748365,3.744
0.015435448725470396,3.745
0.015397647026914272,3.746
0.015359301632734928,3.747
0.015320385435558217,3.748
0.01528086642432733,3.749
0.015240708853803667,3.75
0.015199874128479087,3.751
0.015158321691496293,3.752
0.01511601000281133,3.753
0.015072897287866063,3.754
0.015028941317882679,3.755
0.01498409730973978,3.756
0.014938314361478607,3.757
0.01489153386109246,3.758
0.014843693312568549,3.759
0.014794734435112753,3.76
0.014744611593662386,3.761
0.014693297824096339,3.762
0.014640787248692444,3.763
0.014587093428405173,3.764
0.014532243855666569,3.765
0.014476271683991166,3.766
0.014419207868522105,3.767
0.014361078629573762,3.768
0.014301909959483473,3.769
0.014241735219509642,3.77
0.014180601140280216,3.771
0.014118570440852265,3.772
0.014055720963473422,3.773
0.013992141831588945,3.774
0.01392792765607438,3.775
0.013863172090450468,3.776
0.013797962108136077,3.777
0.013732374143269069,3.778
0.013666472400362758,3.779
0.013600308904967197,3.78
0.013533924997051272,3.781
0.013467353969527378,3.782
0.013400623892047122,3.783
0.013333759290674855,3.784
0.01326678065695018,3.785
0.013199702125412648,3.786
0.013132529948166001,3.787
0.013065264339308538,3.788
0.0129979039054197,3.789
0.012930449904596438,3.79
0.012862908723714206,3.791
0.012795292436714456,3.792
0.01272761796957778,3.793
0.012659905685906794,3.794
0.012592178199189546,3.795
0.012524459885847095,3.796
0.012456777028547248,3.797
0.012389158024908207,3.798
0.012321632921773011,3.799
0.012254231748848333,3.8
0.012186981551672547,3.801
0.0121199029560487,3.802
0.012053008366739969,3.803
0.011986303223489155,3.804
0.011919789153737587,3.805
0.011853467040701412,3.806
0.01178733926125985,3.807
0.011721411200102247,3.808
0.01165569230187969,3.809
0.011590196917211136,3.81
0.011524945064304737,3.811
0.01145996295439009,3.812
0.011395282788968895,3.813
0.011330941140404104,3.814
0.011266975433397412,3.815
0.011203419541887381,3.816
0.011140301674947884,3.817
0.011077646314645943,3.818
0.011015477483205959,3.819
0.010953819535006133,3.82
0.01089269490111634,3.821
0.010832121816813879,3.822
0.010772115349453285,3.823
0.010712691121947188,3.824
0.010653868036998927,3.825
0.010595667394543075,3.826
0.010538109168352957,3.827
0.010481209470940432,3.828
0.010424982402723194,3.829
0.01036944465120608,3.83
0.010314619240139438,3.831
0.010260536982278945,3.832
0.010207236007133075,3.833
0.010154760115503023,3.834
0.010103156614583575,3.835
0.010052474059091114,3.836
0.010002760144007816,3.837
0.009954059927923737,3.838
0.009906414542597278,3.839
0.009859860429804742,3.84
0.009814428871980137,3.841
0.009770145309943488,3.842
0.009727028481484887,3.843
0.009685090829646859,3.844
0.00964434153102631,3.845
0.009604791333438285,3.846
0.009566457248302032,3.847
0.009529365812694757,3.848
0.009493554423115216,3.849
0.009459070692369764,3.85
0.009425970050233965,3.851
0.00939431189554782,3.852
0.009364155079727387,3.853
0.009335554721183099,3.854
0.009308562375771852,3.855
0.009283229074724845,3.856
0.009259608661346954,3.857
0.009237759446631447,3.858
0.00921774366204702,3.859
0.00919962503732276,3.86
0.009183465318252077,3.861
0.009169320959549252,3.862
0.00915724125995349,3.863
0.009147268139221844,3.864
0.009139436536525632,3.865
0.009133774691763923,3.866
0.009130304483477587,3.867
0.009129042123918182,3.868
0.009129999155744325,3.869
0.009133183388788978,3.87
0.009138599265563936,3.871
0.009146247183620336,3.872
0.009156122046441931,3.873
0.009168212737198457,3.874
0.009182503979956083,3.875
0.009198979714079082,3.876
0.009217625924671574,3.877
0.00923843161813737,3.878
0.009261387488187037,3.879
0.009286482838623607,3.88
0.009313702887043068,3.881
0.00934302856169867,3.882
0.009374438230921416,3.883
0.009407908811708063,3.884
0.009443414727201591,3.885
0.009480925499641938,3.886
0.009520404063584145,3.887
0.00956180650595982,3.888
0.00960508210434296,3.889
0.009650174010372499,3.89
0.009697022290352634,3.891
0.009745568797112707,3.892
0.009795761389276075,3.893
0.009847555503837764,3.894
0.009900912197075054,3.895
0.009955793570729106,3.896
0.010012159054819404,3.897
0.010069965625499354,3.898
0.010129170784181178,3.899
0.01018973478909709,3.9
0.010251620499345264,3.901
0.010314791445680491,3.902
0.010379209412272437,3.903
0.010444832576699974,3.904
0.01051161469004885,3.905
0.010579505224009328,3.906
0.010648450075357498,3.907
0.01071839230349066,3.908
0.010789272401674458,3.909
0.010861027726042837,3.91
0.010933590935075465,3.911
0.011006887854971456,3.912
0.011080835943406706,3.913
0.01115534419955634,3.914
0.011230313936305233,3.915
0.011305639368849688,3.916
0.01138120782056728,3.917
0.011456899944086288,3.918
0.01153259024348333,3.919
0.011608147862458949,3.92
0.011683437460942303,3.921
0.011758320151272211,3.922
0.011832654714988337,3.923
0.011906299364759175,3.924
0.011979114014348998,3.925
0.012050962515770557,3.926
0.012121713921703232,3.927
0.01219124177303903,3.928
0.01225942083895523,3.929
0.012326122711240454,3.93
0.012391214525509172,3.931
0.012454563662734543,3.932
0.01251604580564392,3.933
0.01257555179360362,3.934
0.012632990980062344,3.935
0.012688290680189573,3.936
0.01274139219562461,3.937
0.012792244426954853,3.938
0.012840796702105093,3.939
0.012886993846334642,3.94
0.012930776522890057,3.941
0.012972086530004851,3.942
0.013010873680867228,3.943
0.013047101303603204,3.944
0.013080749055559662,3.945
0.013111812627932075,3.946
0.013140300449075428,3.947
0.013166227988588897,3.948
0.01318961092755115,3.949
0.013210459687163308,3.95
0.013228778058881032,3.951
0.013244566018197769,3.952
0.013257823942805119,3.953
0.01326855583018917,3.954
0.013276770920826105,3.955
0.013282483968094755,3.956
0.013285714633878867,3.957
0.013286486637293019,3.958
0.01328482725589548,3.959
0.013280767550127118,3.96
0.013274343278850593,3.961
0.013265595925851194,3.962
0.013254572652987897,3.963
0.01324132362873548,3.964
0.013225897258580905,3.965
0.013208338569639521,3.966
0.013188695419707387,3.967
0.01316702965054014,3.968
0.013143426791592755,3.969
0.013118000835792768,3.97
0.013090893409087532,3.971
0.013062267987756268,3.972
0.01303230070042165,3.973
0.013001170360593369,3.974
0.012969051833792763,3.975
0.012936115444322802,3.976
0.012902530446324108,3.977
0.01286846844559059,3.978
0.01283410468088876,3.979
0.012799617076066923,3.98
0.012765183478643609,3.981
0.012730977754940993,3.982
0.012697166096400422,3.983
0.012663905108082673,3.984
0.012631341563006411,3.985
0.01259961237089125,3.986
0.01256884513590308,3.987
0.012539160932599124,3.988
0.012510678755605829,3.989
0.01248351935674945,3.99
0.012457806772642483,3.991
0.012433666906801184,3.992
0.01241122377234194,3.993
0.012390595906143451,3.994
0.012371895987063154,3.995
0.012355233843692252,3.996
0.0123407200204227,3.997
0.012328467489063114,3.998
0.01231859109347682,3.999
0.012311205379013137,4.0
0.01230642169799987,4.001
0.012304345343144486,4.002
0.012305073130598825,4.003
0.01230869173237081,4.004
0.012315277155277266,4.005
0.012324895458415771,4.006
0.012337604213208052,4.007
0.012353454172015004,4.008
0.012372490924251708,4.009
0.012394756360541038,4.01
0.012420289629305045,4.011
0.012449127225868923,4.012
0.012481302003583706,4.013
0.012516841221365316,4.014
0.012555764120127568,4.015
0.012598079773343852,4.016
0.012643785840934254,4.017
0.012692868445858688,4.018
0.012745303106786782,4.019
0.012801056413601112,4.02
0.012860087698598154,4.021
0.01292234976033772,4.022
0.012987788112157991,4.023
0.013056339473765067,4.024
0.013127931568742746,4.025
0.013202485445064483,4.026
0.01327991906141165,4.027
0.013360150223415603,4.028
0.01344309815630438,4.029
0.013528683946376225,4.03
0.013616830456933827,4.031
0.013707462393003243,4.032
0.013800506927548367,4.033
0.01389589479039782,4.034
0.01399356114394146,4.035
0.014093445196265169,4.036
0.014195487564790756,4.037
0.014299625791098463,4.038
0.014405791259129866,4.039
0.014513911089134685,4.04
0.014623914311039118,4.041
0.01473573827703062,4.042
0.014849332171581589,4.043
0.014964656561319853,4.044
0.015081679264327753,4.045
0.015200368795755814,4.046
0.015320687519481522,4.047
0.015442586831688964,4.048
0.015566005181521942,4.049
0.01569086821759443,4.05
0.015817090926139605,4.051
0.015944581861030576,4.052
0.016073248096618312,4.053
0.016202998796447203,4.054
0.016333745945695984,4.055
0.016465401769671085,4.056
0.016597873789531217,4.057
0.016731060439827975,4.058
0.01686485023847231,4.059
0.016999124280586145,4.06
0.017133759358911965,4.061
0.017268630186150782,4.062
0.017403611207478863,4.063
0.017538578933474804,4.064
0.01767341510691019,4.065
0.017808010139073505,4.066
0.01794226556185753,4.067
0.018076094101859834,4.068
0.018209416513221176,4.069
0.018342155318670676,4.07
0.018474227262013282,4.071
0.01860553799257215,4.072
0.018735981239502895,4.073
0.01886544071443391,4.074
0.018993791579299226,4.075
0.01912090043003782,4.076
0.019246624515297312,4.077
0.01937081120607296,4.078
0.01949329851472616,4.079
0.019613917129622828,4.08
0.019732494061793244,4.081
0.019848857593486625,4.082
0.01996284273123777,4.083
0.020074295863150307,4.084
0.02018307709091371,4.085
0.020289059076477794,4.086
0.020392122179558936,4.087
0.020492146675576955,4.088
0.020589004496390808,4.089
0.02068255504441981,4.09
0.02077264793259383,4.091
0.020859130398444836,4.092
0.020941855694072396,4.093
0.021020690926159893,4.094
0.021095523800353223,4.095
0.021166267431289243,4.096
0.021232862166808676,4.097
0.021295273482184067,4.098
0.021353485547768915,4.099
0.021407490961060906,4.1
0.021457279298240952,4.101
0.02150283015694987,4.102
0.021544114516191277,4.103
0.02158110142732072,4.104
0.021613764602544227,4.105
0.021642086722544515,4.106
0.021666061833078416,4.107
0.021685696636260157,4.108
0.02170101127937715,4.109
0.021712039808047708,4.11
0.021718829955889734,4.111
0.021721441593656503,4.112
0.0217199431103912,4.113
0.021714405286100327,4.114
0.021704893576582243,4.115
0.02169146255890189,4.116
0.02167415689092874,4.117
0.021653018831328485,4.118
0.021628098456231742,4.119
0.02159946326883167,4.12
0.0215672054417721,4.121
0.021531444954548687,4.122
0.021492326808512433,4.123
0.021450011486926265,4.124
0.021404661768501376,4.125
0.021356434671973235,4.126
0.02130548455873605,4.127
0.02125197240001577,4.128
0.021196072633463653,4.129
0.021137974585637233,4.13
0.02107787954382015,4.131
0.021015995220927803,4.132
0.020952528907423412,4.133
0.02088768048323981,4.134
0.020821637900372517,4.135
0.020754578311494007,4.136
0.02068667471902548,4.137
0.020618104331716246,4.138
0.020549054891514495,4.139
0.020479727164015728,4.14
0.020410333122479942,4.141
0.020341090291068446,4.142
0.02027221371281063,4.143
0.02020390852970268,4.144
0.02013636686558666,4.145
0.02006976968370984,4.146
0.02000429028765063,4.147
0.019940096541175848,4.148
0.019877351733514115,4.149
0.0198162151494916,4.15
0.0197568430319624,4.151
0.0196993898947597,4.152
0.01964400948877919,4.153
0.019590854505039883,4.154
0.01954007441281791,4.155
0.019491811495218357,4.156
0.019446196203056647,4.157
0.019403343962780546,4.158
0.019363354626102617,4.159
0.019326313258183604,4.16
0.01929229044037159,4.161
0.019261341915584273,4.162
0.01923350851880981,4.163
0.019208817237139356,4.164
0.019187283653339236,4.165
0.019168915392445276,4.166
0.019153715765136872,4.167
0.019141686689773802,4.168
0.019132830147244137,4.169
0.01912714776131948,4.17
0.019124638448544874,4.171
0.0191252943371091,4.172
0.019129096155613014,4.173
0.019136011062194237,4.174
0.01914599489742307,4.175
0.019158996975955963,4.176
0.019174964227478834,4.177
0.019193843267934985,4.178
0.019215580351881197,4.179
0.01924011969370535,4.18
0.019267400956686685,4.181
0.019297356747250183,4.182
0.019329910780622815,4.183
0.019364977124916506,4.184
0.019402460655247224,4.185
0.019442258519982717,4.186
0.019484261942347647,4.187
0.019528357073098458,4.188
0.0195744234641033,4.189
0.019622331117841493,4.19
0.019671941113421715,4.191
0.01972311336880606,4.192
0.01977571815183824,4.193
0.019829645233267933,4.194
0.019884807406369484,4.195
0.019941137864322566,4.196
0.01999858250240298,4.197
0.02005708934764822,4.198
0.020116598553948987,4.199
0.02017703684896519,4.2
0.020238316891231043,4.201
0.020300337640143995,4.202
0.020362983592281413,4.203
0.020426125400823343,4.204
0.02048962368816547,4.205
0.02055333345476555,4.206
0.020617104953713168,4.207
0.02068078067592513,4.208
0.02074419492587381,4.209
0.020807183005090685,4.21
0.020869598325168527,4.211
0.02093132993381151,4.212
0.020992314569634844,4.213
0.021052540099151692,4.214
0.02111203919034113,4.215
0.021170874256990064,4.216
0.021229118707461952,4.217
0.02128684484434225,4.218
0.021344125843289003,4.219
0.0214010473018739,4.22
0.021457718682623146,4.221
0.021514279962470295,4.222
0.02157090326889829,4.223
0.021627790304830682,4.224
0.02168516647550736,4.225
0.021743272584497965,4.226
0.021802354859360017,4.227
0.021862654821631765,4.228
0.021924402455108932,4.229
0.02198781562880371,4.23
0.022053104090912663,4.231
0.02212047334742611,4.232
0.022190125602884737,4.233
0.022262257810910575,4.234
0.022337058156379156,4.235
0.022414702463016748,4.236
0.022495351569540665,4.237
0.022579149957803107,4.238
0.022666225277492378,4.239
0.022756688158345667,4.24
0.022850631827097363,4.241
0.022948131353816938,4.242
0.023049242603859033,4.243
0.02315400110326451,4.244
0.023262421222065503,4.245
0.023374496232252878,4.246
0.02349019938597698,4.247
0.023609485384154485,4.248
0.02373229125550868,4.249
0.0238585359294447,4.25
0.02398811896852337,4.251
0.024120920565179775,4.252
0.02425680431008307,4.253
0.02439562148953536,4.254
0.024537214545984173,4.255
0.024681418297677244,4.256
0.024828058475859463,4.257
0.02497694789190342,4.258
0.025127881968110066,4.259
0.025280636750139175,4.26
0.025434970970533696,4.261
0.025590630281945092,4.262
0.025747351122604276,4.263
0.025904863286292882,4.264
0.026062891014600312,4.265
0.026221152378550504,4.266
0.026379356635918342,4.267
0.026537199776685064,4.268
0.026694360621130567,4.269
0.026850501423817997,4.27
0.027005274056535262,4.271
0.02715832833593263,4.272
0.027309318639373227,4.273
0.02745790732099135,4.274
0.02760376495421308,4.275
0.02774656776468054,4.276
0.027885992320734052,4.277
0.028021707988158694,4.278
0.028153371000748603,4.279
0.028280626809985724,4.28
0.028403123063967507,4.281
0.02852052833348701,4.282
0.02863255040497161,4.283
0.028738950673533614,4.284
0.0288395527869853,4.285
0.02893424438717445,4.286
0.029022971537901378,4.287
0.0291057261801482,4.288
0.029182527657510237,4.289
0.029253402233035852,4.29
0.029318370301302465,4.291
0.0293774499306875,4.292
0.029430673642557397,4.293
0.029478107934051954,4.294
0.0295198686086997,4.295
0.029556130005466922,4.296
0.029587128269299313,4.297
0.02961315968218503,4.298
0.02963457535210828,4.299
0.02965177324828338,4.3
0.029665188108205294,4.301
0.0296752796263076,4.302
0.029682519684342212,4.303
0.029687379801268437,4.304
0.029690319951662075,4.305
