VaMe,time
-0.003304087215322406,0.001
-0.0029564377605698086,0.002
-0.002608884433991466,0.003
-0.0022617427313750557,0.004
-0.0019153126589054003,0.005
-0.0015698739403981353,0.006
-0.0012256825938593387,0.007
-0.0008829690690696243,0.008
-0.0005419379878519296,0.009
-0.00020276941645515844,0.01
0.00013437848483965298,0.011
0.0004693656857035057,0.012
0.0008020657690674236,0.013
0.0011323611963287767,0.014
0.0014601390221074344,0.015
0.001785287876079878,0.016
0.002107696732828409,0.017
0.0024272550662171734,0.018
0.002743853437648883,0.019
0.0030573839564255797,0.02
0.0033677405368866963,0.021
0.0036748189522256844,0.022
0.003978516638092021,0.023
0.004278732196196442,0.024
0.00457536455911238,0.025
0.004868311816392457,0.026
0.005157469815323103,0.027
0.005442730828164322,0.028
0.005723982720837019,0.029
0.006001109057039209,0.03
0.006273990397853838,0.031
0.0065425067480148315,0.032
0.0068065407074891175,0.033
0.007065980468437627,0.034
0.007320721455947734,0.035
0.007570665329991043,0.036
0.00781571656219418,0.037
0.008055780233139987,0.038
0.008290764988763067,0.039
0.008520589864246546,0.04
0.00874518995643907,0.041
0.008964517491541847,0.042
0.009178537772497223,0.043
0.0093872219765895,0.044
0.009590541140310112,0.045
0.009788464999301076,0.046
0.009980964734214604,0.047
0.010168015834191472,0.048
0.010349599059633067,0.049
0.01052569992614392,0.05
0.010696307836764452,0.051
0.01086141583827056,0.052
0.011021021627001085,0.053
0.011175129902648882,0.054
0.01132375543899724,0.055
0.011466925427179099,0.056
0.011604679140667038,0.057
0.011737063622835846,0.058
0.011864127576866257,0.059
0.011985919719853435,0.06
0.012102494984639955,0.061
0.012213924193705997,0.062
0.012320301169416792,0.063
0.012421745219424645,0.064
0.012518399574734974,0.065
0.0126104270651573,0.066
0.012698004369359623,0.067
0.012781315750973998,0.068
0.012860546653750386,0.069
0.012935877935501326,0.07
0.013007482966323803,0.071
0.013075529097888073,0.072
0.0131401817701187,0.073
0.01320160841617871,0.074
0.013259980840109445,0.075
0.01331547574471696,0.076
0.013368273274160888,0.077
0.013418553685291983,0.078
0.013466492903961064,0.079
0.013512258735034576,0.08
0.01355600942910647,0.081
0.013597894186428901,0.082
0.013638053439965773,0.083
0.013676617933017205,0.084
0.01371370809451033,0.085
0.01374943549837988,0.086
0.013783906044406618,0.087
0.013817223125598275,0.088
0.013849489579664203,0.089
0.013880808122925591,0.09
0.013911280560106517,0.091
0.013941006417425308,0.092
0.013970081634686953,0.093
0.013998597568100969,0.094
0.014026640007096677,0.095
0.014054287571440161,0.096
0.014081609712677965,0.097
0.014108666419277154,0.098
0.01413551133482159,0.099
0.014162196979111733,0.1
0.014188779506796976,0.101
0.01421532164321903,0.102
0.014241893516566712,0.103
0.014268571613599375,0.104
0.014295436397225404,0.105
0.014322569190416747,0.106
0.014350048796561876,0.107
0.014377948093851952,0.108
0.014406330913199178,0.109
0.01443525014205238,0.11
0.014464748086504688,0.111
0.014494858914987249,0.112
0.014525612058380603,0.113
0.014557035722739097,0.114
0.014589160076802322,0.115
0.014622019570245073,0.116
0.014655653621136296,0.117
0.014690104920560455,0.118
0.014725415265782157,0.119
0.01476162101297851,0.12
0.014798752207461028,0.121
0.014836836895407766,0.122
0.0148759071850626,0.123
0.014916002906475878,0.124
0.01495717141044655,0.125
0.014999463919919659,0.126
0.015042929772191679,0.127
0.015087611064929804,0.128
0.015133540708561058,0.129
0.015180744590780367,0.13
0.015229245440669262,0.131
0.015279065897056542,0.132
0.015330229911668988,0.133
0.015382762254275506,0.134
0.01543668593647658,0.135
0.015492018161916974,0.136
0.015548767183082877,0.137
0.01560693253933521,0.138
0.015666507905336243,0.139
0.01572748315633455,0.14
0.01578984329621087,0.141
0.015853565192984326,0.142
0.01591861595664045,0.143
0.015984955275188388,0.144
0.01605253924843474,0.145
0.0161213220484214,0.146
0.01619125420865775,0.147
0.01626227877674053,0.148
0.01633432847895631,0.149
0.016407326344915898,0.15
0.016481188533134565,0.151
0.01655582625736184,0.152
0.016631145204212598,0.153
0.01670704278776755,0.154
0.016783405059060355,0.155
0.016860105425825573,0.156
0.016937005349818075,0.157
0.017013955060771167,0.158
0.01709079284470077,0.159
0.01716734353020569,0.16
0.01724341801781034,0.161
0.017318814856325557,0.162
0.01739332301982032,0.163
0.01746672454057322,0.164
0.017538796299740086,0.165
0.017609310616629972,0.166
0.017678034368256282,0.167
0.017744726561629252,0.168
0.017809135091023283,0.169
0.017870994911265554,0.17
0.017930029682889436,0.171
0.017985956442075766,0.172
0.018038491458688015,0.173
0.018087356116752645,0.174
0.01813228207398192,0.175
0.018173014509745077,0.176
0.018209311759052625,0.177
0.018240939844562397,0.178
0.018267664078580235,0.179
0.018289245989031064,0.18
0.01830545142683192,0.181
0.018316064894578078,0.182
0.018320901523276024,0.183
0.018319812899396302,0.184
0.018312686369600754,0.185
0.018299438475440896,0.186
0.01828000367212878,0.187
0.018254321376386506,0.188
0.01822232851134941,0.189
0.01818396386301774,0.19
0.018139182046571525,0.191
0.018087969538635493,0.192
0.01803035724327339,0.193
0.017966426801516163,0.194
0.017896309117884774,0.195
0.017820174968199647,0.196
0.017738219149429784,0.197
0.017650643274008077,0.198
0.01755764705846087,0.199
0.017459433322821172,0.2
0.017356219761346568,0.201
0.01724824809414173,0.202
0.01713578766910669,0.203
0.017019134228236893,0.204
0.016898605119539854,0.205
0.016774532413383808,0.206
0.016647255255535495,0.207
0.01651711250968872,0.208
0.016384436423987753,0.209
0.016249547925601716,0.21
0.01611275412788659,0.211
0.015974347942915544,0.212
0.015834608713259913,0.213
0.015693802958600504,0.214
0.015552185215380269,0.215
0.015409999242173018,0.216
0.015267479668017427,0.217
0.015124853951522566,0.218
0.01498234439811765,0.219
0.014840169945263014,0.22
0.01469854744092451,0.221
0.014557692189198486,0.222
0.014417817616505995,0.223
0.014279134026687854,0.224
0.01414184655819822,0.225
0.014006152606218498,0.226
0.013872239311014816,0.227
0.013740282141309824,0.228
0.013610445096249556,0.229
0.013482881782657392,0.23
0.013357736334182885,0.231
0.013235143810085512,0.232
0.013115230100539773,0.233
0.012998111387507127,0.234
0.01288389330420076,0.235
0.012772670262016297,0.236
0.01266452557549304,0.237
0.01255953251027478,0.238
0.012457755762939027,0.239
0.012359252904305092,0.24
0.012264075610788648,0.241
0.012172270543768744,0.242
0.012083879597690162,0.243
0.011998939137720753,0.244
0.011917478374461452,0.245
0.011839518407733712,0.246
0.011765073700574577,0.247
0.011694155683818746,0.248
0.011626776539383049,0.249
0.011562951622001353,0.25
0.011502699998650747,0.251
0.011446043262115176,0.252
0.011393003206584436,0.253
0.011343599107465234,0.254
0.011297845178690187,0.255
0.0112557484169977,0.256
0.011217306960697707,0.257
0.011182509500247313,0.258
0.011151336167238396,0.259
0.011123760361900712,0.26
0.011099750501782907,0.261
0.011079271006762313,0.262
0.011062282205556568,0.263
0.01104873914205556,0.264
0.011038589733114315,0.265
0.011031773298329875,0.266
0.011028220282908048,0.267
0.011027852795272644,0.268
0.011030584848332522,0.269
0.01103632190355686,0.27
0.011044960661345084,0.271
0.011056390347894548,0.272
0.01107049555975776,0.273
0.011087159652842484,0.274
0.011106267578416306,0.275
0.011127707232351238,0.276
0.01115136851427133,0.277
0.0111771402253317,0.278
0.011204907178424385,0.279
0.011234550778813458,0.28
0.011265953187247362,0.281
0.011299001576969987,0.282
0.011333589123122514,0.283
0.011369612015058338,0.284
0.011406965449463935,0.285
0.011445543779977186,0.286
0.011485246328213378,0.287
0.011525984299217347,0.288
0.011567683510698954,0.289
0.011610281058624982,0.29
0.011653718049824959,0.291
0.011697934400161267,0.292
0.01174287038313254,0.293
0.011788472759632398,0.294
0.011834700278189222,0.295
0.011881526151823482,0.296
0.011928937690156622,0.297
0.011976933870378357,0.298
0.012025521649454581,0.299
0.012074711700116893,0.3
0.012124514067214017,0.301
0.012174934073121675,0.302
0.01222596904352644,0.303
0.012277606949798412,0.304
0.012329827462287096,0.305
0.0123826044455572,0.306
0.012435908723423181,0.307
0.012489710734816637,0.308
0.012543983017149984,0.309
0.012598702377143578,0.31
0.012653851524870342,0.311
0.012709419870084513,0.312
0.012765403155870601,0.313
0.012821801695773571,0.314
0.012878617215263613,0.315
0.012935848611163852,0.316
0.01299348770916743,0.317
0.013051517085763938,0.318
0.013109911024466311,0.319
0.013168638152056886,0.32
0.01322766385270592,0.321
0.013286951868444566,0.322
0.013346465059129363,0.323
0.013406165204713702,0.324
0.013466011714999731,0.325
0.01352595928207047,0.326
0.013585954893447036,0.327
0.013645935030197013,0.328
0.013705824006472946,0.329
0.013765534207100106,0.33
0.013824968478019563,0.331
0.013884024111311143,0.332
0.013942597058725588,0.333
0.01400058465237307,0.334
0.014057885389402105,0.335
0.014114395709924872,0.336
0.014170006492225358,0.337
0.014224603431049348,0.338
0.014278072344658848,0.339
0.014330306385695022,0.34
0.014381212083038443,0.341
0.01443071312114162,0.342
0.01447875162164632,0.343
0.014525286829906245,0.344
0.014570291300526816,0.345
0.014613744913719879,0.346
0.014655627738314966,0.347
0.014695914507716892,0.348
0.014734574236457609,0.349
0.014771575440226434,0.35
0.014806893642995488,0.351
0.014840517834270298,0.352
0.014872454467649848,0.353
0.01490272861958487,0.354
0.014931382369139087,0.355
0.014958470846648149,0.356
0.014984056654816374,0.357
0.015008203508617061,0.358
0.015030970039978678,0.359
0.01505240487555158,0.36
0.01507254387614948,0.361
0.015091409259621817,0.362
0.015109009521955995,0.363
0.015125339598414972,0.364
0.015140381080654285,0.365
0.015154102531255239,0.366
0.015166460848564335,0.367
0.015177404597105404,0.368
0.015186878873766576,0.369
0.01519483058390301,0.37
0.015201213255995695,0.371
0.015205990790773205,0.372
0.015209139662429344,0.373
0.01521064919662965,0.374
0.015210519654799921,0.375
0.015208757992616466,0.376
0.015205371714521897,0.377
0.01520036316124986,0.378
0.015193728267785206,0.379
0.0151854611606494,0.38
0.015175561070196625,0.381
0.015164037277747473,0.382
0.015150910241737897,0.383
0.015136208659602827,0.384
0.01511996327875225,0.385
0.015102200312549642,0.386
0.01508293874696897,0.387
0.015062192723745897,0.388
0.015039975221687539,0.389
0.015016299153984823,0.39
0.014991175225717085,0.391
0.014964607921287086,0.392
0.01493659189748564,0.393
0.014907110736226302,0.394
0.014876137925295536,0.395
0.014843638470843237,0.396
0.014809570325794538,0.397
0.014773885976227401,0.398
0.014736534554701142,0.399
0.014697464274399845,0.4
0.014656624448410557,0.401
0.014613966128891487,0.402
0.014569440566568696,0.403
0.014522995627915874,0.404
0.014474572537223673,0.405
0.01442410674067019,0.406
0.01437153415498579,0.407
0.014316800087782309,0.408
0.01425986722104835,0.409
0.01420072011123607,0.41
0.014139364380147759,0.411
0.014075819755779227,0.412
0.014010109911303555,0.413
0.013942257361764472,0.414
0.013872288621274638,0.415
0.013800244383939881,0.416
0.013726186782769266,0.417
0.013650201040371925,0.418
0.01357239218149681,0.419
0.013492878232508514,0.42
0.013411781637680023,0.421
0.01332922136319783,0.422
0.01324530902937972,0.423
0.013160150195958812,0.424
0.013073847868282628,0.425
0.012986504975380557,0.426
0.012898225029542942,0.427
0.012809111392681871,0.428
0.012719265699738922,0.429
0.012628785986093481,0.43
0.012537764954804633,0.431
0.012446288667888543,0.432
0.012354435810394105,0.433
0.012262277582352916,0.434
0.012169878222099898,0.435
0.01207729612772552,0.436
0.01198458546654062,0.437
0.011891797992399656,0.438
0.011798984529122139,0.439
0.011706195323481449,0.44
0.01161347850681755,0.441
0.011520877426073361,0.442
0.011428430209614976,0.443
0.011336174015984702,0.444
0.011244151795382438,0.445
0.01115241751988915,0.446
0.011061037631198716,0.447
0.010970088245762132,0.448
0.010879649255082382,0.449
0.010789798639683868,0.45
0.010700610702450217,0.451
0.010612158354074162,0.452
0.010524516041251973,0.453
0.010437760715608075,0.454
0.010351970735330292,0.455
0.010267223517631182,0.456
0.010183592662188951,0.457
0.0101011452949055,0.458
0.010019940654865568,0.459
0.009940030442895955,0.46
0.009861460182184825,0.461
0.009784270503494752,0.462
0.00970849792881695,0.463
0.009634175185254027,0.464
0.009561331196756985,0.465
0.009489990945810179,0.466
0.0094201753895064,0.467
0.009351901561440551,0.468
0.009285182901899822,0.469
0.009220029731955723,0.47
0.009156449632976441,0.471
0.009094447358400743,0.472
0.009034023866449624,0.473
0.008975174739254979,0.474
0.008917889656943335,0.475
0.008862154321794876,0.476
0.008807953888078233,0.477
0.008755275937729979,0.478
0.008704111978194458,0.479
0.008654457314602996,0.48
0.008606309609016176,0.481
0.008559666763154653,0.482
0.008514524857348759,0.483
0.008470876754411888,0.484
0.008428711713840725,0.485
0.008388016028123484,0.486
0.008348774320527844,0.487
0.008310970801079402,0.488
0.00827458962024414,0.489
0.008239613680942549,0.49
0.008206022491973936,0.491
0.00817379142109694,0.492
0.00814289404359173,0.493
0.008113306316687122,0.494
0.008085010317862008,0.495
0.008057996508941194,0.496
0.008032264296833179,0.497
0.008007820891926136,0.498
0.007984678703771798,0.499
0.007962851739013586,0.5
0.007942351862878397,0.501
0.007923186309332473,0.502
0.007905357330045968,0.503
0.007888863227789714,0.504
0.007873699263224268,0.505
0.007859857634934518,0.506
0.007847326530699654,0.507
0.00783608887862694,0.508
0.007826121960052628,0.509
0.007817398408202923,0.51
0.007809887674408232,0.511
0.007803556680857434,0.512
0.007798369185457164,0.513
0.007794284639011071,0.514
0.007791258314814023,0.515
0.007789243553772226,0.516
0.007788194814766259,0.517
0.007788069700713155,0.518
0.007788829136536956,0.519
0.007790435689451927,0.52
0.007792850703188888,0.521
0.007796031881173868,0.522
0.007799932956728714,0.523
0.007804505243797732,0.524
0.007809699268083014,0.525
0.00781546508643256,0.526
0.007821751038765078,0.527
0.007828501841367857,0.528
0.007835658162141022,0.529
0.007843159118870631,0.53
0.00785094661664198,0.531
0.007858969438699622,0.532
0.007867185804792535,0.533
0.007875563793980725,0.534
0.007884079463269295,0.535
0.007892712944472411,0.536
0.007901443881907041,0.537
0.007910249252885035,0.538
0.007919105656182828,0.539
0.007927994457424162,0.54
0.007936906818578128,0.541
0.007945847100891027,0.542
0.007954834211535075,0.543
0.007963900854712996,0.544
0.007973090990447818,0.545
0.00798245603101813,0.546
0.0079920503955636,0.547
0.008001927188523016,0.548
0.008012135057122902,0.549
0.008022716950367489,0.55
0.008033710211235414,0.551
0.008045146764108554,0.552
0.008057052992348258,0.553
0.008069449851308544,0.554
0.008082353846354605,0.555
0.008095779107632246,0.556
0.00810974035947163,0.557
0.008124256269633184,0.558
0.008139352514460687,0.559
0.008155063891901732,0.56
0.008171434937163104,0.561
0.008188518734742977,0.562
0.008206373945942853,0.563
0.008225060609622395,0.564
0.008244636330920135,0.565
0.00826515502251472,0.566
0.008286668592090476,0.567
0.008309229577693672,0.568
0.00833289282526529,0.569
0.008357715798143992,0.57
0.008383757818010982,0.571
0.00841107862228017,0.572
0.008439736601082014,0.573
0.008469787000447673,0.574
0.00850128029884775,0.575
0.008534260892902136,0.576
0.00856876614088922,0.577
0.008604825735797513,0.578
0.008642461392105904,0.579
0.008681686863192333,0.58
0.008722508204378655,0.581
0.008764924050980817,0.582
0.008808925678388355,0.583
0.008854496780227027,0.584
0.008901613214349428,0.585
0.008950243174675635,0.586
0.009000348006398661,0.587
0.009051883441562969,0.588
0.009104800838974594,0.589
0.009159047958759079,0.59
0.009214568707569157,0.591
0.009271301948093173,0.592
0.009329181217557493,0.593
0.009388137381434094,0.594
0.009448103659827504,0.595
0.009509020580508358,0.596
0.009570838827646203,0.597
0.009633518953775212,0.598
0.009697027843125759,0.599
0.00976133331379859,0.6
0.009826400094825747,0.601
0.009892189782204746,0.602
0.009958663759683361,0.603
0.010025786166672521,0.604
0.010093525443957618,0.605
0.010161854589657883,0.606
0.010230750609498723,0.607
0.010300193501183363,0.608
0.010370164924563482,0.609
0.010440646586132718,0.61
0.010511618336099076,0.611
0.010583056016105616,0.612
0.010654929215920081,0.613
0.010727199404041113,0.614
0.010799819111862499,0.615
0.01087273232592181,0.616
0.010945875473650736,0.617
0.011019178456052908,0.618
0.011092565679674437,0.619
0.011165957179250905,0.62
0.01123926985351083,0.621
0.011312418806016857,0.622
0.011385318771496223,0.623
0.011457885572688512,0.624
0.011530037470213398,0.625
0.01160169614084522,0.626
0.011672786870508238,0.627
0.01174323744195528,0.628
0.011812975250799827,0.629
0.011881923409444843,0.63
0.011949998928175068,0.631
0.012017115400294915,0.632
0.012083188487471168,0.633
0.012148140821198423,0.634
0.012211904619375482,0.635
0.012274421723343363,0.636
0.012335641343320526,0.637
0.012395516235077928,0.638
0.012453998258829348,0.639
0.012511034248812012,0.64
0.01256656287118216,0.641
0.012620512737115184,0.642
0.012672801556572516,0.643
0.012723335843224472,0.644
0.012772011149059702,0.645
0.012818713775442442,0.646
0.01286332500132429,0.647
0.012905727760963286,0.648
0.01294581454912633,0.649
0.0129834946493916,0.65
0.013018698489500373,0.651
0.0130513772904447,0.652
0.013081497291611763,0.653
0.013109030595670222,0.654
0.013133948688872866,0.655
0.013156223823746071,0.656
0.01317583624124415,0.657
0.013192781222744475,0.658
0.013207072680841456,0.659
0.013218743213160621,0.66
0.013227841543797436,0.661
0.013234428312700539,0.662
0.013238570914510119,0.663
0.013240337773587867,0.664
0.013239792851151634,0.665
0.013236992477149635,0.666
0.013231986204559858,0.667
0.01322482052085032,0.668
0.01321554274258919,0.669
0.013204203531655575,0.67
0.013190857710331483,0.671
0.01317556351808157,0.672
0.013158380646671847,0.673
0.013139367448280792,0.674
0.013118577637787475,0.675
0.01309605710462784,0.676
0.013071842337025918,0.677
0.013045961742787307,0.678
0.013018439187269538,0.679
0.012989297781461179,0.68
0.012958562241320746,0.681
0.012926258726391133,0.682
0.012892411981704975,0.683
0.0128570418180487,0.684
0.012820162780339017,0.685
0.012781788594003281,0.686
0.01274193869105445,0.687
0.01270064332096008,0.688
0.012657945607207871,0.689
0.012613900077126499,0.69
0.01256856775743787,0.691
0.012522009543402155,0.692
0.0124742821015741,0.693
0.012425439580841474,0.694
0.012375539206974262,0.695
0.012324646406170281,0.696
0.01227283719395586,0.697
0.012220197682555618,0.698
0.012166821357261449,0.699
0.012112805114724646,0.7
0.012058245094406802,0.701
0.012003233055295848,0.702
0.011947853575537435,0.703
0.011892182083441312,0.704
0.01183628395821898,0.705
0.011780215004468802,0.706
0.011724022953087866,0.707
0.011667749098004722,0.708
0.01161142934853041,0.709
0.011555094410522725,0.71
0.011498769187354048,0.711
0.01144247182160159,0.712
0.011386213026482473,0.713
0.01132999640776937,0.714
0.01127382030527666,0.715
0.011217681267658326,0.716
0.011161578650319649,0.717
0.011105519128975793,0.718
0.011049519420072398,0.719
0.01099360554086934,0.72
0.010937808401431996,0.721
0.010882159035439602,0.722
0.01082668868474942,0.723
0.010771434736225488,0.724
0.010716447943729097,0.725
0.010661796510423807,0.726
0.01060756593617264,0.727
0.010553855439110853,0.728
0.010500772332349308,0.729
0.010448425821045411,0.73
0.01039692157928874,0.731
0.010346358363807795,0.732
0.010296827165572465,0.733
0.01024841206958089,0.734
0.010201191635380252,0.735
0.010155240362068368,0.736
0.010110630277519768,0.737
0.010067432574889276,0.738
0.01002571903446378,0.739
0.00998556293251329,0.74
0.009947039231550252,0.741
0.009910224011757372,0.742
0.00987519326668192,0.743
0.009842021279505673,0.744
0.00981077879481418,0.745
0.009781531137759444,0.746
0.009754336518771686,0.747
0.009729245054673711,0.748
0.009706298877979077,0.749
0.009685532935688971,0.75
0.009666975727919913,0.751
0.009650649603421203,0.752
0.009636570615469877,0.753
0.009624748102864488,0.754
0.009615184224534045,0.755
0.009607873667716335,0.756
0.009602803674713651,0.757
0.00959995443046542,0.758
0.009599299762742448,0.759
0.009600808042257441,0.76
0.009604443124982428,0.761
0.009610165155271704,0.762
0.009617931062930216,0.763
0.009627694648284009,0.764
0.009639406236061465,0.765
0.009653011952855903,0.766
0.009668452717430208,0.767
0.00968566303154663,0.768
0.009704569785982085,0.769
0.009725091600101848,0.77
0.00974713911425285,0.771
0.00977061600083333,0.772
0.009795420123286507,0.773
0.009821444504647796,0.774
0.009848578044932967,0.775
0.009876706117451468,0.776
0.00990571133617837,0.777
0.009935474803589972,0.778
0.009965877927569118,0.779
0.009996804500714319,0.78
0.01002814236722623,0.781
0.01005978388265769,0.782
0.010091624595787123,0.783
0.010123560094307205,0.784
0.010155482222181315,0.785
0.010187277433083418,0.786
0.01021882892748278,0.787
0.010250020941952643,0.788
0.01028074274902277,0.789
0.010310891460731449,0.79
0.010340373581656095,0.791
0.010369105358333767,0.792
0.010397012024866155,0.793
0.010424026060584572,0.794
0.010450084561673132,0.795
0.010475125802497105,0.796
0.010499085391450011,0.797
0.010521893468486644,0.798
0.010543474750532147,0.799
0.01056375142404961,0.8
0.010582646946284609,0.801
0.01060008901829554,0.802
0.010616011112273074,0.803
0.010630352502405111,0.804
0.010643056959423521,0.805
0.010654070396073344,0.806
0.010663337778746059,0.807
0.010670799808567211,0.808
0.010676390535426196,0.809
0.010680037270659175,0.81
0.010681662785807454,0.811
0.01068118822563925,0.812
0.01067853512979035,0.813
0.010673625627522082,0.814
0.010666380530392162,0.815
0.010656716817397426,0.816
0.010644547963844075,0.817
0.010629788909081792,0.818
0.01061236328774997,0.819
0.010592209227144175,0.82
0.010569281505572332,0.821
0.010543549177675618,0.822
0.010514989318568606,0.823
0.01048358068186998,0.824
0.010449302807500772,0.825
0.010412141920181764,0.826
0.010372099137438282,0.827
0.01032919638776961,0.828
0.01028347862557298,0.829
0.010235012583822825,0.83
0.010183882723971834,0.831
0.010130185264774655,0.832
0.010074021213973773,0.833
0.010015489943826702,0.834
0.009954686017570907,0.835
0.009891700724255229,0.836
0.009826626390229874,0.837
0.009759560759381104,0.838
0.009690610365365032,0.839
0.009619892525599917,0.84
0.009547535446966703,0.841
0.009473676032976623,0.842
0.009398455479497856,0.843
0.009322014000609537,0.844
0.009244487470509684,0.845
0.009166007580294438,0.846
0.009086703733907948,0.847
0.009006704025526228,0.848
0.008926134473091625,0.849
0.00884511710272985,0.85
0.00876376813823581,0.851
0.008682197563652364,0.852
0.008600510116903399,0.853
0.008518806556309719,0.854
0.008437184225304557,0.855
0.008355736740941054,0.856
0.008274553023247257,0.857
0.008193716062672803,0.858
0.008113302009936563,0.859
0.008033379981209817,0.86
0.007954012347658418,0.861
0.007875255004277989,0.862
0.007797157509917781,0.863
0.007719763463136691,0.864
0.007643111597253433,0.865
0.007567237821788354,0.866
0.00749217791263772,0.867
0.0074179700364729595,0.868
0.007344656117195807,0.869
0.007272281333409208,0.87
0.007200891758608489,0.871
0.007130531503880162,0.872
0.0070612417443101936,0.873
0.006993062528643002,0.874
0.006926035598545607,0.875
0.006860206188576697,0.876
0.006795623279134591,0.877
0.006732338591267346,0.878
0.00667040473815031,0.879
0.006609872940057825,0.88
0.006550790859288043,0.881
0.006493201440784772,0.882
0.006437143225856277,0.883
0.006382651477097034,0.884
0.006329759121596732,0.885
0.006278497051305892,0.886
0.006228893689089462,0.887
0.006180974001286037,0.888
0.006134758646125483,0.889
0.006090264026868002,0.89
0.006047503149120681,0.891
0.006006486390441133,0.892
0.005967221483789803,0.893
0.005929712765414943,0.894
0.005893960497159658,0.895
0.0058599611530727996,0.896
0.0058277086295071044,0.897
0.0057971955673570864,0.898
0.0057684141649686285,0.899
0.005741356319342821,0.9
0.005716013139464284,0.901
0.005692373955747947,0.902
0.0056704250621036545,0.903
0.005650148647058192,0.904
0.0056315224201964375,0.905
0.005614519952475898,0.906
0.0055991112334981595,0.907
0.005585263069607207,0.908
0.005572939315181084,0.909
0.005562101028827002,0.91
0.005552706578429139,0.911
0.005544711648539996,0.912
0.005538069057137446,0.913
0.005532728276910876,0.914
0.005528634765620813,0.915
0.005525729652926721,0.916
0.0055239502066414484,0.917
0.0055232306183318125,0.918
0.005523502216508536,0.919
0.005524693028927065,0.92
0.005526727898027756,0.921
0.005529530131275453,0.922
0.005533023891118015,0.923
0.005537135725585859,0.924
0.005541794337557283,0.925
0.005546928785908541,0.926
0.005552466677930877,0.927
0.005558334310406484,0.928
0.005564458910160244,0.929
0.005570771278763873,0.93
0.005577207393694643,0.931
0.005583708608002048,0.932
0.005590220605272148,0.933
0.005596691400366075,0.934
0.005603068818240527,0.935
0.005609298306501754,0.936
0.005615322252162218,0.937
0.005621081141538959,0.938
0.005626515625451063,0.939
0.005631568508596765,0.94
0.005636186381547894,0.941
0.0056403208731404956,0.942
0.005643929420179932,0.943
0.00564697534091713,0.944
0.0056494269119304425,0.945
0.005651255157090492,0.946
0.005652430951179912,0.947
0.00565292382216987,0.948
0.005652704333629515,0.949
0.005651748695002329,0.95
0.005650042834426952,0.951
0.005647584358286724,0.952
0.0056443819138740445,0.953
0.00564045206819129,0.954
0.005635814797224924,0.955
0.005630490065285171,0.956
0.005624497669212831,0.957
0.0056178596859332765,0.958
0.0056106029812390155,0.959
0.005602760183584852,0.96
0.005594368999882154,0.961
0.005585470315412957,0.962
0.005576105628897825,0.963
0.005566314522364812,0.964
0.005556133098979815,0.965
0.005545593918302614,0.966
0.00553472690012394,0.967
0.005523560280121221,0.968
0.005512121195308445,0.969
0.005500435882056299,0.97
0.005488529547270814,0.971
0.005476425980683691,0.972
0.0054641469804966895,0.973
0.005451711658077089,0.974
0.005439135675604975,0.975
0.005426430519956438,0.976
0.0054136030493864805,0.977
0.005400655516642411,0.978
0.005387585971178247,0.979
0.005374388775654404,0.98
0.005361055121723971,0.981
0.005347573607047023,0.982
0.0053339309747615716,0.983
0.005320113068590682,0.984
0.005306105960767128,0.985
0.005291897088638981,0.986
0.005277476126546222,0.987
0.005262835263742551,0.988
0.005247968580194625,0.989
0.005232870462928831,0.99
0.005217533931574117,0.991
0.0052019507057037275,0.992
0.00518611387344062,0.993
0.005170021780264595,0.994
0.005153681137898522,0.995
0.005137108301316912,0.996
0.005120328499998368,0.997
0.005103373316101427,0.998
0.005086277120282812,0.999
0.0050690737997897885,1.0
0.005051795524281952,1.001
0.005034474049152647,1.002
0.0050171430923707915,1.003
0.004999840167151738,1.004
0.004982607313163131,1.005
0.004965490715641683,1.006
0.004948539365044981,1.007
0.004931803077204756,1.008
0.004915330356213672,1.009
0.004899166759517182,1.01
0.004883354311566808,1.011
0.004867931842076512,1.012
0.004852935564902821,1.013
0.0048383993954585,1.014
0.004824354924566874,1.015
0.0048108311186989845,1.016
0.004797853834286913,1.017
0.004785445260534368,1.018
0.004773623456004416,1.019
0.004762402145246633,1.02
0.004751790771010351,1.021
0.004741794608768464,1.022
0.004732414777141819,1.023
0.0047236481462956505,1.024
0.004715487318487839,1.025
0.00470792090066188,1.026
0.004700934119237531,1.027
0.004694509639237326,1.028
0.004688628397007128,1.029
0.004683270237365237,1.03
0.004678414107670888,1.031
0.004674037566890425,1.032
0.004670115842028822,1.033
0.004666621604351972,1.034
0.004663526439792826,1.035
0.004660803395283292,1.036
0.004658429232827218,1.037
0.004656385549192497,1.038
0.0046546584503826,1.039
0.004653236806895071,1.04
0.004652109743309118,1.041
0.0046512648937264015,1.042
0.004650688667972306,1.043
0.004650367997989155,1.044
0.004650292071949449,1.045
0.004650453234056771,1.046
0.00465084701750642,1.047
0.00465147153932803,1.048
0.004652326524912921,1.049
0.00465341218928429,1.05
0.004654728115943058,1.051
0.004656272183112663,1.052
0.004658039564192422,1.053
0.004660021993802999,1.054
0.004662207668922034,1.055
0.004664581896676398,1.056
0.004667128112286081,1.057
0.0046698287980701915,1.058
0.004672666034482494,1.059
0.004675621534498433,1.06
0.004678676086505844,1.061
0.004681808528353661,1.062
0.004684994778826914,1.063
0.004688207618118724,1.064
0.004691417279509344,1.065
0.004694592156885422,1.066
0.004697698983666887,1.067
0.004700702338426366,1.068
0.004703563865114306,1.069
0.004706242097111003,1.07
0.004708693478412385,1.071
0.004710874191750028,1.072
0.004712742059967708,1.073
0.00471425809722586,1.074
0.004715387436325475,1.075
0.004716099351210135,1.076
0.004716366160050556,1.077
0.004716161168580574,1.078
0.004715456770735067,1.079
0.0047142243668891965,1.08
0.00471243644589287,1.081
0.004710069366201081,1.082
0.004707105294886097,1.083
0.0047035327005101,1.084
0.004699345337917349,1.085
0.004694539898393116,1.086
0.004689113141475214,1.087
0.004683060299060675,1.088
0.004676375910950853,1.089
0.0046690560023021745,1.09
0.004661099711300171,1.091
0.004652509444980919,1.092
0.0046432894546962755,1.093
0.004633443664617081,1.094
0.0046229748223399585,1.095
0.004611886223761145,1.096
0.004600184664450184,1.097
0.004587882528457612,1.098
0.004574998155689081,1.099
0.0045615545210262775,1.1
0.004547576687144789,1.101
0.0045330892125545535,1.102
0.0045181152020446575,1.103
0.004502677557554116,1.104
0.004486801139659731,1.105
0.004470514400758538,1.106
0.004453850043806423,1.107
0.004436844739926972,1.108
0.004419538009021447,1.109
0.004401970441377084,1.11
0.0043841816933502305,1.111
0.004366209128843641,1.112
0.004348087769338837,1.113
0.004329851142495482,1.114
0.004311532044332916,1.115
0.004293162665819025,1.116
0.004274774053739026,1.117
0.004256395172413931,1.118
0.0042380521706577275,1.119
0.0042197684371313845,1.12
0.00420156535031578,1.121
0.004183463092380423,1.122
0.004165481045922866,1.123
0.004147637633961068,1.124
0.004129949641978463,1.125
0.004112431359721251,1.126
0.0040950942868779,1.127
0.004077947861082551,1.128
0.004061000781597097,1.129
0.004044262222845063,1.13
0.004027742575072071,1.131
0.004011453571170148,1.132
0.003995407745575999,1.133
0.003979617285713529,1.134
0.003964092660537433,1.135
0.003948841881846062,1.136
0.003933870941338802,1.137
0.003919184912214304,1.138
0.0039047888819309087,1.139
0.0038906883737488233,1.14
0.003876889240155509,1.141
0.0038633970793404636,1.142
0.0038502162732219312,1.143
0.0038373489541940037,1.144
0.0038247945282899086,1.145
0.0038125501130544305,1.146
0.0038006114650373747,1.147
0.0037889737653357433,1.148
0.003777631988547114,1.149
0.0037665807954548295,1.15
0.0037558139586250532,1.151
0.003745323494934385,1.152
0.0037350989828305245,1.153
0.0037251275868724763,1.154
0.0037153947798954437,1.155
0.003705885251566073,1.156
0.0036965835603438415,1.157
0.0036874743514343717,1.158
0.0036785420802178392,1.159
0.003669770242013509,1.16
0.0036611403860349555,1.161
0.003652631635243598,1.162
0.0036442211903171466,1.163
0.0036358853800177297,1.164
0.0036276005342576884,1.165
0.0036193433751074548,1.166
0.0036110909049394714,1.167
0.0036028198445621456,1.168
0.003594505738809515,1.169
0.0035861220787762674,1.17
0.003577640099986842,1.171
0.003569029643640292,1.172
0.003560260731820121,1.173
0.0035513052735675764,1.174
0.003542138532902028,1.175
0.0035327400516622777,1.176
0.0035230936844729945,1.177
0.0035131864682523316,1.178
0.003503006648763624,1.179
0.0034925424116359367,1.18
0.003481782848397197,1.181
0.0034707206396482476,1.182
0.0034593545472045234,1.183
0.00344769041360306,1.184
0.003435740401629544,1.185
0.00342352078783834,1.186
0.003411049170084301,1.187
0.003398342532215125,1.188
0.0033854171155796695,1.189
0.0033722894261889007,1.19
0.003358976999480611,1.191
0.00334549826681233,1.192
0.003331871602306424,1.193
0.0033181140585219564,1.194
0.00330424066966384,1.195
0.003290264784776653,1.196
0.0032761988605878208,1.197
0.003262054916379308,1.198
0.003247844383280438,1.199
0.0032335774771504984,1.2
0.003219262560995642,1.201
0.003204906143847278,1.202
0.0031905136934408033,1.203
0.0031760907848575833,1.204
0.0031616440621607947,1.205
0.003147181808528625,1.206
0.0031327140938071894,1.207
0.0031182525207228743,1.208
0.0031038096181399723,1.209
0.003089397932249238,1.21
0.0030750289846258076,1.211
0.0030607125876649724,1.212
0.003046457022246921,1.213
0.0030322699571493847,1.214
0.0030181594809087337,1.215
0.003004134745165853,1.216
0.002990206031487178,1.217
0.002976384227584207,1.218
0.002962679849367367,1.219
0.002949102033458373,1.22
0.0029356581281596837,1.221
0.002922354061420352,1.222
0.0029091949279944273,1.223
0.0028961851827356334,1.224
0.002883328289763889,1.225
0.0028706261536877178,1.226
0.0028580789953912135,1.227
0.0028456860136318513,1.228
0.00283344641169575,1.229
0.002821360182993754,1.23
0.0028094283874013025,1.231
0.0027976528812286403,1.232
0.0027860355607282235,1.233
0.0027745773797043325,1.234
0.002763277708630435,1.235
0.0027521344883748833,1.236
0.002741144978114042,1.237
0.002730306549273716,1.238
0.0027196172052474554,1.239
0.0027090757517246686,1.24
0.0026986816035949185,1.241
0.0026884342279936235,1.242
0.002678332337325675,1.243
0.0026683732490897947,1.244
0.002658552923118017,1.245
0.002648866665108199,1.246
0.0026393099253455374,1.247
0.002629878671167585,1.248
0.0026205691507174686,1.249
0.0026113771661327675,1.25
0.002602297365994614,1.251
0.0025933232236777268,1.252
0.002584447816150093,1.253
0.0025756648611391683,1.254
0.002566969489264018,1.255
0.0025583585686015453,1.256
0.0025498305495663554,1.257
0.0025413848275855563,1.258
0.00253302075155237,1.259
0.002524736770399727,1.26
0.0025165303937607834,1.261
0.002508399067257941,1.262
0.00250034132487378,1.263
0.002492357579973472,1.264
0.0024844503190023376,1.265
0.0024766236898042596,1.266
0.0024688825745381774,1.267
0.0024612314439036364,1.268
0.002453673607457875,1.269
0.002446211334492872,1.27
0.0024388466044558397,1.271
0.002431581877523101,1.272
0.0024244205345167655,1.273
0.0024173669057777707,1.274
0.00241042588484649,1.275
0.0024036021787199225,1.276
0.0023968994759234305,1.277
0.002390320112146552,1.278
0.0023838655445882536,1.279
0.002377537237712158,1.28
0.0023713373888265984,1.281
0.002365269243208,1.282
0.002359336941792379,1.283
0.0023535449081630356,1.284
0.002347896980378157,1.285
0.0023423958362341368,1.286
0.0023370431872088695,1.287
0.0023318405500575867,1.288
0.0023267900026700487,1.289
0.002321894538141412,1.29
0.0023171579164085604,1.291
0.0023125840446449426,1.292
0.002308176125972162,1.293
0.0023039361359230236,1.294
0.0022998650492499187,1.295
0.002295963567050618,1.296
0.00229223278311234,1.297
0.0022886744950648048,1.298
0.0022852911296625364,1.299
0.002282085343366413,1.3
0.002279059396982266,1.301
0.002276214468822465,1.302
0.002273550190617296,1.303
0.0022710646431526663,1.304
0.0022687547374149676,1.305
0.0022666167030072236,1.306
0.002264646491395495,1.307
0.00226284001975703,1.308
0.002261193203763829,1.309
0.002259701735289454,1.31
0.0022583606008504094,1.311
0.002257163502267246,1.312
0.002256102572473375,1.313
0.002255168605715347,1.314
0.002254351504417061,1.315
0.002253640514122046,1.316
0.0022530240763589376,1.317
0.002252489422068386,1.318
0.0022520223429664775,1.319
0.0022516075228474234,1.32
0.0022512292700569885,1.321
0.0022508721958592916,1.322
0.002250521546862674,1.323
0.002250163093105521,1.324
0.0022497825712090263,1.325
0.002249364912308259,1.326
0.002248893853558071,1.327
0.0022483523836421757,1.328
0.0022477237418458435,1.329
0.0022469923689450817,1.33
0.0022461444569224632,1.331
0.0022451679588901354,1.332
0.0022440520176726124,1.333
0.0022427859772377223,1.334
0.002241358539898626,1.335
0.0022397577506591787,1.336
0.002237971853297431,1.337
0.0022359903766706753,1.338
0.0022338048621347445,1.339
0.002231409017813631,1.34
0.0022287982683897958,1.341
0.002225968778872088,1.342
0.002222916381268458,1.343
0.002219636233545027,1.344
0.002216123617019608,1.345
0.002212375282426146,1.346
0.002208390527674684,1.347
0.0022041716538790538,1.348
0.0021997237493376924,1.349
0.0021950538629984034,1.35
0.0021901697715951585,1.351
0.0021850788517659174,1.352
0.0021797877756227447,1.353
0.0021743032374913576,1.354
0.002168633127579179,1.355
0.0021627874970266765,1.356
0.0021567790490834783,1.357
0.002150623086660279,1.358
0.0021443369073100597,1.359
0.0021379387206936027,1.36
0.00213144644434824,1.361
0.002124877122357614,1.362
0.0021182473618148686,1.363
0.0021115742291523986,1.364
0.002104875840868272,1.365
0.0020981713891460745,1.366
0.0020914806653661642,1.367
0.002084823261273297,1.368
0.0020782177930851794,1.369
0.0020716815730656294,1.37
0.002065230826230928,1.371
0.0020588810901836637,1.372
0.0020526474301601023,1.373
0.0020465443684989744,1.374
0.0020405855617854785,1.375
0.002034783382872641,1.376
0.0020291487345124493,1.377
0.0020236912755528277,1.378
0.0020184198412537438,1.379
0.0020133427410436817,1.38
0.0020084678054727873,1.381
0.002003802173239396,1.382
0.0019993519070504646,1.383
0.001995121700292807,1.384
0.001991114933256761,1.385
0.0019873340310638974,1.386
0.001983780848143358,1.387
0.0019804568848232488,1.388
0.001977363287185869,1.389
0.0019745006316243857,1.39
0.0019718685502124913,1.391
0.001969465415569872,1.392
0.0019672883941969687,1.393
0.001965333935279798,1.394
0.0019635984340585235,1.395
0.0019620787730620574,1.396
0.0019607725725271368,1.397
0.001959678056529835,1.398
0.001958793512011379,1.399
0.0019581165792335966,1.4
0.0019576439655115624,1.401
0.0019573719401826326,1.402
0.001957297242363488,1.403
0.00195741784306791,1.404
0.001957733344786525,1.405
0.0019582450061123922,1.406
0.001958955414497728,1.407
0.001959867855464607,1.408
0.0019609854889470427,1.409
0.001962310620491775,1.41
0.001963844472521337,1.411
0.0019655875547408726,1.412
0.0019675402768208304,1.413
0.001969703427039056,1.414
0.001972078381636846,1.415
0.001974667019560379,1.416
0.001977471347719829,1.417
0.001980492904227939,1.418
0.001983732152599055,1.419
0.0019871882040952897,1.42
0.0019908589823371663,1.421
0.0019947415393923858,1.422
0.001998832187631963,1.423
0.0020031263382448592,1.424
0.0020076181839560952,1.425
0.0020123006218404032,1.426
0.0020171656985947554,1.427
0.0020222053582585942,1.428
0.0020274120663793596,1.429
0.002032779062852186,1.43
0.0020383001576044823,1.431
0.0020439691153965596,1.432
0.0020497789665357177,1.433
0.0020557218322278066,1.434
0.002061789509017336,1.435
0.002067974390060433,1.436
0.0020742701931033974,1.437
0.002080672291747326,1.438
0.0020871776364128117,1.439
0.0020937843036951016,1.44
0.0021004907537438408,1.441
0.002107294963674361,1.442
0.0021141937711803595,1.443
0.0021211827391578683,1.444
0.0021282564627917375,1.445
0.002135408938884684,1.446
0.0021426337444527006,1.447
0.002149924013065412,1.448
0.0021572722871409634,1.449
0.0021646703257529147,1.45
0.002172108927036116,1.451
0.002179577792953587,1.452
0.0021870654344115802,1.453
0.0021945590992179013,1.454
0.002202044714703584,1.455
0.00220950686907917,1.456
0.002216928885900764,1.457
0.002224293036231361,1.458
0.0022315808657699756,1.459
0.002238773519610128,1.46
0.0022458518871721865,1.461
0.0022527964070801413,1.462
0.002259586589368494,1.463
0.0022662007324778808,1.464
0.002272616351302093,1.465
0.0022788112474511307,1.466
0.0022847647351457306,1.467
0.0022904586526431583,1.468
0.0022958779871238683,1.469
0.002301011022913258,1.47
0.002305848982865953,1.471
0.002310385200767541,1.472
0.0023146139271847358,1.473
0.0023185290672525123,1.474
0.002322123470725151,1.475
0.0023253892087068337,1.476
0.0023283185349730947,1.477
0.0023309049490679947,1.478
0.0023331440874363976,1.479
0.00233503438304387,1.48
0.0023365774425653223,1.481
0.002337778077645778,1.482
0.002338643940460001,1.483
0.0023391847593033843,1.484
0.0023394112349190703,1.485
0.0023393338283665623,1.486
0.0023389619606749485,1.487
0.0023383040724158834,1.488
0.0023373683843302224,1.489
0.002336163825528176,1.49
0.002334700787037803,1.491
0.0023329916002115068,1.492
0.0023310506960377247,1.493
0.0023288944085120304,1.494
0.0023265404055549583,1.495
0.002324006766289772,1.496
0.0023213109370246914,1.497
0.002318469153076951,1.498
0.0023154966885842528,1.499
0.002312408505359385,1.5
0.002309219643439807,1.501
0.002305945116718409,1.502
0.0023025993896967564,1.503
0.0022991957076805734,1.504
0.00229574575142557,1.505
0.0022922598490884272,1.506
0.0022887474090314327,1.507
0.002285217110961166,1.508
0.0022816767058348457,1.509
0.002278132635561033,1.51
0.0022745899729518615,1.511
0.0022710529789085588,1.512
0.002267525971988203,1.513
0.0022640140038642557,1.514
0.0022605230625778617,1.515
0.0022570597187407454,1.516
0.002253630349025983,1.517
0.0022502404599909773,1.518
0.002246894717844213,1.519
0.002243597679617721,1.52
0.0022403546277692385,1.521
0.0022371720040240298,1.522
0.002234057304079705,1.523
0.002231018483144686,1.524
0.002228063090259975,1.525
0.002225197630379828,1.526
0.0022224276223245195,1.527
0.0022197582503054353,1.528
0.0022171950826255105,1.529
0.002214744477930729,1.53
0.0022124135815241915,1.531
0.0022102099342166323,1.532
0.002208140779617548,1.533
0.0022062123434359463,1.534
0.0022044295718713957,1.535
0.00220279655411688,1.536
0.0022013172711165666,1.537
0.002199996198998306,1.538
0.002198838586281421,1.539
0.002197850401482493,1.54
0.002197037996817161,1.541
0.002196407556413362,1.542
0.002195964439515271,1.543
0.002195712663249528,1.544
0.0021956548144851113,1.545
0.002195792384227569,1.546
0.002196126180058008,1.547
0.002196656505478543,1.548
0.0021973830157786204,1.549
0.00219830432410583,1.55
0.002199417609843757,1.551
0.0022007185424181455,1.552
0.0022022015381718734,1.553
0.0022038600230239007,1.554
0.002205686402635884,1.555
0.0022076717667899723,1.556
0.002209805697795355,1.557
0.002212076523696545,1.558
0.0022144719139836812,1.559
0.002216979472727329,1.56
0.0022195871377616886,1.561
0.0022222833620936812,1.562
0.00222505709417999,1.563
0.0022278975611815057,1.564
0.0022307938360925546,1.565
0.002233734241815152,1.566
0.002236705908516365,1.567
0.002239694928459735,1.568
0.0022426871718057785,1.569
0.0022456693658513957,1.57
0.0022486300259600203,1.571
0.0022515600300692887,1.572
0.002254452740984812,1.573
0.002257303639710736,1.574
0.002260109498062148,1.575
0.0022628672619721788,1.576
0.002265573116352816,1.577
0.0022682222923049596,1.578
0.0022708096400983276,1.579
0.0022733304122323937,1.58
0.002275780792825884,1.581
0.002278158091215514,1.582
0.002280460681809694,1.583
0.0022826877876964864,1.584
0.0022848391916847795,1.585
0.0022869149258944836,1.586
0.002288914955134998,1.587
0.002290838846062463,1.588
0.0022926854096313753,1.589
0.002294452311373114,1.59
0.002296135681803428,1.591
0.0022977298572939117,1.592
0.0022992274220781117,1.593
0.002300619571113474,1.594
0.0023018966381479445,1.595
0.002303048628364709,1.596
0.002304065671123398,1.597
0.002304938361105712,1.598
0.0023056580001057404,1.599
0.002306216779154475,1.6
0.002306607926752731,1.601
0.0023068258091202332,1.602
0.0023068659395167907,1.603
0.0023067248516792666,1.604
0.0023063998015070896,1.605
0.002305888262503594,1.606
0.0023051872370064086,1.607
0.0023042926687086387,1.608
0.0023031994932400483,1.609
0.0023019025479777866,1.61
0.0023003979430915203,1.611
0.0022986843526228594,1.612
0.002296763911213448,1.613
0.002294642546046416,1.614
0.0022923296555226037,1.615
0.0022898371615327168,1.616
0.002287178100262846,1.617
0.002284365208816841,1.618
0.00228141026489752,1.619
0.002278324500807963,1.62
0.0022751195110658953,1.621
0.0022718079391719284,1.622
0.002268403697888592,1.623
0.0022649217122048463,1.624
0.002261377220185455,1.625
0.0022577848630236518,1.626
0.002254158115824159,1.627
0.002250509448419293,1.628
0.0022468508965896726,1.629
0.002243194424254643,1.63
0.00223955178295917,1.631
0.002235933978840706,1.632
0.002232350786293678,1.633
0.002228810764776364,1.634
0.0022253217601606225,1.635
0.0022218914865420945,1.636
0.0022185278981420964,1.637
0.0022152393018783083,1.638
0.0022120342360029376,1.639
0.0022089211330372197,1.64
0.002205907782596996,1.641
0.0022030007365670197,1.642
0.002200205036406344,1.643
0.0021975245083815428,1.644
0.0021949623741930654,1.645
0.0021925217820838528,1.646
0.0021902060977706593,1.647
0.0021880189330316054,1.648
0.002185963911877769,1.649
0.002184044194107028,1.65
0.002182261886396057,1.651
0.002180617686494392,1.652
0.0021791110485346195,1.653
0.002177740720945785,1.654
0.002176505266845162,1.655
0.0021754033272635745,1.656
0.002174433568270954,1.657
0.002173594330373203,1.658
0.0021728830812601223,1.659
0.0021722959287562293,1.66
0.0021718275040834858,1.661
0.0021714712456086145,1.662
0.0021712197821746773,1.663
0.0021710651282189648,1.664
0.0021709985915782082,1.665
0.002171010435761414,1.666
0.0021710895256130663,1.667
0.002171223297722503,1.668
0.0021713981385782285,1.669
0.00217159987697967,1.67
0.002171814066836395,1.671
0.002172025925796785,1.672
0.0021722199525364937,1.673
0.0021723794922409623,1.674
0.002172486747048037,1.675
0.002172523469004794,1.676
0.002172472031958261,1.677
0.0021723164428333296,1.678
0.0021720430517958504,1.679
0.0021716408478768007,1.68
0.0021711012832598096,1.681
0.0021704176313552693,1.682
0.002169583938457551,1.683
0.002168593883432228,1.684
0.002167440293691635,1.685
0.0021661158047926923,1.686
0.0021646142117753273,1.687
0.002162931771239278,1.688
0.0021610681161099133,1.689
0.002159026685414515,1.69
0.0021568146220173868,1.691
0.0021544421511735024,1.692
0.0021519215175805047,1.693
0.002149265652740317,1.694
0.0021464869671904566,1.695
0.0021435968145338334,1.696
0.002140605738218332,1.697
0.002137523958327959,1.698
0.002134361579366447,1.699
0.002131128441649332,1.7
0.002127833745273794,1.701
0.002124485583186782,1.702
0.0021210905151846423,1.703
0.0021176533187261992,1.704
0.002114176970152578,1.705
0.0021106627393532055,1.706
0.0021071102223007834,1.707
0.0021035172978860523,1.708
0.0020998802329680543,1.709
0.0020961941566217343,1.71
0.0020924538580144466,1.711
0.002088654694592874,1.712
0.002084793409488917,1.713
0.0020808686732957803,1.714
0.0020768811810886064,1.715
0.00207283320205426,1.716
0.0020687276423321343,1.717
0.002064567062576015,1.718
0.002060353392518541,1.719
0.002056088608364077,1.72
0.0020517757999607656,1.721
0.0020474199591099924,1.722
0.002043028251547962,1.723
0.002038609770917114,1.724
0.002034174838732313,1.725
0.0020297340116215245,1.726
0.0020252971758724612,1.727
0.00202087323427192,1.728
0.0020164704804604733,1.729
0.002012097177870053,1.73
0.002007761862927683,1.731
0.0020034732499034117,1.732
0.0019992398065168857,1.733
0.0019950691677443374,1.734
0.001990967690995385,1.735
0.001986940410372501,1.736
0.0019829913146926777,1.737
0.0019791236312833938,1.738
0.0019753398805229952,1.739
0.0019716416601329996,1.74
0.0019680293365192227,1.741
0.0019645019943364565,1.742
0.0019610577964743526,1.743
0.001957694482659162,1.744
0.001954409647768135,1.745
0.0019512006526894688,1.746
0.001948064226436663,1.747
0.0019449960626824643,1.748
0.0019419908514078444,1.749
0.0019390428839091195,1.75
0.0019361469277681463,1.751
0.0019332990118412453,1.752
0.0019304969403522792,1.753
0.0019277404551926822,1.754
0.0019250310137359878,1.755
0.0019223712039430183,1.756
0.0019197638811817663,1.757
0.0019172113079957466,1.758
0.001914714824692604,1.759
0.001912275321169701,1.76
0.0019098941529983543,1.761
0.0019075740087689465,1.762
0.0019053195239008786,1.763
0.0019031375820284528,1.764
0.0019010372601475337,1.765
0.0018990294012861488,1.766
0.0018971258450279141,1.767
0.0018953384685289456,1.768
0.0018936784216218615,1.769
0.0018921559628838017,1.77
0.001890780843750796,1.771
0.0018895627542010265,1.772
0.0018885114421582137,1.773
0.0018876364284322747,1.774
0.0018869464795277008,1.775
0.0018864492213557513,1.776
0.0018861511863276868,1.777
0.0018860581268743389,1.778
0.0018861752022612426,1.779
0.0018865068359164325,1.78
0.0018870563626649356,1.781
0.001887825876258983,1.782
0.0018888165706479455,1.783
0.001890029374263705,1.784
0.0018914655059771354,1.785
0.001893126789843451,1.786
0.0018950157107057645,1.787
0.0018971352292942026,1.788
0.001899488393017811,1.789
0.0019020777872146865,1.79
0.0019049049797683429,1.791
0.0019079702995802212,1.792
0.0019112731464881343,1.793
0.0019148125798892368,1.794
0.0019185877964371723,1.795
0.0019225983064865527,1.796
0.0019268437654633211,1.797
0.0019313234879241256,1.798
0.0019360358398797333,1.799
0.0019409779200353571,1.8
0.001946145760559948,1.801
0.001951534780146562,1.802
0.0019571401191854727,1.803
0.0019629567460412644,1.804
0.0019689793580139003,1.805
0.0019752021032794567,1.806
0.001981618177599447,1.807
0.001988219473933735,1.808
0.0019949965632987815,1.809
0.0020019391094961247,1.81
0.0020090365276998878,1.811
0.002016278644896739,1.812
0.0020236562207338778,1.813
0.0020311612287594633,1.814
0.0020387868144055975,1.815
0.0020465268912839784,1.816
0.002054375412218766,1.817
0.002062325572689997,1.818
0.0020703694839136555,1.819
0.002078498610244209,1.82
0.0020867046133566927,1.821
0.002094980084170624,1.822
0.002103318943018981,1.823
0.0021117164688425694,1.824
0.0021201689657387762,1.825
0.0021286731173752235,1.826
0.002137225168106562,1.827
0.002145820253599308,1.828
0.0021544522298177927,1.829
0.0021631139634749833,1.83
0.0021717976688838533,1.831
0.0021804949579072694,1.832
0.0021891965513489357,1.833
0.002197891854961289,1.834
0.002206568815431154,1.835
0.0022152142920003628,1.836
0.0022238146906601473,1.837
0.00223235646128789,1.838
0.0022408262504453906,1.839
0.002249210633635328,1.84
0.0022574955292681757,1.841
0.0022656657726962165,1.842
0.0022737053920027245,1.843
0.0022815985498080456,1.844
0.002289330618055071,1.845
0.0022968889454751404,1.846
0.0023042631490307513,1.847
0.002311444899142576,1.848
0.0023184272364410187,1.849
0.002325203534834631,1.85
0.00233176647523667,1.851
0.002338107682471357,1.852
0.0023442183289366877,1.853
0.002350090232736991,1.854
0.0023557168249881658,1.855
0.0023610937268279575,1.856
0.0023662188741921915,1.857
0.002371092165813114,1.858
0.002375714648428891,1.859
0.002380087412518422,1.86
0.002384210740679385,1.861
0.0023880841200793297,1.862
0.002391707069006153,1.863
0.0023950800987870935,1.864
0.002398205243912326,1.865
0.002401085990557898,1.866
0.002403726653018281,1.867
0.0024061313919823547,1.868
0.002408303282466702,1.869
0.002410243903585019,1.87
0.002411953481813927,1.871
0.0024134310908872554,1.872
0.0024146745231249994,1.873
0.00241567999676781,1.874
0.0024164421442239635,1.875
0.002416954430086974,1.876
0.0024172096909504674,1.877
0.0024172004434629725,1.878
0.0024169188296372123,1.879
0.002416356212142265,1.88
0.0024155026506481724,1.881
0.002414346803660649,1.882
0.002412876627576196,1.883
0.002411080615492664,1.884
0.002408949080696865,1.885
0.002406475194045794,1.886
0.0024036556212575664,1.887
0.002400490645229073,1.888
0.0023969837100361125,1.889
0.0023931403897207407,1.89
0.0023889669848227296,1.891
0.0023844693956555324,1.892
0.002379653068045705,1.893
0.0023745240611728305,1.894
0.0023690904637620218,1.895
0.0023633634476715342,1.896
0.0023573577123068025,1.897
0.0023510913102306966,1.898
0.0023445849382293634,1.899
0.002337860849242262,1.9
0.0023309415764809216,1.901
0.002323848778073447,1.902
0.0023166026673612328,1.903
0.002309222198675199,1.904
0.0023017255790410626,1.905
0.0022941306046146315,1.906
0.002286454667526442,1.907
0.002278714466139824,1.908
0.0022709255283855107,1.909
0.0022631017792547167,1.91
0.0022552553958663244,1.911
0.0022473969498363606,1.912
0.002239535594869584,1.913
0.0022316791039017152,1.914
0.0022238337284957747,1.915
0.002216003995190615,1.916
0.0022081926834678044,1.917
0.0022004011516743253,1.918
0.0021926299050655804,1.919
0.002184879190947657,1.92
0.002177149473055319,1.921
0.0021694416703347593,1.922
0.002161757055594279,1.923
0.00215409676316382,1.924
0.0021464610876714527,1.925
0.0021388491199367354,1.926
0.002131259103959294,1.927
0.002123689199624747,1.928
0.00211613809412605,1.929
0.0021086052235750356,1.93
0.0021010906027551356,1.931
0.0020935943234192396,1.932
0.0020861158715557594,1.933
0.0020786536118512257,1.934
0.0020712048279375363,1.935
0.002063766333036255,1.936
0.0020563352906585817,1.937
0.0020489099142949373,1.938
0.0020414898921065888,1.939
0.0020340764531997712,1.94
0.002026672024831128,1.941
0.002019279483761255,1.942
0.0020119012452574263,1.943
0.0020045388389099577,1.944
0.0019971934248255523,1.945
0.0019898668757108687,1.946
0.001982562752433003,1.947
0.00197528684548581,1.948
0.0019680472092162373,1.949
0.001960853707062119,1.95
0.0019537171638070658,1.951
0.001946648347241893,1.952
0.001939657206279055,1.953
0.0019327527420246605,1.954
0.0019259433930591107,1.955
0.001919237454352803,1.956
0.001912643210629512,1.957
0.0019061687557566718,1.958
0.0018998215874536744,1.959
0.0018936081285058168,1.96
0.0018875334046590544,1.961
0.0018816010323297106,1.962
0.0018758134103034221,1.963
0.0018701718795613238,1.964
0.0018646767116907222,1.965
0.0018593269435782638,1.966
0.0018541202527367435,1.967
0.001849053130767537,1.968
0.0018441214045986966,1.969
0.0018393209088835157,1.97
0.001834648075511906,1.971
0.001830100272795076,1.972
0.0018256757828659926,1.973
0.0018213733747988402,1.974
0.0018171916073595777,1.975
0.0018131282988550234,1.976
0.001809180621165848,1.977
0.001805345765189888,1.978
0.0018016217039348052,1.979
0.0017980076790244143,1.98
0.0017945042847426602,1.981
0.0017911131429372634,1.982
0.001787836225330432,1.983
0.001784675049054116,1.984
0.0017816302257323785,1.985
0.0017787016850818165,1.986
0.0017758893110389872,1.987
0.0017731935127290404,1.988
0.0017706154964561927,1.989
0.0017681571950975833,1.99
0.001765820876642952,1.991
0.0017636085295981386,1.992
0.0017615212716239784,1.993
0.001759559119375415,1.994
0.0017577212038482996,1.995
0.0017560061379955116,1.996
0.0017544122376753095,1.997
0.0017529375230135311,1.998
0.0017515795369225096,1.999
0.0017503350308252833,2.0
0.0017491996146106119,2.001
0.001748167561291709,2.002
0.0017472319030701568,2.003
0.0017463847189166475,2.004
0.0017456173987354829,2.005
0.0017449207451421939,2.006
0.0017442848475383102,2.007
0.0017436987977567295,2.008
0.0017431505803211904,2.009
0.0017426274475418886,2.01
0.0017421166582777758,2.011
0.00174160621060364,2.012
0.001741085309428542,2.013
0.0017405444479103066,2.014
0.0017399750652493592,2.015
0.0017393688523219934,2.016
0.0017387170193859157,2.017
0.0017380100756837697,2.018
0.0017372383774826251,2.019
0.001736393081400843,2.02
0.0017354670112516685,2.021
0.0017344552159457188,2.022
0.0017333551434006431,2.023
0.0017321663973396976,2.024
0.0017308900965505576,2.025
0.001729527938107218,2.026
0.0017280812948181207,2.027
0.0017265508939778831,2.028
0.001724937276515366,2.029
0.0017232415736885076,2.03
0.0017214660472047452,2.031
0.0017196141896740878,2.032
0.001717690395793284,2.033
0.0017156992961078782,2.034
0.0017136449903424648,2.035
0.0017115305887722223,2.036
0.0017093582894161072,2.037
0.0017071297338247242,2.038
0.0017048462419729893,2.039
0.0017025087625140828,2.04
0.0017001175770034512,2.041
0.001697671970882179,2.042
0.001695170203265316,2.043
0.001692609897703317,2.044
0.0016899886120029077,2.045
0.0016873042746253977,2.046
0.0016845553316803682,2.047
0.0016817405640935908,2.048
0.0016788586074448918,2.049
0.0016759073761112762,2.05
0.001672883812891652,2.051
0.0016697842183157978,2.052
0.0016666049167325153,2.053
0.0016633428739006608,2.054
0.0016599960883053198,2.055
0.0016565636966484882,2.056
0.0016530457566413539,2.057
0.0016494427005895932,2.058
0.001645754628566255,2.059
0.0016419809328564845,2.06
0.0016381206280004733,2.061
0.0016341731187884353,2.062
0.00163013885398084,2.063
0.0016260195631827513,2.064
0.0016218180104026127,2.065
0.0016175373380081062,2.066
0.001613180336519922,2.067
0.0016087491962892186,2.068
0.0016042459591371302,2.069
0.0015996732587589089,2.07
0.0015950348543081498,2.071
0.001590335785571182,2.072
0.0015855821560868306,2.073
0.001580780590263235,2.074
0.0015759375289174044,2.075
0.0015710587620263764,2.076
0.0015661495590792683,2.077
0.0015612152758952256,2.078
0.001556261993627117,2.079
0.0015512968807133679,2.08
0.001546328184964516,2.081
0.0015413648606902232,2.082
0.0015364159333604045,2.083
0.0015314899128799526,2.084
0.0015265946793764393,2.085
0.0015217379327277071,2.086
0.0015169278353621373,2.087
0.0015121734558749896,2.088
0.0015074848632993265,2.089
0.0015028728640899146,2.09
0.001498348441100627,2.091
0.0014939220989277477,2.092
0.0014896035085149072,2.093
0.0014854016798799103,2.094
0.0014813254204552224,2.095
0.0014773837116117978,2.096
0.0014735858735630532,2.097
0.0014699415461552087,2.098
0.0014664605430679757,2.099
0.0014631526323971148,2.1
0.001460027271708227,2.101
0.0014570933002471943,2.102
0.0014543586306131342,2.103
0.0014518300929891276,2.104
0.001449513548460947,2.105
0.0014474141588860742,2.106
0.0014455365941627707,2.107
0.0014438850497977026,2.108
0.0014424630665503056,2.109
0.0014412732948991323,2.11
0.0014403174642853489,2.111
0.0014395966563691906,2.112
0.0014391116794159886,2.113
0.0014388632855564351,2.114
0.0014388521141454947,2.115
0.0014390783955011274,2.116
0.0014395416665197317,2.117
0.0014402408595698911,2.118
0.0014411748433926675,2.119
0.0014423431221914681,2.12
0.0014437463734997076,2.121
0.0014453866800812742,2.122
0.0014472674259115538,2.123
0.0014493928910851094,2.124
0.0014517676283313894,2.125
0.00145439579633723,2.126
0.0014572807722261633,2.127
0.0014604252617731745,2.128
0.0014638317332947228,2.129
0.0014675028239843494,2.13
0.0014714415152234845,2.131
0.0014756510220758077,2.132
0.0014801344164493452,2.133
0.0014848941307855227,2.134
0.0014899316438324183,2.135
0.0014952475286333527,2.136
0.0015008416810264969,2.137
0.0015067134415051027,2.138
0.0015128615030985371,2.139
0.0015192836724828333,2.14
0.0015259766927950297,2.141
0.0015329363309676176,2.142
0.0015401576988149973,2.143
0.0015476356038733694,2.144
0.0015553647724704676,2.145
0.0015633398847618733,2.146
0.0015715554106473769,2.147
0.001580005272156367,2.148
0.0015886824637759334,2.149
0.0015975788980642281,2.15
0.0016066856199652823,2.151
0.0016159932057051875,2.152
0.0016254920831986525,2.153
0.0016351726630568352,2.154
0.0016450252555688329,2.155
0.001655039765152991,2.156
0.001665205269339127,2.157
0.0016755098140017587,2.158
0.001685940688632055,2.159
0.0016964850202496105,2.16
0.0017071303322772572,2.161
0.0017178648699832598,2.162
0.0017286776333373147,2.163
0.001739558111916383,2.164
0.0017504957557628756,2.165
0.0017614793469301084,2.166
0.0017724966638488235,2.167
0.0017835347328054327,2.168
0.0017945804923559239,2.169
0.0018056214992308913,2.17
0.0018166464704023112,2.171
0.0018276455721903458,2.172
0.0018386103872431005,2.173
0.0018495335281488276,2.174
0.0018604079295473526,2.175
0.0018712260227453615,2.176
0.0018819792436991023,2.177
0.0018926581630855008,2.178
0.0019032529541723243,2.179
0.0019137537110094124,2.18
0.0019241503983559358,2.181
0.0019344324616019576,2.182
0.001944588337847655,2.183
0.0019546052823585665,2.184
0.001964469679868874,2.185
0.001974167525385051,2.186
0.001983684672048307,2.187
0.001993006680735924,2.188
0.002002118379050003,2.189
0.002011003598027946,2.19
0.002019645586698324,2.191
0.0020280280463973676,2.192
0.002036136290865044,2.193
0.0020439581184238257,2.194
0.002051484186773819,2.195
0.0020587077974565542,2.196
0.0020656240920842368,2.197
0.0020722288597953132,2.198
0.002078517544361671,2.199
0.002084485148815208,2.2
0.0020901270767443203,2.201
0.0020954402507708755,2.202
0.0021004239258273372,2.203
0.0021050800170708765,2.204
0.002109412940237129,2.205
0.002113429005967054,2.206
0.0021171354471701586,2.207
0.002120539313947695,2.208
0.0021236467633049183,2.209
0.002126463162855246,2.21
0.0021289937650373052,2.211
0.002131244339316386,2.212
0.002133221394010053,2.213
0.002134931931457754,2.214
0.0021363828182776536,2.215
0.002137580026300983,2.216
0.002138528244027763,2.217
0.002139231191097109,2.218
0.0021396923945311225,2.219
0.002139915976808303,2.22
0.002139907214376039,2.221
0.002139672753840026,2.222
0.002139220398700138,2.223
0.0021385584352478742,2.224
0.0021376947210513383,2.225
0.002136636186705098,2.226
0.002135389246349694,2.227
0.002133960791462094,2.228
0.0021323590906565768,2.229
0.002130594242674378,2.23
0.002128678116354692,2.231
0.0021266238198257106,2.232
0.002124444819111161,2.233
0.0021221539648850264,2.234
0.0021197628522292523,2.235
0.0021172817459077396,2.236
0.0021147197882668955,2.237
0.0021120850518350684,2.238
0.0021093843296255094,2.239
0.002106622912070701,2.24
0.002103804651736447,2.241
0.0021009323225880316,2.242
0.0020980080046944776,2.243
0.0020950332550741793,2.244
0.0020920089759898716,2.245
0.0020889350508001892,2.246
0.0020858100570045816,2.247
0.002082631420550766,2.248
0.0020793960185594863,2.249
0.0020761009032478307,2.25
0.002072743870703957,2.251
0.0020693237884135715,2.252
0.002065840691648099,2.253
0.0020622956855498374,2.254
0.0020586906842222225,2.255
0.002055027994660971,2.256
0.002051309734759069,2.257
0.0020475371864920643,2.258
0.002043710458122783,2.259
0.0020398288002980215,2.26
0.002035891429605923,2.261
0.002031898412299779,2.262
0.0020278512871263156,2.263
0.002023753276443748,2.264
0.0020196090284367242,2.265
0.0020154239233173606,2.266
0.0020112031532000547,2.267
0.0020069510671385554,2.268
0.002002671227769049,2.269
0.0019983670517268676,2.27
0.0019940424972018926,2.271
0.0019897024162484106,2.272
0.00198535246848493,2.273
0.001980998618122401,2.274
0.001976646396693748,2.275
0.0019723003956009072,2.276
0.001967964402325487,2.277
0.00196364203337766,2.278
0.0019593373526173765,2.279
0.001955055131196679,2.28
0.0019508006634317043,2.281
0.0019465791900538758,2.282
0.001942395203539511,2.283
0.0019382521643294705,2.284
0.0019341529017372833,2.285
0.0019301003526298148,2.286
0.0019260981507192394,2.287
0.0019221508624536368,2.288
0.0019182638254613216,2.289
0.0019144425892674763,2.29
0.0019106921661461895,2.291
0.0019070166580647547,2.292
0.0019034196707778293,2.293
0.0018999052004267365,2.294
0.0018964783774971614,2.295
0.0018931457352770287,2.296
0.0018899149314731557,2.297
0.001886793998782421,2.298
0.0018837904489550409,2.299
0.0018809108140346014,2.3
0.001878160919588846,2.301
0.0018755465110906987,2.302
0.0018730737285008964,2.303
0.0018707492638091825,2.304
0.0018685802129099083,2.305
0.0018665736585841018,2.306
0.0018647360924366333,2.307
0.0018630729385063142,2.308
0.001861588475672102,2.309
0.0018602861623457602,2.31
0.0018591690680019675,2.311
0.0018582401635538121,2.312
0.001857502405547989,2.313
0.0018569586260212987,2.314
0.0018566112610651575,2.315
0.0018564619682871495,2.316
0.0018565112301716668,2.317
0.0018567581354236016,2.318
0.0018572004982120292,2.319
0.0018578352534414518,2.32
0.0018586589319506232,2.321
0.0018596680716155072,2.322
0.0018608594819048121,2.323
0.0018622302954023236,2.324
0.0018637777583616114,2.325
0.0018654987631035146,2.326
0.001867389306506868,2.327
0.0018694442782034779,2.328
0.0018716577738395206,2.329
0.001874023607241677,2.33
0.0018765355849091935,2.331
0.001879187386510089,2.332
0.001881972129084606,2.333
0.0018848818940145797,2.334
0.0018879075849452497,2.335
0.0018910391957200634,2.336
0.0018942661867822818,2.337
0.001897577672004353,2.338
0.0019009623386512537,2.339
0.0019044081313404338,2.34
0.001907901843985667,2.341
0.0019114289630957225,2.342
0.0019149740050449495,2.343
0.0019185211592570384,2.344
0.0019220548725189612,2.345
0.0019255601531290008,2.346
0.0019290224853227653,2.347
0.00193242733710793,2.348
0.001935759539898496,2.349
0.0019390031443002975,2.35
0.0019421420600606476,2.351
0.001945161060741107,2.352
0.0019480465521720947,2.353
0.001950786824190491,2.354
0.001953371725580793,2.355
0.0019557918208384798,2.356
0.001958037396499727,2.357
0.001960098051445403,2.358
0.001961963260139044,2.359
0.001963623430249923,2.36
0.0019650707967063465,2.361
0.0019662999249153855,2.362
0.0019673078275799696,2.363
0.0019680937116698795,2.364
0.0019686583589383555,2.365
0.001969003179898931,2.366
0.00196912926755995,2.367
0.0019690371174508167,2.368
0.001968727300463428,2.369
0.0019682015263918365,2.37
0.001967463383322565,2.371
0.001966518486055844,2.372
0.0019653740614930773,2.373
0.0019640380996738317,2.374
0.0019625183500892227,2.375
0.001960821662680258,2.376
0.001958954026183852,2.377
0.001956921062182822,2.378
0.0019547284422748263,2.379
0.0019523819366525563,2.38
0.001949887064041369,2.381
0.0019472485340230087,2.382
0.0019444699804806215,2.383
0.0019415543832053091,2.384
0.0019385049732350715,2.385
0.0019353261183794625,2.386
0.0019320238575066164,2.387
0.0019286059250055213,2.388
0.001925081207348039,2.389
0.001921458815679751,2.39
0.0019177473736824335,2.391
0.0019139551319296876,2.392
0.0019100908112964748,2.393
0.0019061645199948678,2.394
0.0019021882564826613,2.395
0.0018981758766506787,2.396
0.0018941425832285528,2.397
0.0018901040761040732,2.398
0.0018860756229094305,2.399
0.0018820714619107075,2.4
0.0018781047933705706,2.401
0.0018741881410277495,2.402
0.00187033367452244,2.403
0.001866553292246693,2.404
0.00186285845270077,2.405
0.0018592598117384011,2.406
0.0018557668319769658,2.407
0.001852387634510977,2.408
0.001849129196031971,2.409
0.0018459976720112297,2.41
0.0018429985823730669,2.411
0.0018401367800063636,2.412
0.001837416242029895,2.413
0.0018348397678779624,2.414
0.001832408711737674,2.415
0.0018301228866556877,2.416
0.001827980676204877,2.417
0.0018259792646628955,2.418
0.001824114899995507,2.419
0.0018223831634615263,2.42
0.0018207792198770046,2.421
0.0018192979916775748,2.422
0.0018179341844699413,2.423
0.0018166821027246365,2.424
0.0018155352848406487,2.425
0.001814486198640443,2.426
0.0018135263212031895,2.427
0.0018126466223912614,2.428
0.0018118381209331937,2.429
0.0018110921875448386,2.43
0.001810400455521445,2.431
0.0018097543663471386,2.432
0.0018091446489970357,2.433
0.0018085612459053547,2.434
0.0018079938798032974,2.435
0.0018074328811768848,2.436
0.001806869803534595,2.437
0.001806297623941344,2.438
0.0018057104982953085,2.439
0.0018051031095408392,2.44
0.0018044698391350511,2.441
0.0018038043188592639,2.442
0.001803099790485851,2.443
0.0018023500193811055,2.444
0.001801550184272943,2.445
0.0018006974017080416,2.446
0.0017997907764929163,2.447
0.0017988309730407994,2.448
0.0017978193875585243,2.449
0.0017967571840513843,2.45
0.0017956447113085287,2.451
0.001794481623400944,2.452
0.0017932673858264945,2.453
0.0017920016286431585,2.454
0.00179068412540289,2.455
0.0017893144439482087,2.456
0.0017878914292349343,2.457
0.0017864127817634476,2.458
0.0017848749602959182,2.459
0.001783273360827209,2.46
0.0017816024990512172,2.461
0.0017798559882184657,2.462
0.001778026333792732,2.463
0.0017761048088390037,2.464
0.0017740816838306588,2.465
0.0017719467751895351,2.466
0.0017696900559388065,2.467
0.0017673021357936156,2.468
0.001764774531510471,2.469
0.0017620996979715285,2.47
0.0017592708154875833,2.471
0.0017562813423100893,2.472
0.001753124412280025,2.473
0.0017497923775833498,2.474
0.0017462769108725997,2.475
0.001742569746120853,2.476
0.0017386637044004712,2.477
0.0017345536160145718,2.478
0.0017302369267670357,2.479
0.0017257138749270176,2.48
0.0017209871864899712,2.481
0.0017160613115857607,2.482
0.0017109413657896164,2.483
0.0017056322373368675,2.484
0.0017001384525541076,2.485
0.0016944648933948673,2.486
0.0016886178340978642,2.487
0.0016826057648059015,2.488
0.0016764397985280744,2.489
0.001670133620062821,2.49
0.0016637029937947008,2.491
0.0016571649092616775,2.492
0.0016505365707326046,2.493
0.0016438346558019217,2.494
0.001637075227490064,2.495
0.0016302741872307276,2.496
0.0016234477899415894,2.497
0.0016166128983801766,2.498
0.0016097869353200616,2.499
0.001602987597260696,2.5
0.0015962324019513352,2.501
0.001589538183456457,2.502
0.001582920754766104,2.503
0.0015763949140398489,2.504
0.0015699746858876277,2.505
0.0015636735147158082,2.506
0.001557504232351514,2.507
0.0015514788313808275,2.508
0.0015456082834711857,2.509
0.001539902645087642,2.51
0.0015343713970884967,2.511
0.0015290237550775819,2.512
0.0015238687865263825,2.513
0.0015189153423714478,2.514
0.0015141718881175362,2.515
0.0015096463246225104,2.516
0.0015053458539369905,2.517
0.0015012768929933455,2.518
0.001497444991100568,2.519
0.0014938547027058395,2.52
0.0014905094569923262,2.521
0.0014874115736006094,2.522
0.0014845624946553243,2.523
0.0014819631073560437,2.524
0.001479613997047396,2.525
0.0014775155787296688,2.526
0.0014756681326474484,2.527
0.001474071797795461,2.528
0.0014727265812378462,2.529
0.0014716324211456328,2.53
0.0014707893046804908,2.531
0.0014701974045815242,2.532
0.0014698571797186432,2.533
0.001469769391860251,2.534
0.0014699350109759778,2.535
0.0014703549960480163,2.536
0.0014710299426246342,2.537
0.0014719596831840522,2.538
0.0014731431280799502,2.539
0.0014745785735243557,2.54
0.0014762643278684786,2.541
0.0014781993529049962,2.542
0.0014803837538891675,2.543
0.0014828190517342517,2.544
0.0014855082022848575,2.545
0.001488455359344657,2.546
0.0014916654079131198,2.547
0.0014951433236245768,2.548
0.001498893518683816,2.549
0.0015029194850226099,2.55
0.0015072238991204424,2.551
0.0015118089598736672,2.552
0.0015166766467907663,2.553
0.001521828797189897,2.554
0.001527267022498947,2.555
0.0015329924926264248,2.556
0.0015390056313352237,2.557
0.0015453058533073554,2.558
0.0015518915494860351,2.559
0.0015587603769248472,2.56
0.0015659096548229954,2.561
0.001573336627757752,2.562
0.0015810384773408414,2.563
0.0015890120514927637,2.564
0.0015972534449771093,2.565
0.0016057578297069108,2.566
0.0016145198287376562,2.567
0.0016235342362763622,2.568
0.0016327967052137938,2.569
0.00164230421305706,2.57
0.0016520552378396932,2.571
0.0016620495953708404,2.572
0.0016722879147393697,2.573
0.0016827708740018812,2.574
0.001693498637700528,2.575
0.0017044709748329258,2.576
0.0017156879853907506,2.577
0.0017271508920546606,2.578
0.0017388624615970601,2.579
0.0017508269212693206,2.58
0.0017630494042578716,2.581
0.0017755351136879457,2.582
0.0017882886439397237,2.583
0.0018013139233871022,2.584
0.0018146147646089636,2.585
0.0018281955487867035,2.586
0.00184206163363559,2.587
0.0018562193423437314,2.588
0.001870675532410682,2.589
0.00188543688013149,2.59
0.0019005092652494744,2.591
0.0019158976992013912,2.592
0.0019316068177087828,2.593
0.0019476415170529104,2.594
0.00196400735834785,2.595
0.0019807106227475407,2.596
0.001997758040185843,2.597
0.0020151562757420335,2.598
0.0020329112948539374,2.599
0.002051027788838344,2.6
0.002069508910999986,2.601
0.0020883564241910052,2.602
0.0021075710635947522,2.603
0.002127152865603245,2.604
0.0021471013583620616,2.605
0.0021674155880531524,2.606
0.002188093980720444,2.607
0.002209134067851531,2.608
0.0022305321202589884,2.609
0.002252282775197921,2.61
0.002274378813220481,2.611
0.00229681118389929,2.612
0.0023195691815754466,2.613
0.002342640601500406,2.614
0.0023660118059834695,2.615
0.002389667711542669,2.616
0.002413591724101165,2.617
0.0024377656426443624,2.618
0.0024621695412421537,2.619
0.0024867816314304556,2.62
0.002511578100265681,2.621
0.002536532951573089,2.622
0.0025616179605927416,2.623
0.002586802839036259,2.624
0.0026120555616923084,2.625
0.0026373427301275925,2.626
0.0026626298917341545,2.627
0.002687881780417308,2.628
0.0027130624735038395,2.629
0.0027381354736630407,2.63
0.0027630637188146034,2.631
0.002787809505284918,2.632
0.002812334286733111,2.633
0.0028365982912172158,2.634
0.0028605600211014815,2.635
0.002884176015034078,2.636
0.002907401254192105,2.637
0.0029301900930583896,2.638
0.002952497279805966,2.639
0.002974278755684814,2.64
0.0029954920738816566,2.641
0.00301609632157506,2.642
0.0030360514588729957,2.643
0.00305531721584024,2.644
0.003073852250087597,2.645
0.0030916144186742506,2.646
0.0031085621169053483,2.647
0.003124655709006915,2.648
0.0031398581080114524,2.649
0.0031541340674687687,2.65
0.0031674486898232964,2.651
0.003179766948393602,2.652
0.0031910555016255353,2.653
0.003201285712793365,2.654
0.0032104358771462465,2.655
0.0032184915973271803,2.656
0.00322544409089829,2.657
0.003231287263620018,2.658
0.0032360159058705006,2.659
0.003239626809276368,2.66
0.0032421217294328723,2.661
0.0032435099140248475,2.662
0.003243809141953157,2.663
0.003243045304641816,2.664
0.003241250876517848,2.665
0.0032384627036279685,2.666
0.0032347195232959695,2.667
0.003230059731110971,2.668
0.0032245201454319463,2.669
0.00321813615273048,2.67
0.0032109427061173933,2.671
0.003202975422951663,2.672
0.0031942714926944268,2.673
0.003184870366055821,2.674
0.003174814186546936,2.675
0.00316414790810517,2.676
0.00315291906048937,2.677
0.003141177162511582,2.678
0.0031289728196234787,2.679
0.003116356565544698,2.68
0.0031033776858450505,2.681
0.003090083611459167,2.682
0.003076520304280555,2.683
0.003062733292094593,2.684
0.0030487686976691146,2.685
0.003034673912956674,2.686
0.003020497810618568,2.687
0.0030062904527781496,2.688
0.002992102315846954,2.689
0.0029779832195123935,2.69
0.00296398148367919,2.691
0.002950143869844058,2.692
0.0029365162346974964,2.693
0.002923144269849901,2.694
0.002910073855105724,2.695
0.0028973509472230677,2.696
0.002885021113161003,2.697
0.0028731288710244444,2.698
0.0028617170094698665,2.699
0.0028508260445960693,2.7
0.0028404939421941815,2.701
0.002830756103205774,2.702
0.0028216454690223125,2.703
0.0028131926364817145,2.704
0.0028054259834584755,2.705
0.0027983718357016984,2.706
0.0027920546831421552,2.707
0.002786497418304807,2.708
0.0027817215286225637,2.709
0.0027777471587514006,2.71
0.00277459298928882,2.711
0.0027722759417632015,2.712
0.002770810811882334,2.713
0.00277021001369292,2.714
0.0027704835324973073,2.715
0.0027716389688796717,2.716
0.002773681517841861,2.717
0.0027766139122700653,2.718
0.002780436470145155,2.719
0.0027851472759447696,2.72
0.002790742383627656,2.721
0.0027972159248233217,2.722
0.0028045600766607496,2.723
0.00281276489408656,2.724
0.002821818077509849,2.725
0.002831704829572243,2.726
0.0028424078959985114,2.727
0.0028539076991176133,2.728
0.002866182420617442,2.729
0.0028792079909855804,2.73
0.0028929580196742086,2.731
0.002907403720208997,2.732
0.0029225138797763866,2.733
0.0029382548997621996,2.734
0.002954590903356687,2.735
0.002971483880075035,2.736
0.0029888938168244955,2.737
0.003006778745499254,2.738
0.0030250946238256937,2.739
0.003043795095212382,2.74
0.0030628314691378764,2.741
0.003082153242421359,2.742
0.003101709018038691,2.743
0.0031214474153928905,2.744
0.0031413176653919948,2.745
0.0031612696972329254,2.746
0.0031812536013932167,2.747
0.003201218655609184,2.748
0.0032211126841771402,2.749
0.0032408825384671455,2.75
0.003260475548632543,2.751
0.003279841132690758,2.752
0.0032989319947460947,2.753
0.003317704768540035,2.754
0.003336120153607495,2.755
0.0033541426418434157,2.756
0.0033717398849655877,2.757
0.0033888816453516214,2.758
0.003405538328932672,2.759
0.0034216796923353986,2.76
0.0034372749140291117,2.761
0.003452294509996021,2.762
0.003466713162046924,2.763
0.003480512232098872,2.764
0.0034936813269576634,2.765
0.003506218684662026,2.766
0.003518130371158382,2.767
0.0035294284814805722,2.768
0.0035401286751310574,2.769
0.003550247560985957,2.77
0.0035598008159978757,2.771
0.003568802868597524,2.772
0.0035772680044598238,2.773
0.003585211931449683,2.774
0.0035926530697649285,2.775
0.0035996133616133406,2.776
0.003606118572411887,2.777
0.0036121980772094724,2.778
0.0036178841567809927,2.779
0.0036232108586454924,2.78
0.0036282125094553416,2.781
0.003632922187289132,2.782
0.003637370862744263,2.783
0.003641587677110905,2.784
0.0036456008900065465,2.785
0.003649438680159279,2.786
0.0036531294073910347,2.787
0.003656701291173325,2.788
0.003660181580072065,2.789
0.003663595549330688,2.79
0.0036669660418350543,2.791
0.003670313970917288,2.792
0.003673659313044022,2.793
0.0036770218679723988,2.794
0.003680421469868626,2.795
0.0036838776076182616,2.796
0.003687408567644932,2.797
0.003691030530268571,2.798
0.00369475727053467,2.799
0.0036986006559194106,2.8
0.003702571398255743,2.801
0.0037066794711701585,2.802
0.0037109340287204383,2.803
0.0037153429020299385,2.804
0.0037199118561152874,2.805
0.003724643943675755,2.806
0.0037295393059871423,2.807
0.003734595419034144,2.808
0.003739807421073981,2.809
0.003745168216035007,2.81
0.0037506682863578545,2.811
0.003756295327702844,2.812
0.0037620340243527256,2.813
0.003767866292377526,2.814
0.003773771962158356,2.815
0.003779729590026114,2.816
0.0037857171351950375,2.817
0.0037917123671093473,2.818
0.003797692935772451,2.819
0.0038036360789616666,2.82
0.00380951796972582,2.821
0.0038153128547801876,2.822
0.0038209924749651437,2.823
0.0038265262745386217,2.824
0.0038318822818220214,2.825
0.0038370280419740073,2.826
0.0038419311039911194,2.827
0.003846558862845089,2.828
0.0038508777755820057,2.829
0.0038548523921380843,2.83
0.0038584450882203775,2.831
0.003861616937764003,2.832
0.003864329100973898,2.833
0.0038665438223071144,2.834
0.003868224552408411,2.835
0.0038693350788525063,2.836
0.003869838253721679,2.837
0.003869695748055425,2.838
0.003868869630824267,2.839
0.003867324870660049,2.84
0.0038650314629754363,2.841
0.00386196569460573,2.842
0.003858110539443691,2.843
0.0038534552195150073,2.844
0.0038479939205597015,2.845
0.0038417236278705962,2.846
0.003834641637672324,2.847
0.0038267444680976127,2.848
0.0038180294028808885,2.849
0.003808497613901299,2.85
0.003798157004739469,2.851
0.003787023895219986,2.852
0.003775123368187168,2.853
0.0037624883500157282,2.854
0.003749157706091105,2.855
0.0037351737500549926,2.856
0.0037205796404573828,2.857
0.0037054173483566815,2.858
0.003689726931905755,2.859
0.0036735471299118453,2.86
0.0036569164213935525,2.861
0.003639873788055023,2.862
0.003622458983833349,2.863
0.003604712358269283,2.864
0.003586674320356754,2.865
0.003568384570252922,2.866
0.0035498812561067985,2.867
0.00353120021911241,2.868
0.0035123744648569133,2.869
0.0034934339473845126,2.87
0.003474405687320869,2.871
0.003455314184671357,2.872
0.0034361820442580463,2.873
0.0034170307071831356,2.874
0.0033978811656781615,2.875
0.003378754529181184,2.876
0.0033596723189616173,2.877
0.0033406564097405865,2.878
0.003321728603519335,2.879
0.003302909887864833,2.88
0.0032842195730107405,2.881
0.0032656747546337904,2.882
0.0032472905122194313,2.883
0.0032290807570248925,2.884
0.003211059314773175,2.885
0.0031932409525919666,2.886
0.003175642229521794,2.887
0.0031582820769528587,2.888
0.003141182002381747,2.889
0.0031243658127901477,2.89
0.0031078587943800667,2.891
0.0030916864299074453,2.892
0.003075873120175115,2.893
0.003060441674432983,2.894
0.003045413779405208,2.895
0.0030308107407584477,2.896
0.0030166537691504137,2.897
0.0030029636626832537,2.898
0.002989760089225648,2.899
0.0029770608855296133,2.9
0.002964881847507406,2.901
0.0029532370703317973,2.902
0.002942139397889463,2.903
0.0029316005528120296,2.904
0.002921630851922249,2.905
0.002912238784273434,2.906
0.0029034310007251107,2.907
0.002895212983868511,2.908
0.0028875900437341363,2.909
0.0028805681281694885,2.91
0.002874154195480452,2.911
0.002868356087251453,2.912
0.002863181943467636,2.913
0.002858639308327297,2.914
0.0028547341862855866,2.915
0.002851470346154236,2.916
0.0028488490336565004,2.917
0.0028468691170615893,2.918
0.0028455276367686435,2.919
0.002844820551203981,2.92
0.002844743296377634,2.921
0.0028452908325163756,2.922
0.0028464571670498338,2.923
0.0028482348895394185,2.924
0.002850615442403026,2.925
0.0028535902120223134,2.926
0.002857151872034512,2.927
0.0028612954815609194,2.928
0.002866019175236884,2.929
0.002871324415820435,2.93
0.0028772157987907144,2.931
0.002883700412255946,2.932
0.0028907867771479933,2.933
0.0028984835109027813,2.934
0.00290679821530234,2.935
0.0029157372910405843,2.936
0.002925306777489727,2.937
0.0029355134915687365,2.938
0.0029463657240028484,2.939
0.002957873225526887,2.94
0.0029700465181315503,2.941
0.0029828957590520727,2.942
0.0029964296390379884,2.943
0.0030106548542814964,2.944
0.0030255761888040205,2.945
0.0030411966779146627,2.946
0.0030575174466530145,2.947
0.0030745373396107905,2.948
0.003092252713992096,2.949
0.003110657529229081,2.95
0.0031297434706212823,2.951
0.003149499855556211,2.952
0.0031699134157104473,2.953
0.003190968200988197,2.954
0.003212645620581975,2.955
0.003234924457737388,2.956
0.003257781006779233,2.957
0.0032811897695886466,2.958
0.003305124831935855,2.959
0.0033295615520030565,2.96
0.003354478004968975,2.961
0.0033798556554972556,2.962
0.0034056788947258217,2.963
0.003431933523418791,2.964
0.003458605154726922,2.965
0.0034856790431489863,2.966
0.003513141767209921,2.967
0.0035409835884445697,2.968
0.0035692001858503657,2.969
0.003597793273785543,2.97
0.0036267700734206355,2.971
0.0036561417788356673,2.972
0.003685921308412888,2.973
0.0037161210141551534,2.974
0.003746751490595101,2.975
0.003777821993727504,2.976
0.003809341583520417,2.977
0.0038413199158860434,2.978
0.0038737674087810734,2.979
0.003906694911415567,2.98
0.003940113040763626,2.981
0.003974031353308158,2.982
0.004008457498939176,2.983
0.004043396468271191,2.984
0.004078850001440392,2.985
0.004114816191284521,2.986
0.004151289301659995,2.987
0.0041882598088815596,2.988
0.0042257146593840545,2.989
0.0042636377380489265,2.99
0.004302010507632424,2.991
0.00434081269358566,2.992
0.004380022831727157,2.993
0.00441961851892402,2.994
0.004459576284215632,2.995
0.004499871082256472,2.996
0.004540475497704012,2.997
0.004581358973960142,2.998
0.0046224876547934154,2.999
0.004663825200419709,3.0
0.004705334315254766,3.001
0.004746978500049483,3.002
0.004788723677048584,3.003
0.004830539363183132,3.004
0.004872399049210892,3.005
0.004914279543314285,3.006
0.004956159245375077,3.007
0.004998015870350241,3.008
0.005039824984414005,3.009
0.005081560484734136,3.01
0.005123196565359431,3.011
0.005164709872034614,3.012
0.005206081069748573,3.013
0.005247295588987604,3.014
0.005288343488210215,3.015
0.005329218498645552,3.016
0.005369916456808233,3.017
0.005410433417096101,3.018
0.005450763737351142,3.019
0.005490898449951139,3.02
0.005530824322232292,3.021
0.00557052382659303,3.022
0.0056099757648699275,3.023
0.005649156138982638,3.024
0.00568803907406926,3.025
0.005726597702335177,3.026
0.005764804860546729,3.027
0.005802633425803407,3.028
0.005840056156327952,3.029
0.005877044989591296,3.03
0.005913569844493483,3.031
0.005949597231671225,3.032
0.005985089411474172,3.033
0.006020004677754641,3.034
0.006054298404646937,3.035
0.006087923970077042,3.036
0.006120832940100392,3.037
0.006152974378979658,3.038
0.006184293958931984,3.039
0.006214734291885889,3.04
0.0062442371984742315,3.041
0.006272747029035394,3.042
0.00630021366051156,3.043
0.006326594295509238,3.044
0.0063518535699855026,3.045
0.006375961707965025,3.046
0.00639889119519294,3.047
0.006420614066612941,3.048
0.006441102486330295,3.049
0.006460332876819917,3.05
0.006478291156967007,3.051
0.006494976727878052,3.052
0.006510404209334072,3.053
0.006524602717669561,3.054
0.006537612908841334,3.055
0.006549482378249569,3.056
0.006560260595362524,3.057
0.00656999543022901,3.058
0.006578732857094731,3.059
0.006586519070585593,3.06
0.0065934028817486124,3.061
0.006599437115078224,3.062
0.00660467881522595,3.063
0.006609188402348269,3.064
0.006613027977124329,3.065
0.006616259036718744,3.066
0.0066189401120526105,3.067
0.00662112521239755,3.068
0.00662286353189281,3.069
0.006624199644561373,3.07
0.00662517333144504,3.071
0.006625819599376576,3.072
0.006626169874044724,3.073
0.0066262540424114,3.074
0.006626102187594053,3.075
0.006625745284872995,3.076
0.00662521472166471,3.077
0.006624540839098801,3.078
0.006623751036330981,3.079
0.006622868442415564,3.08
0.006621912063887728,3.081
0.006620898296385547,3.082
0.006619842927404756,3.083
0.006618762949106009,3.084
0.006617677871902825,3.085
0.006616610325665418,3.086
0.006615585777692048,3.087
0.00661463131034534,3.088
0.006613773558508369,3.089
0.006613036371423359,3.09
0.006612439456781432,3.091
0.006611998804299097,3.092
0.006611728069058593,3.093
0.006611639542245869,3.094
0.006611744110486159,3.095
0.0066120502292992735,3.096
0.0066125624356659085,3.097
0.0066132805596374085,3.098
0.006614200350807125,3.099
0.006615314776565641,3.1
0.0066166147717569325,3.101
0.006618088849758787,3.102
0.00661972193212078,3.103
0.006621494946625011,3.104
0.006623386495737017,3.105
0.006625375884350245,3.106
0.006627445835252865,3.107
0.006629583878578209,3.108
0.0066317820597696555,3.109
0.00663403501240924,3.11
0.006636337024647655,3.111
0.006638679504365612,3.112
0.006641050163508079,3.113
0.006643433580596117,3.114
0.006645811436340196,3.115
0.006648161717601501,3.116
0.0066504582473381054,3.117
0.006652671695128858,3.118
0.006654770889590315,3.119
0.006656722811696686,3.12
0.006658492150337051,3.121
0.006660042943071684,3.122
0.006661342973168768,3.123
0.006662368888195708,3.124
0.006663109762072781,3.125
0.006663568139833805,3.126
0.0066637586004657905,3.127
0.006663704406833849,3.128
0.006663433067471962,3.129
0.006662971933398044,3.13
0.006662345436335478,3.131
0.0066615750263492425,3.132
0.006660681092371964,3.133
0.006659685344480135,3.134
0.0066586128477614075,3.135
0.006657493519966317,3.136
0.006656362962005689,3.137
0.006655262466562625,3.138
0.006654238136449541,3.139
0.006653339220866322,3.14
0.006652615969478081,3.141
0.006652117413248483,3.142
0.0066518894449377735,3.143
0.0066519734100373,3.144
0.006652405223527887,3.145
0.006653214903850179,3.146
0.006654426408108893,3.147
0.006656057722567824,3.148
0.006658121222893925,3.149
0.006660624300837268,3.15
0.006663570153291776,3.151
0.006666958498932389,3.152
0.006670785893733155,3.153
0.006675045365335331,3.154
0.0066797256760065225,3.155
0.006684811460405517,3.156
0.006690285175948596,3.157
0.006696130208172089,3.158
0.006702333747940223,3.159
0.006708888512601187,3.16
0.006715792844512073,3.161
0.006723049054486031,3.162
0.006730660422421681,3.163
0.006738628248267913,3.164
0.006746950866671416,3.165
0.0067556250288414894,3.166
0.006764647953496241,3.167
0.006774018353089124,3.168
0.0067837359955007165,3.169
0.006793800012798615,3.17
0.006804206675904936,3.171
0.006814948110967047,3.172
0.0068260129793473925,3.173
0.006837388426005249,3.174
0.006849061946579857,3.175
0.006861022512344462,3.176
0.006873260785581138,3.177
0.006885768353400088,3.178
0.006898536028703488,3.179
0.006911551687626892,3.18
0.006924798734594154,3.181
0.0069382560021607875,3.182
0.006951898581977359,3.183
0.006965698526835985,3.184
0.006979625019791777,3.185
0.006993644216729068,3.186
0.0070077190752196915,3.187
0.007021809387393467,3.188
0.007035872106337598,3.189
0.007049861952337971,3.19
0.007063732229797546,3.191
0.007077435766140654,3.192
0.007090925872379266,3.193
0.007104157197491627,3.194
0.007117086298726471,3.195
0.007129671689944767,3.196
0.00714187308822242,3.197
0.007153649645585739,3.198
0.007164957773559887,3.199
0.0071757505696083785,3.2
0.007185980263574204,3.201
0.007195602441668635,3.202
0.007204579750284012,3.203
0.007212883772519548,3.204
0.00722049468446757,3.205
0.007227398881123712,3.206
0.007233585266024797,3.207
0.007239041339606443,3.208
0.007243750564282171,3.209
0.007247691876480053,3.21
0.007250840728869011,3.211
0.007253170483546869,3.212
0.007254653660262737,3.213
0.007255263055515153,3.214
0.007254972669137711,3.215
0.007253758165694591,3.216
0.007251596493756659,3.217
0.007248464325349948,3.218
0.007244335791012595,3.219
0.007239181577796059,3.22
0.007232971085540413,3.221
0.007225676498934977,3.222
0.00721727624349367,3.223
0.007207756233613525,3.224
0.007197108375947266,3.225
0.007185326962414269,3.226
0.007172405449884502,3.227
0.00715833650718959,3.228
0.0071431154256343405,3.229
0.00712674429149707,3.23
0.007109234672925626,3.231
0.0070906080402420016,3.232
0.00707089381056313,3.233
0.007050125413874784,3.234
0.0070283361166474075,3.235
0.007005557453543712,3.236
0.0069818212076995555,3.237
0.006957162539525357,3.238
0.006931621647814253,3.239
0.0069052433828728265,3.24
0.006878075385215122,3.241
0.0068501655538711565,3.242
0.006821559613543026,3.243
0.006792299326514412,3.244
0.006762421594622236,3.245
0.006731958413494494,3.246
0.006700937431366194,3.247
0.006669382746507895,3.248
0.00663731554711047,3.249
0.006604754244615964,3.25
0.006571713907169537,3.251
0.006538205371774348,3.252
0.00650423522271864,3.253
0.0064698075064126975,3.254
0.006434926662460867,3.255
0.006399600606066041,3.256
0.006363843322881828,3.257
0.006327676586824509,3.258
0.006291130435449348,3.259
0.006254242141207708,3.26
0.0062170536352101945,3.261
0.006179607992983481,3.262
0.006141946765282335,3.263
0.006104109929563686,3.264
0.0060661380557993725,3.265
0.006028074588323633,3.266
0.005989966803785414,3.267
0.00595186530830783,3.268
0.005913822509316354,3.269
0.0058758906083529235,3.27
0.005838119605698105,3.271
0.0058005556683097675,3.272
0.005763240068795847,3.273
0.0057262087900753055,3.274
0.005689492827146383,3.275
0.005653119156288473,3.276
0.005617112201148747,3.277
0.00558149545504878,3.278
0.005546292832443985,3.279
0.005511529359618526,3.28
0.005477230969202676,3.281
0.005443423393838089,3.282
0.005410130509448238,3.283
0.005377372958455366,3.284
0.0053451678540465605,3.285
0.005313529438739518,3.286
0.005282469844288188,3.287
0.005251999424110578,3.288
0.0052221267551223315,3.289
0.0051928586399183725,3.29
0.005164200388905944,3.291
0.005136156496620548,3.292
0.005108731627693835,3.293
0.005081931675992321,3.294
0.00505576459476748,3.295
0.005030240719630034,3.296
0.005005372404046007,3.297
0.004981172927657851,3.298
0.004957654834967374,3.299
0.004934828312778181,3.3
0.004912700628829539,3.301
0.004891277025219931,3.302
0.004870562243176449,3.303
0.004850561664940896,3.304
0.004831281661012877,3.305
0.0048127290823514225,3.306
0.004794909984595696,3.307
0.004777828064572328,3.308
0.00476148377303196,3.309
0.004745874573625594,3.31
0.00473099559365995,3.311
0.00471683971625586,3.312
0.004703397036312587,3.313
0.0046906543839205245,3.314
0.004678595643336784,3.315
0.004667202829103616,3.316
0.0046564572828329005,3.317
0.004646340503312876,3.318
0.004636834470188955,3.319
0.004627921485467301,3.32
0.004619583601562144,3.321
0.004611801693048122,3.322
0.004604554349025753,3.323
0.004597817142016153,3.324
0.004591562874713085,3.325
0.004585762698960764,3.326
0.004580387391539679,3.327
0.004575408181532568,3.328
0.004570796861227012,3.329
0.004566525105178257,3.33
0.0045625632171516235,3.331
0.004558879090791595,3.332
0.004555438269506788,3.333
0.004552205020290626,3.334
0.004549143412167348,3.335
0.004546217560816619,3.336
0.004543390852574164,3.337
0.004540624694610898,3.338
0.004537878078143171,3.339
0.0045351088060589404,3.34
0.004532275796819156,3.341
0.0045293414188064905,3.342
0.004526273317661304,3.343
0.0045230454161259565,3.344
0.004519637720863442,3.345
0.0045160346397158735,3.346
0.004512222275836554,3.347
0.004508186741142744,3.348
0.004503915489932844,3.349
0.004499400991375675,3.35
0.004494644213259881,3.351
0.0044896560932849786,3.352
0.004484456473267981,3.353
0.004479070856232301,3.354
0.004473526317569923,3.355
0.0044678486039325125,3.356
0.004462061213811601,3.357
0.004456185261289244,3.358
0.004450239454707668,3.359
0.004444240799836739,3.36
0.0044382057429550375,3.361
0.004432150492427857,3.362
0.0044260901388108245,3.363
0.004420037628666052,3.364
0.004414003756169103,3.365
0.004407998024405435,3.366
0.004402029411393724,3.367
0.004396106586638699,3.368
0.004390237791759335,3.369
0.004384430741513518,3.37
0.004378692771504727,3.371
0.004373031285005007,3.372
0.004367454415805496,3.373
0.004361971752311694,3.374
0.004356594940717937,3.375
0.004351337978919445,3.376
0.004346217028239884,3.377
0.004341249620876068,3.378
0.004336453246116148,3.379
0.004331843756991571,3.38
0.004327434737206902,3.381
0.004323238557476901,3.382
0.004319268409607744,3.383
0.004315540159358703,3.384
0.0043120734725442,3.385
0.004308892076441235,3.386
0.004306023159377271,3.387
0.00430349603228022,3.388
0.004301340262507982,3.389
0.004299583812424694,3.39
0.004298252161245816,3.391
0.004297368842407205,3.392
0.004296956538079357,3.393
0.0042970376382956916,3.394
0.004297633888097434,3.395
0.004298765389015776,3.396
0.004300449814780528,3.397
0.00430270267586057,3.398
0.004305538437329755,3.399
0.00430897153318732,3.4
0.004313016552349741,3.401
0.00431768746058727,3.402
0.004322996490528823,3.403
0.004328953958671995,3.404
0.004335569566260735,3.405
0.004342854276527375,3.406
0.004350821571266538,3.407
0.004359487593029766,3.408
0.004368870184032058,3.409
0.004378987142721806,3.41
0.004389854489974269,3.411
0.0044014857808012215,3.412
0.00441389274462815,3.413
0.004427086489950484,3.414
0.004441078525828738,3.415
0.004455881418866955,3.416
0.004471509042617559,3.417
0.004487976294166765,3.418
0.004505298210905499,3.419
0.004523488609293493,3.42
0.004542558661281879,3.421
0.0045625160256805965,3.422
0.00458336474519436,3.423
0.004605105428944065,3.424
0.004627735241834284,3.425
0.004651247686271475,3.426
0.004675632355226814,3.427
0.004700874806419246,3.428
0.0047269566561353935,3.429
0.004753855917536333,3.43
0.004781547505903122,3.431
0.004810003730439471,3.432
0.004839194554440267,3.433
0.00486908749210887,3.434
0.004899647218779612,3.435
0.004930835212542039,3.436
0.0049626098687240395,3.437
0.0049949274092126635,3.438
0.0050277435575166365,3.439
0.005061015544855305,3.44
0.005094703780505427,3.441
0.005128772576467926,3.442
0.005163189601319268,3.443
0.005197924080111836,3.444
0.005232944420391516,3.445
0.005268216951036281,3.446
0.005303707138573236,3.447
0.0053393826826694775,3.448
0.005375216849165211,3.449
0.005411190895335309,3.45
0.0054472949702143916,3.451
0.005483527162269941,3.452
0.005519890743019984,3.453
0.005556390448739287,3.454
0.005593029741124817,3.455
0.005629810479410006,3.456
0.005666733961923704,3.457
0.005703801077091501,3.458
0.00574101103116258,3.459
0.005778360564406797,3.46
0.005815845336467734,3.461
0.005853462500610875,3.462
0.005891212333057577,3.463
0.005929097867044694,3.464
0.005967122821103165,3.465
0.006005289475570507,3.466
0.006043598631854947,3.467
0.006082051954399863,3.468
0.006120654858135197,3.469
0.006159418197175586,3.47
0.006198358254630811,3.471
0.006237495275674937,3.472
0.006276851095030036,3.473
0.006316446540982758,3.474
0.006356299245128019,3.475
0.006396422303662728,3.476
0.0064368239872760165,3.477
0.006477508434249361,3.478
0.006518477019575834,3.479
0.0065597298865640195,3.48
0.006601266975034989,3.481
0.006643087848597444,3.482
0.0066851903319341995,3.483
0.006727569657618962,3.484
0.006770220156311876,3.485
0.006813139139425927,3.486
0.006856330600249732,3.487
0.006899806738208827,3.488
0.006943586584654776,3.489
0.006987692293943675,3.49
0.007032145231761454,3.491
0.007076964460760941,3.492
0.007122167890333815,3.493
0.007167773715487598,3.494
0.007213800151365454,3.495
0.00726026355601271,3.496
0.007307176490693259,3.497
0.0073545471958894855,3.498
0.007402380259966277,3.499
0.007450676946975012,3.5
0.007499434441159767,3.501
0.007548644911592133,3.502
0.007598295594733425,3.503
0.007648369720997242,3.504
0.007698847027619417,3.505
0.007749703182786664,3.506
0.00780090891769252,3.507
0.007852430225294188,3.508
0.007904229716382065,3.509
0.007956267758492341,3.51
0.008008502166250835,3.511
0.008060886693386995,3.512
0.00811337019895648,3.513
0.00816589801641645,3.514
0.008218414714128397,3.515
0.008270866338231498,3.516
0.008323201018544318,3.517
0.008375367581631179,3.518
0.008427312845187869,3.519
0.008478980057573146,3.52
0.008530310740299467,3.521
0.008581249162809133,3.522
0.008631746887440072,3.523
0.008681765669916465,3.524
0.00873127808107042,3.525
0.008780265704564517,3.526
0.0088287150938876,3.527
0.008876612773700046,3.528
0.008923942478850495,3.529
0.008970686947595377,3.53
0.009016832506684804,3.531
0.00906237298905511,3.532
0.009107311262482968,3.533
0.00915165825913785,3.534
0.009195430076318319,3.535
0.009238644091226681,3.536
0.009281315096386992,3.537
0.009323452213283607,3.538
0.009365056920349897,3.539
0.009406122163042999,3.54
0.009446632358900508,3.541
0.009486564151660359,3.542
0.009525887843924954,3.543
0.009564569381352377,3.544
0.009602572529387815,3.545
0.009639860589380815,3.546
0.009676396840563069,3.547
0.009712143136777566,3.548
0.009747057556186095,3.549
0.009781094075112406,3.55
0.009814206265696911,3.551
0.009846353262692863,3.552
0.009877504882658605,3.553
0.009907644238821133,3.554
0.009936767468945947,3.555
0.00996488090865574,3.556
0.009991996577307085,3.557
0.010018127002435324,3.558
0.010043280594734858,3.559
0.010067459154564572,3.56
0.01009065820217993,3.561
0.010112868830725597,3.562
0.010134079276111945,3.563
0.010154275399960194,3.564
0.010173439984453045,3.565
0.010191551038383708,3.566
0.010208579698753684,3.567
0.010224488578229638,3.568
0.010239231221547766,3.569
0.010252753130510668,3.57
0.010264994753163607,3.571
0.010275896253921757,3.572
0.010285403078866013,3.573
0.010293470955118202,3.574
0.010300068902014573,3.575
0.010305179004304863,3.576
0.010308792193460148,3.577
0.010310901737754214,3.578
0.010311500298132915,3.579
0.01031058488606344,3.58
0.010308166378976507,3.581
0.01030427733364879,3.582
0.01029897505139807,3.583
0.010292339489845845,3.584
0.010284466801768625,3.585
0.010275460537511856,3.586
0.01026542416264494,3.587
0.010254458547508314,3.588
0.010242664348743763,3.589
0.010230145564709513,3.59
0.010217011359109799,3.591
0.010203375812484414,3.592
0.010189356259496107,3.593
0.010175070885584715,3.594
0.0101606361515642,3.595
0.010146164465198343,3.596
0.010131762388067215,3.597
0.010117529568291575,3.598
0.010103558485490344,3.599
0.010089934939070205,3.6
0.010076739012818208,3.601
0.010064046074230955,3.602
0.010051927295665732,3.603
0.010040449263791395,3.604
0.010029672716809088,3.605
0.010019651448985676,3.606
0.010010432775964003,3.607
0.010002059642149301,3.608
0.009994573060395312,3.609
0.009988013696042517,3.61
0.009982422186558728,3.611
0.009977838232721381,3.612
0.009974298697048396,3.613
0.009971835230033485,3.614
0.009970472442494131,3.615
0.009970227612465654,3.616
0.009971111762269218,3.617
0.00997313089963513,3.618
0.009976286364756025,3.619
0.009980574038583725,3.62
0.009985983360010026,3.621
0.009992497909502246,3.622
0.010000098140470658,3.623
0.010008764799718347,3.624
0.010018481232027773,3.625
0.010029233732738589,3.626
0.010041009874008189,3.627
0.01005379537137635,3.628
0.010067571178652281,3.629
0.010082313039448789,3.63
0.01009799395389968,3.631
0.01011458765956107,3.632
0.010132071166325342,3.633
0.010150425646061688,3.634
0.010169635635911455,3.635
0.010189686693409587,3.636
0.010210562043033338,3.637
0.010232239758814722,3.638
0.01025469241452591,3.639
0.010277889269317466,3.64
0.010301798809007567,3.641
0.01032638949881379,3.642
0.01035162816994502,3.643
0.010377477562517617,3.644
0.010403896174247742,3.645
0.010430841849599344,3.646
0.010458276810163864,3.647
0.010486170902454822,3.648
0.010514501451641012,3.649
0.010543249646821424,3.65
0.010572395653287915,3.651
0.010601916918289178,3.652
0.010631791797953963,3.653
0.010662005321382685,3.654
0.010692552828233177,3.655
0.010723439869908025,3.656
0.010754678589955168,3.657
0.010786282046751475,3.658
0.010818259515830977,3.659
0.010850615311368833,3.66
0.010883350217001833,3.661
0.010916462418165386,3.662
0.01094994627825568,3.663
0.010983789930953974,3.664
0.011017974022315608,3.665
0.011052472610129822,3.666
0.011087254604831523,3.667
0.011122283708189202,3.668
0.011157516916484334,3.669
0.011192903950726932,3.67
0.011228389395877763,3.671
0.011263916130394156,3.672
0.011299427344407606,3.673
0.01133486585710797,3.674
0.01137017127547993,3.675
0.011405277370677279,3.676
0.011440112160115597,3.677
0.01147460040682093,3.678
0.01150866600328424,3.679
0.011542232337845963,3.68
0.011575220324418205,3.681
0.011607545447662009,3.682
0.011639116784555042,3.683
0.011669839708138372,3.684
0.011699620477479479,3.685
0.011728369944229098,3.686
0.0117560051127524,3.687
0.011782448272382045,3.688
0.011807623728206217,3.689
0.01183145323376865,3.69
0.01185385324535393,3.691
0.01187473668682045,3.692
0.011894018053962523,3.693
0.011911618551798366,3.694
0.011927469367942463,3.695
0.011941512915232395,3.696
0.011953702562165143,3.697
0.011964001410627,3.698
0.01197238027168385,3.699
0.01197881446553436,3.7
0.011983279366612861,3.701
0.011985746670179924,3.702
0.011986184885033674,3.703
0.011984564911004848,3.704
0.011980867486484222,3.705
0.011975088917335761,3.706
0.011967243486051972,3.707
0.011957362189340027,3.708
0.011945488076501354,3.709
0.01193166917733662,3.71
0.011915951491107251,3.711
0.011898375756551479,3.712
0.011878979277106677,3.713
0.011857799833285157,3.714
0.011834878533969515,3.715
0.011810260974671924,3.716
0.01178399705767768,3.717
0.011756139608559394,3.718
0.011726741737577349,3.719
0.011695853290054905,3.72
0.011663518104624447,3.721
0.011629774411547212,3.722
0.011594658629664332,3.723
0.011558210388593611,3.724
0.01152047665802198,3.725
0.011481514082924537,3.726
0.011441389225867425,3.727
0.011400176632935681,3.728
0.011357954840070707,3.729
0.011314801303599752,3.73
0.01127078908226425,3.731
0.011225988069989657,3.732
0.01118047016842774,3.733
0.011134315210292893,3.734
0.011087615154056549,3.735
0.011040475590969826,3.736
0.010993014483619862,3.737
0.010945358707602184,3.738
0.010897639425763102,3.739
0.010849987387071556,3.74
0.010802528929959662,3.741
0.010755383081993777,3.742
0.01070866001741076,3.743
0.010662461023659928,3.744
0.010616879686134253,3.745
0.01057200363698798,3.746
0.010527916266464932,3.747
0.010484697929680993,3.748
0.010442426239288706,3.749
0.010401175184328414,3.75
0.010361013307977214,3.751
0.010322002056121835,3.752
0.010284195538181808,3.753
0.010247641428557998,3.754
0.010212381372070058,3.755
0.010178450361362319,3.756
0.010145876954805769,3.757
0.010114686048062845,3.758
0.010084903156813492,3.759
0.010056557919111786,3.76
0.01002968547912906,3.761
0.010004325402983785,3.762
0.009980518415224056,3.763
0.00995830221808727,3.764
0.009937708682516649,3.765
0.009918763748469936,3.766
0.009901488755614776,3.767
0.00988590121375276,3.768
0.00987201442712027,3.769
0.00985983631254603,3.77
0.00984936794191992,3.771
0.009840602664282692,3.772
0.009833526630412747,3.773
0.00982812062196229,3.774
0.009824362227622566,3.775
0.009822227333723432,3.776
0.009821690134915162,3.777
0.009822721553673591,3.778
0.009825287603925894,3.779
0.009829350069642336,3.78
0.009834869875817198,3.781
0.0098418110778859,3.782
0.009850143475642574,3.783
0.009859843251391904,3.784
0.009870891884931518,3.785
0.009883273959812654,3.786
0.009896974605679868,3.787
0.009911977211051099,3.788
0.00992826177054615,3.789
0.009945803921808596,3.79
0.009964574464496882,3.791
0.009984538964487723,3.792
0.010005656969679616,3.793
0.010027880927892849,3.794
0.01005115613262666,3.795
0.010075422911267371,3.796
0.010100620339042788,3.797
0.010126689693538027,3.798
0.010153576359519259,3.799
0.010181229573695334,3.8
0.010209600035829894,3.801
0.010238636158427905,3.802
0.010268280376351899,3.803
0.010298466838874176,3.804
0.010329120780332626,3.805
0.010360159414202246,3.806
0.0103914944412191,3.807
0.0104230356712207,3.808
0.010454694542959017,3.809
0.010486386508999175,3.81
0.010518031627720817,3.811
0.010549552924178147,3.812
0.010580872915389991,3.813
0.010611910764693592,3.814
0.010642583406606895,3.815
0.010672811009608155,3.816
0.010702523606639976,3.817
0.010731665587943317,3.818
0.010760196400355916,3.819
0.010788086988661494,3.82
0.010815313212731013,3.821
0.010841850302298946,3.822
0.010867672566948622,3.823
0.01089275771360602,3.824
0.010917091147113419,3.825
0.010940666968097458,3.826
0.010963485326223375,3.827
0.010985547437948991,3.828
0.011006850993224609,3.829
0.011027389064698839,3.83
0.011047152998772179,3.831
0.011066136728575465,3.832
0.011084340146329546,3.833
0.011101770928362233,3.834
0.011118444967714284,3.835
0.01113438566309736,3.836
0.011149622316094985,3.837
0.011164187775027907,3.838
0.01117811526749651,3.839
0.011191434760838148,3.84
0.011204170721931616,3.841
0.011216343642110443,3.842
0.011227975304059477,3.843
0.011239095387431364,3.844
0.011249747129151328,3.845
0.011259990800368696,3.846
0.011269904391132483,3.847
0.011279581392827963,3.848
0.011289126084881666,3.849
0.011298647126456503,3.85
0.011308251097054944,3.851
0.011318038810315307,3.852
0.011328105921388956,3.853
0.01133854580944393,3.854
0.011349451720944632,3.855
0.011360916969028871,3.856
0.011373033353332607,3.857
0.01138588848363433,3.858
0.011399563004747683,3.859
0.01141412874648209,3.86
0.0114296484918457,3.861
0.011446177476375767,3.862
0.011463766122168324,3.863
0.011482463094297244,3.864
0.011502317672637919,3.865
0.011523380652012359,3.866
0.011545703418535402,3.867
0.01156933536800439,3.868
0.011594320529305329,3.869
0.011620694996696395,3.87
0.011648486308110127,3.871
0.011677714070980578,3.872
0.011708390217609175,3.873
0.011740518265310631,3.874
0.01177409236209248,3.875
0.011809097181759536,3.876
0.011845508667241288,3.877
0.011883294644003568,3.878
0.011922414550430733,3.879
0.01196281849716303,3.88
0.012004446842663562,3.881
0.012047231382454343,3.882
0.01209109800760629,3.883
0.012135970034354645,3.884
0.012181771678308057,3.885
0.012228431243594733,3.886
0.01227588342076856,3.887
0.012324070069893956,3.888
0.01237293913750505,3.889
0.012422441802880888,3.89
0.012472528318965061,3.891
0.012523143618346418,3.892
0.012574224726593152,3.893
0.012625701513788576,3.894
0.012677499948879237,3.895
0.012729545905736241,3.896
0.012781768515319989,3.897
0.01283410292088449,3.898
0.01288649237534998,3.899
0.01293888942353507,3.9
0.012991255721061775,3.901
0.013043560040865,3.902
0.013095774303094426,3.903
0.013147868334681422,3.904
0.013199805582645803,3.905
0.013251542161332534,3.906
0.013303028888938083,3.907
0.013354213549091136,3.908
0.01340504139592579,3.909
0.013455453863499282,3.91
0.013505386387116894,3.911
0.013554766462418046,3.912
0.01360351294984991,3.913
0.013651537176525182,3.914
0.013698745673080126,3.915
0.01374504360433722,3.916
0.013790337397942895,3.917
0.013834535010294639,3.918
0.013877543185106367,3.919
0.013919263668453457,3.92
0.013959592428921114,3.921
0.013998423123796056,3.922
0.014035651050557,3.923
0.01407117341269542,3.924
0.014104885705808713,3.925
0.014136678327020655,3.926
0.014166437817349253,3.927
0.01419405217768295,3.928
0.014219415850751961,3.929
0.014242431283473512,3.93
0.01426300670476662,3.931
0.01428105104661429,3.932
0.014296468075463085,3.933
0.01430915329674706,3.934
0.014318995947170246,3.935
0.014325884596030946,3.936
0.014329713702128818,3.937
0.01433038996652312,3.938
0.014327837918956188,3.939
0.014322003823201429,3.94
0.014312856840863992,3.941
0.014300386689736997,3.942
0.014284597717967166,3.943
0.014265500326350959,3.944
0.014243102669634095,3.945
0.014217407288176947,3.946
0.014188414521182729,3.947
0.014156129412572872,3.948
0.014120568417505247,3.949
0.01408176507162976,3.95
0.014039774864664746,3.951
0.013994679103386469,3.952
0.013946586953425157,3.953
0.013895634485859683,3.954
0.013841979749898047,3.955
0.01378579371772731,3.956
0.01372724983809458,3.957
0.013666518916449764,3.958
0.013603773230600077,3.959
0.01353919523748461,3.96
0.013472984235805507,3.961
0.013405358760221177,3.962
0.013336555160799764,3.963
0.013266823405856538,3.964
0.013196421372812833,3.965
0.013125608758423724,3.966
0.013054641443076113,3.967
0.012983767197655134,3.968
0.012913223815294564,3.969
0.012843239732265737,3.97
0.012774035645047133,3.971
0.012705825731060211,3.972
0.012638818164158213,3.973
0.012573215016105744,3.974
0.012509211583604869,3.975
0.012446995198544544,3.976
0.012386743767481476,3.977
0.012328624593327177,3.978
0.012272793932791586,3.979
0.012219397027005032,3.98
0.012168568058917213,3.981
0.012120430194781847,3.982
0.012075096217077341,3.983
0.012032669632010799,3.984
0.011993245716035463,3.985
0.011956912157186236,3.986
0.011923749160051235,3.987
0.011893829009371457,3.988
0.011867215258813296,3.989
0.01184396186585498,3.99
0.011824112617169457,3.991
0.011807701049288181,3.992
0.011794750842146234,3.993
0.011785276451093942,3.994
0.011779283610138878,3.995
0.011776769317207671,3.996
0.011777721260692367,3.997
0.01178211745308474,3.998
0.011789927005214926,3.999
0.011801111871461692,4.0
0.01181562850715129,4.001
0.01183342870540209,4.002
0.011854459636084084,4.003
0.011878663586428308,4.004
0.011905977971328564,4.005
0.011936335854311036,4.006
0.011969666692359226,4.007
0.012005896599456898,4.008
0.012044947346305604,4.009
0.01208673426314992,4.01
0.012131165164471835,4.011
0.012178142414404833,4.012
0.012227567362004725,4.013
0.01227934460574843,4.014
0.012333384347811569,4.015
0.012389602184692872,4.016
0.012447916262009712,4.017
0.012508242720163447,4.018
0.012570492128820488,4.019
0.012634569694575267,4.02
0.012700378792331294,4.021
0.012767824661734845,4.022
0.012836815877179605,4.023
0.012907263108219262,4.024
0.0129790756539978,4.025
0.013052157133910648,4.026
0.01312640291289728,4.027
0.013201700876436231,4.028
0.013277934003506024,4.029
0.013354981946663673,4.03
0.01343272018089655,4.031
0.01351101734806965,4.032
0.013589733558556222,4.033
0.013668721700984906,4.034
0.01374782997502023,4.035
0.013826902277347737,4.036
0.013905776225167374,4.037
0.013984283079994119,4.038
0.0140622532074327,4.039
0.014139524880556774,4.04
0.014215951334874565,4.041
0.014291402800927697,4.042
0.01436576252081663,4.043
0.014438918514852645,4.044
0.014510756555601294,4.045
0.014581159570338795,4.046
0.014650012713147892,4.047
0.014717209329844959,4.048
0.014782655114185838,4.049
0.014846270670419931,4.05
0.014907993152444175,4.051
0.014967776974765893,4.052
0.0150255930061476,4.053
0.015081425539447982,4.054
0.015135266731272034,4.055
0.015187109313863429,4.056
0.015236940398283284,4.057
0.01528473980580626,4.058
0.015330483009320824,4.059
0.01537414510625404,4.06
0.015415702879012016,4.061
0.015455134590693967,4.062
0.015492418422279466,4.063
0.015527530731331767,4.064
0.015560445280714322,4.065
0.015591134236320484,4.066
0.015619571123851114,4.067
0.01564573521635349,4.068
0.015669616218112577,4.069
0.015691217829972723,4.07
0.01571055891079288,4.071
0.015727671388635314,4.072
0.015742594643549785,4.073
0.015755367877825447,4.074
0.015766025289015436,4.075
0.015774598453652693,4.076
0.015781124332545346,4.077
0.01578565359801772,4.078
0.015788255904969805,4.079
0.01578902141080526,4.08
0.015788059027550115,4.081
0.01578549238198044,4.082
0.01578145456650186,4.083
0.01577608251364999,4.084
0.015769511370812134,4.085
0.01576186934836634,4.086
0.0157532746828486,4.087
0.015743836504612654,4.088
0.015733659030995745,4.089
0.015722846556099894,4.09
0.015711507201181273,4.091
0.015699754526025265,4.092
0.015687706681807207,4.093
0.015675483198971784,4.094
0.015663200053239238,4.095
0.01565096477828418,4.096
0.01563887431750574,4.097
0.015627016525947442,4.098
0.015615473089147474,4.099
0.015604321317363456,4.1
0.015593633994650588,4.101
0.015583477380502236,4.102
0.015573908235931954,4.103
0.015564972047898494,4.104
0.015556704233867909,4.105
0.015549133587960121,4.106
0.015542285852989068,4.107
0.015536185893585547,4.108
0.015530857555952998,4.109
0.015526320925054347,4.11
0.015522588737098044,4.111
0.015519665705840026,4.112
0.015517552321253444,4.113
0.015516250080255426,4.114
0.015515764325811308,4.115
0.01551610329166081,4.116
0.015517273870375731,4.117
0.01551927663493024,4.118
0.015522104294163456,4.119
0.015525745289514914,4.12
0.015530189560702998,4.121
0.015535432807297422,4.122
0.015541477968552242,4.123
0.01554833403955629,4.124
0.01555601265502071,4.125
0.01556452304951958,4.126
0.015573867036150579,4.127
0.015584037287338311,4.128
0.015595020800602785,4.129
0.015606805354287235,4.13
0.015619385521787581,4.131
0.01563276646666289,4.132
0.015646964835387522,4.133
0.015662006526057395,4.134
0.015677921687984365,4.135
0.015694738161101642,4.136
0.01571247584009469,4.137
0.01573114448091936,4.138
0.015750744603280672,4.139
0.015771268426207755,4.14
0.015792698861988436,4.141
0.015815007688695933,4.142
0.01583815522285249,4.143
0.015862091941070806,4.144
0.015886760222064294,4.145
0.015912094455005067,4.146
0.015938019454209144,4.147
0.015964449011609726,4.148
0.01599128696712069,4.149
0.016018431043429933,4.15
0.016045777317942257,4.151
0.01607322333123673,4.152
0.016100669274551695,4.153
0.01612801778284637,4.154
0.016155173492982837,4.155
0.016182043715545644,4.156
0.016208541102476003,4.157
0.01623458805426242,4.158
0.01626012116628113,4.159
0.016285092994228964,4.16
0.01630946850413557,4.161
0.016333217061269466,4.162
0.016356307537722346,4.163
0.01637871389677691,4.164
0.016400428273021794,4.165
0.01642147245711905,4.166
0.01644190237111473,4.167
0.016461805081344583,4.168
0.016481290362808813,4.169
0.01650047976517646,4.17
0.01651949582715733,4.171
0.016538453623268345,4.172
0.016557456832838807,4.173
0.01657659876944431,4.174
0.016595965693831788,4.175
0.016615639309525265,4.176
0.016635697094123738,4.177
0.01665621019007258,4.178
0.016677239952059535,4.179
0.016698836191211094,4.18
0.016721038858626504,4.181
0.016743880807888505,4.182
0.016767388239365737,4.183
0.016791578521688333,4.184
0.01681645869915423,4.185
0.016842028053873446,4.186
0.016868284088503015,4.187
0.016895228671251063,4.188
0.016922872057387843,4.189
0.016951233910451523,4.19
0.016980341031965083,4.191
0.01701022195437002,4.192
0.017040900129672916,4.193
0.017072389939758934,4.194
0.017104698397661686,4.195
0.017137830050290973,4.196
0.017171790740225106,4.197
0.01720658857046639,4.198
0.017242232615937676,4.199
0.017278730489319903,4.2
0.017316085702781713,4.201
0.01735429514297378,4.202
0.017393346381889038,4.203
0.017433215242789617,4.204
0.01747386590263975,4.205
0.01751525527266915,4.206
0.017557339986736677,4.207
0.017600082665992552,4.208
0.01764345516590295,4.209
0.017687437794400872,4.21
0.017732014515781,4.211
0.017777165908217766,4.212
0.01782286411465691,4.213
0.017869073512057274,4.214
0.017915756050300238,4.215
0.017962877207679265,4.216
0.018010410004573194,4.217
0.018058336570595412,4.218
0.018106647377129095,4.219
0.01815533832105784,4.22
0.018204405870055732,4.221
0.01825384111016532,4.222
0.018303625388428963,4.223
0.018353730780919043,4.224
0.018404125288104183,4.225
0.018454779166062193,4.226
0.01850566910605764,4.227
0.018556778989321412,4.228
0.018608097175945217,4.229
0.01865961097253199,4.23
0.018711300072196124,4.231
0.018763132258963217,4.232
0.018815063568090998,4.233
0.01886704131124168,4.234
0.018919006994311132,4.235
0.018970898053414797,4.236
0.019022648852564224,4.237
0.019074191513281144,4.238
0.019125456798353913,4.239
0.019176374853580563,4.24
0.019226875263249656,4.241
0.019276885691248673,4.242
0.019326328418020976,4.243
0.019375115711722356,4.244
0.01942314826763683,4.245
0.019470320288869636,4.246
0.01951652918705023,4.247
0.019561685211664886,4.248
0.01960571796288846,4.249
0.019648578234253124,4.25
0.019690234555114497,4.251
0.01973066492301249,4.252
0.019769846374970302,4.253
0.01980774813829088,4.254
0.01984433271786857,4.255
0.019879562412006183,4.256
0.01991340519655402,4.257
0.01994583635152305,4.258
0.019976834973720423,4.259
0.020006376993716195,4.26
0.02003443002093392,4.261
0.02006095485793139,4.262
0.02008591161808428,4.263
0.020109263963332166,4.264
0.020130977411883123,4.265
0.020151013106470217,4.266
0.020169323754436422,4.267
0.020185857413650973,4.268
0.020200566877393605,4.269
0.020213418646270003,4.27
0.02022439853864862,4.271
0.020233513846438605,4.272
0.020240792541119434,4.273
0.020246279870034703,4.274
0.020250032424198223,4.275
0.020252109773448216,4.276
0.020252565505230184,4.277
0.020251442676913353,4.278
0.020248777210554552,4.279
0.020244606416312434,4.28
0.020238977723190586,4.281
0.02023195552138507,4.282
0.02022362570799259,4.283
0.020214097503635318,4.284
0.02020350203245888,4.285
0.020191987457162327,4.286
0.020179711212073546,4.287
0.02016683079535627,4.288
0.020153495175455848,4.289
0.020139838744313524,4.29
0.02012597885686726,4.291
0.02011201666860437,4.292
0.020098039780737313,4.293
0.02008412461003891,4.294
0.020070336571098853,4.295
0.02005672816114808,4.296
0.020043338718841678,4.297
0.02003019951716885,4.298
0.020017342620248093,4.299
0.020004809029179466,4.3
0.019992653182120585,4.301
0.01998094287424737,4.302
0.019969755145627932,4.303
0.019959169906192984,4.304
0.019949263474456816,4.305
0.01994010363006291,4.306
0.019931746625475952,4.307
0.01992423556029603,4.308
0.01991759906883883,4.309
0.019911849826024557,4.31
