VaMe,time
-0.003139602412410191,0.001
0.000974658599562185,0.002
0.0036982615831228647,0.003
0.0038059376360745703,0.004
0.0006836900097445773,0.005
-0.00534772283383743,0.006
-0.013079571452098862,0.007
-0.020921627794381153,0.008
-0.02748617639658286,0.009
-0.03182140884099399,0.01
-0.033243033037446135,0.011
-0.031155929688418713,0.012
-0.02525733889090877,0.013
-0.015915442900843683,0.014
-0.004219247626503526,0.015
0.008369480723524902,0.016
0.020412430086467453,0.017
0.03062898502775314,0.018
0.03785327942764252,0.019
0.04117490379139512,0.02
0.040274263148925016,0.021
0.035530398502055256,0.022
0.027762058752458487,0.023
0.017975685721041558,0.024
0.007351575625020421,0.025
-0.002702985951821357,0.026
-0.010594797552914807,0.027
-0.014823643030286472,0.028
-0.014635494711445731,0.029
-0.010648007635085135,0.03
-0.004710578001149871,0.031
0.0009752579665599219,0.032
0.004596315343316058,0.033
0.004869150967899673,0.034
0.0010529249330507547,0.035
-0.006732825804933661,0.036
-0.017100474515065932,0.037
-0.027399791760445064,0.038
-0.03445528879777571,0.039
-0.03582861998916092,0.04
-0.031000229255723013,0.041
-0.021812732607030136,0.042
-0.011657902593131519,0.043
-0.0037468167512124144,0.044
0.0003035671004478846,0.045
0.0008953444067779588,0.046
0.0001036067870043083,0.047
0.0008111972406702076,0.048
0.0055649608411341474,0.049
0.015405497329382872,0.05
0.028906756137731884,0.051
0.042133541909355796,0.052
0.05017421654128753,0.053
0.04946276066715685,0.054
0.03923415486018233,0.055
0.021509561774152777,0.056
0.00013494568756928062,0.057
-0.020446133609960802,0.058
-0.03623060299415113,0.059
-0.04451605358753162,0.06
-0.04461778382507353,0.061
-0.037973744508089866,0.062
-0.027387049063265022,0.063
-0.015824669631284337,0.064
-0.005252144634314899,0.065
0.004048370109599773,0.066
0.013177964652979251,0.067
0.02342173320773636,0.068
0.03487530727969314,0.069
0.04563168486265611,0.07
0.05206845608498574,0.071
0.050342452147109785,0.072
0.03830405215405872,0.073
0.016613838044877892,0.074
-0.011376146319726329,0.075
-0.04047794291390303,0.076
-0.0648262756745655,0.077
-0.07925126511575833,0.078
-0.08055346615731133,0.079
-0.06826401106360358,0.08
-0.044789666122978564,0.081
-0.014926782592669163,0.082
0.015316157062920055,0.083
0.04033681902900414,0.084
0.056359469431010965,0.085
0.062156262749570604,0.086
0.059020514451879724,0.087
0.05003527107946406,0.088
0.03872282070940213,0.089
0.027659815276608265,0.09
0.0178941897774699,0.091
0.009289451136731483,0.092
0.001132096520051185,0.093
-0.007376241929842908,0.094
-0.016455979232942855,0.095
-0.02498712435906425,0.096
-0.0306026781253532,0.097
-0.031186292092939386,0.098
-0.02669093352930916,0.099
-0.01958333300520304,0.1
-0.013636417116552923,0.101
-0.012244928774559795,0.102
-0.01714547530886833,0.103
-0.02766641297916223,0.104
-0.040559850111843224,0.105
-0.05054968523690901,0.106
-0.05183871683633206,0.107
-0.040461938344890216,0.108
-0.01630798795301532,0.109
0.016502657097410944,0.11
0.05089289975461928,0.111
0.07900718306702767,0.112
0.0946722935110337,0.113
0.0952964170607733,0.114
0.08234571780545542,0.115
0.06030567276931918,0.116
0.034792784788216895,0.117
0.010820113257475075,0.118
-0.008130615539360132,0.119
-0.02047949925372935,0.12
-0.026745688063807463,0.121
-0.02928916003222661,0.122
-0.031347418898491256,0.123
-0.035720578330637895,0.124
-0.04366890491139646,0.125
-0.054456783951236834,0.126
-0.06558379759941842,0.127
-0.0733509436907817,0.128
-0.0736050491107913,0.129
-0.06285908958452606,0.13
-0.03971478390883644,0.131
-0.005968899316772014,0.132
0.033248518355370314,0.133
0.07045053128487677,0.134
0.09750870703452921,0.135
0.10768584896426821,0.136
0.0977872707113329,0.137
0.06975764614539008,0.138
0.03046556843176134,0.139
-0.010548749735195154,0.14
-0.04409371411510305,0.141
-0.06384266593996574,0.142
-0.06766711411199967,0.143
-0.05758821578274749,0.144
-0.0386599340668276,0.145
-0.017129196190197007,0.146
0.0016601391570920073,0.147
0.014699007247478885,0.148
0.021591035044267296,0.149
0.024088283016002493,0.15
0.02526820523123778,0.151
0.028226804577874524,0.152
0.0343925014215999,0.153
0.04237098087096065,0.154
0.04826436403267664,0.155
0.0472915086915511,0.156
0.03572179256491863,0.157
0.012537866225057677,0.158
-0.019378173011875385,0.159
-0.053317486191632124,0.16
-0.08070697070798531,0.161
-0.09400283439048585,0.162
-0.08901535350462081,0.163
-0.06612657991302591,0.164
-0.03034759109624763,0.165
0.009827817970956871,0.166
0.04477291483343644,0.167
0.06691526513819308,0.168
0.07328137851159543,0.169
0.06583291439531552,0.17
0.04979063600769846,0.171
0.03120943152479188,0.172
0.014740606118992675,0.173
0.0023417691574807668,0.174
-0.006722901511627441,0.175
-0.014979327686514084,0.176
-0.02516786384023854,0.177
-0.03836649799505859,0.178
-0.052983659174765475,0.179
-0.06529753557353773,0.18
-0.07108986415137249,0.181
-0.06746858412612412,0.182
-0.05397164986296484,0.183
-0.03260925531889127,0.184
-0.007027557115985123,0.185
0.018898637130416736,0.186
0.04227280352508893,0.187
0.06127138015508999,0.188
0.07427601785499706,0.189
0.07918027973638138,0.19
0.07375628864559587,0.191
0.05706023191752857,0.192
0.030849924921346916,0.193
-0.00032054389078451317,0.194
-0.030392869845427894,0.195
-0.053337147868319446,0.196
-0.0643840031692735,0.197
-0.06131792737858487,0.198
-0.04561923719630155,0.199
-0.02231524595948876,0.2
0.0019508484624507297,0.201
0.021523803415746542,0.202
0.03334721657978051,0.203
0.03690213465945185,0.204
0.03330448597056374,0.205
0.024838009910089477,0.206
0.015037298820247829,0.207
0.008209904919873931,0.208
0.007698944421108655,0.209
0.013800429111214187,0.21
0.023039051265783705,0.211
0.02966850073416643,0.212
0.028767639715904125,0.213
0.019019423456095082,0.214
0.003214909889382453,0.215
-0.013596825487394873,0.216
-0.026540163169948335,0.217
-0.03245261461181487,0.218
-0.030537057809397247,0.219
-0.022555744102222986,0.22
-0.01226047323607277,0.221
-0.00386594649972575,0.222
-0.0004294544523077721,0.223
-0.0031617087521187475,0.224
-0.011681183914192601,0.225
-0.024295612668731523,0.226
-0.03795880732993341,0.227
-0.04871912301818163,0.228
-0.05312075459492163,0.229
-0.04980878252070426,0.23
-0.04000236761742174,0.231
-0.026302034181484763,0.232
-0.011168399665760201,0.233
0.0035324395883498524,0.234
0.016431119643843244,0.235
0.02691282518833798,0.236
0.03539291560214174,0.237
0.0428754227357533,0.238
0.050018832574520895,0.239
0.05665177133402313,0.24
0.061962709353670355,0.241
0.06458815440566995,0.242
0.062290306293581205,0.243
0.052228140995217054,0.244
0.032730356825496396,0.245
0.005545373820595136,0.246
-0.023719119453290593,0.247
-0.04762593523234492,0.248
-0.05975895934807424,0.249
-0.05696258563521192,0.25
-0.04060147077376283,0.251
-0.01637857392743146,0.252
0.007631811733780277,0.253
0.023941031900277656,0.254
0.02795555179229472,0.255
0.018823573777089472,0.256
-0.0006999540830724008,0.257
-0.024957438327371552,0.258
-0.046874815366902946,0.259
-0.06024259049101396,0.26
-0.06183309036584831,0.261
-0.05210176046771879,0.262
-0.03439383066046897,0.263
-0.013423311556450589,0.264
0.006367710553658953,0.265
0.022028884830688444,0.266
0.03256386534274968,0.267
0.03863731607311847,0.268
0.04174492474795682,0.269
0.04342409177406507,0.27
0.044882003771581705,0.271
0.04664311465060946,0.272
0.047996079535583734,0.273
0.04701758050070965,0.274
0.04157880260805287,0.275
0.030351641508115056,0.276
0.013063408168630167,0.277
-0.009465063710155912,0.278
-0.03492072426450339,0.279
-0.05927681310436821,0.28
-0.07776021494828864,0.281
-0.08672599057039815,0.282
-0.08490321015381722,0.283
-0.07321202382076111,0.284
-0.0536498496224975,0.285
-0.028176886432298244,0.286
0.0015598619378099368,0.287
0.033452718447202004,0.288
0.06389150968765514,0.289
0.08768321631395162,0.29
0.09957995628249915,0.291
0.09663588529281725,0.292
0.07971693883061279,0.293
0.05324984967356836,0.294
0.02339199805440948,0.295
-0.004501889058180444,0.296
-0.02762609067101184,0.297
-0.04574153809052805,0.298
-0.05989673261465628,0.299
-0.07090862946120541,0.3
-0.07847854160494448,0.301
-0.08109521079528015,0.302
-0.07642507935271672,0.303
-0.062335949796001794,0.304
-0.03850078449238145,0.305
-0.0074445597092624724,0.306
0.025987232239810063,0.307
0.0562234941850505,0.308
0.07812618265964551,0.309
0.08740049661826099,0.31
0.08156131297769106,0.311
0.061520615897016365,0.312
0.03181315045227191,0.313
-0.0011547319366324654,0.314
-0.03108402383703324,0.315
-0.052985932652068565,0.316
-0.06405720730593735,0.317
-0.06419235172202828,0.318
-0.05550514100211974,0.319
-0.04088222300137292,0.32
-0.022664356070423317,0.321
-0.002375030879266448,0.322
0.018846426747246237,0.323
0.039785813584729934,0.324
0.05888367917799995,0.325
0.07422500990499664,0.326
0.08388143836092123,0.327
0.08649222593461042,0.328
0.08156959307987464,0.329
0.06920517866718959,0.33
0.04968835262961834,0.331
0.023662509120550557,0.332
-0.007340352285479304,0.333
-0.04066812864005464,0.334
-0.0729315361755097,0.335
-0.10051393236648448,0.336
-0.1197577644127351,0.337
-0.127260502784111,0.338
-0.12083441494231748,0.339
-0.10073316108233923,0.34
-0.07008746695300042,0.341
-0.03409628627189699,0.342
0.0013685717030232207,0.343
0.031024530361089556,0.344
0.051245086028869236,0.345
0.060837738244171685,0.346
0.06115387883970196,0.347
0.055587200038453036,0.348
0.048714343979166255,0.349
0.04489944900415318,0.35
0.0465411395532632,0.351
0.05283405510095546,0.352
0.0598367226471496,0.353
0.062196332433219766,0.354
0.05587121525409625,0.355
0.040105898047880055,0.356
0.017397110879712543,0.357
-0.008010475565566224,0.358
-0.031630205157276575,0.359
-0.0496966835288399,0.36
-0.0600308565708484,0.361
-0.06280491227096174,0.362
-0.06030889279631198,0.363
-0.05542338247118683,0.364
-0.050092206054854815,0.365
-0.04483828505919302,0.366
-0.038962359912570826,0.367
-0.03100848191937775,0.368
-0.01942680071364237,0.369
-0.0031933414142703673,0.37
0.017653879817321038,0.371
0.04139191885570744,0.372
0.06433997389143833,0.373
0.08168124410759489,0.374
0.08900220601037144,0.375
0.08338031206466115,0.376
0.06403509384520933,0.377
0.03322643076173664,0.378
-0.003374013121509114,0.379
-0.03800847434059564,0.38
-0.06337922399922594,0.381
-0.07495129528961932,0.382
-0.07202163468714601,0.383
-0.05753503804894714,0.384
-0.036941304358961306,0.385
-0.01624737813898829,0.386
-8.61800993183046e-05,0.387
0.009077503420396257,0.388
0.010729634305745419,0.389
0.006081812797503127,0.39
-0.001964312108740216,0.391
-0.009377413270821287,0.392
-0.012244079176852378,0.393
-0.008066624275499696,0.394
0.0033405500412203933,0.395
0.019603760979202668,0.396
0.0364997867430891,0.397
0.049533899962677076,0.398
0.055417643847206835,0.399
0.052411464426520685,0.4
0.03997506972633231,0.401
0.018899310479155995,0.402
-0.008029738903548155,0.403
-0.03577278355705404,0.404
-0.05798642142051864,0.405
-0.06912891855789,0.406
-0.066785273359305,0.407
-0.05279547236358971,0.408
-0.03214422350853985,0.409
-0.010267530899684775,0.41
0.009131387103467751,0.411
0.02444126649041387,0.412
0.03530898898839098,0.413
0.04194118641900699,0.414
0.04486870425557613,0.415
0.04473869617393308,0.416
0.04215092028048008,0.417
0.03769851525839678,0.418
0.03189023862220625,0.419
0.02481033037792489,0.42
0.015964176162333775,0.421
0.004815947295340979,0.422
-0.008250297424658829,0.423
-0.021514189730173907,0.424
-0.03240709701743166,0.425
-0.038448786109731535,0.426
-0.0382701821584078,0.427
-0.032412675911904124,0.428
-0.023364789774476195,0.429
-0.01450390234388839,0.43
-0.008439741489005333,0.431
-0.005998739813359482,0.432
-0.006465495847595138,0.433
-0.008374377937434844,0.434
-0.010127230067823482,0.435
-0.010435566892779715,0.436
-0.008673386697497254,0.437
-0.005099507548227052,0.438
-0.0007778350869334109,0.439
0.0030478336163337946,0.44
0.00574944281664721,0.441
0.007446891688340959,0.442
0.008400371580914393,0.443
0.00840050981169838,0.444
0.006763319640447307,0.445
0.002956176192697659,0.446
-0.002632678030843721,0.447
-0.008479705326761315,0.448
-0.012550535434300519,0.449
-0.013192208122349332,0.45
-0.009579328967009469,0.451
-0.0016980855307761947,0.452
0.009812075494218303,0.453
0.023814727920132752,0.454
0.03875920293716805,0.455
0.052573769390920046,0.456
0.06241237160895717,0.457
0.06472834467627446,0.458
0.05631015842678811,0.459
0.036143810516626365,0.46
0.006773600002706485,0.461
-0.026186633914820314,0.462
-0.05610833511398668,0.463
-0.07737947035696124,0.464
-0.08649801453867444,0.465
-0.08245514427446023,0.466
-0.06669992041118838,0.467
-0.042735684061478395,0.468
-0.015282649233336313,0.469
0.010923047178436993,0.47
0.03212368566581014,0.471
0.04593773296363687,0.472
0.051386978555080995,0.473
0.04882625698509022,0.474
0.0399356299640243,0.475
0.02762746322926272,0.476
0.01541889976905938,0.477
0.006286219643169767,0.478
0.0016161784958865554,0.479
0.0007722219796461114,0.48
0.0013270107710721135,0.481
2.335541222504534e-06,0.482
-0.005679820367134596,0.483
-0.01592799679105901,0.484
-0.028522624629716466,0.485
-0.03992945728724792,0.486
-0.046746381606577646,0.487
-0.04667526706351058,0.488
-0.03893339660980765,0.489
-0.024387104473688834,0.49
-0.005361904194022948,0.491
0.014947881164716698,0.492
0.033180481501143826,0.493
0.04627651743948501,0.494
0.05173746068066996,0.495
0.048102741970827145,0.496
0.035731800205274736,0.497
0.017184102068179028,0.498
-0.003366551033612113,0.499
-0.02137445676342974,0.5
-0.03307677784388307,0.501
-0.0362792613138931,0.502
-0.031044496283281098,0.503
-0.01992022192067348,0.504
-0.006929114999149826,0.505
0.0041955885071155346,0.506
0.011274598406495123,0.507
0.014001715781252297,0.508
0.01354245909586498,0.509
0.011715785288322131,0.51
0.010188963476201199,0.511
0.01002394604331312,0.512
0.011505245514045153,0.513
0.014022054832293428,0.514
0.016007146302951154,0.515
0.015304252625743444,0.516
0.010216086643766867,0.517
0.0006639860561217239,0.518
-0.011406269477842531,0.519
-0.022546544291625215,0.52
-0.028896666180819267,0.521
-0.02752103003235066,0.522
-0.017663121626019174,0.523
-0.0014315997773658433,0.524
0.016481382690108425,0.525
0.030179813255667966,0.526
0.034787004314919295,0.527
0.028606238509322982,0.528
0.0140019584303403,0.529
-0.00361323227100097,0.53
-0.018273028837859567,0.531
-0.026184309846191096,0.532
-0.027165939879657146,0.533
-0.023946632980406626,0.534
-0.019949184994566393,0.535
-0.01723816576182624,0.536
-0.01580410717257707,0.537
-0.014185378179747741,0.538
-0.010811394897263026,0.539
-0.005217555837704488,0.54
0.0017059569631615657,0.541
0.008476814382739659,0.542
0.013804512484369452,0.543
0.016823315585416273,0.544
0.01725597488213319,0.545
0.015604604356006174,0.546
0.01284098551967311,0.547
0.009695656788810387,0.548
0.0063294138686032855,0.549
0.0027039055031603345,0.55
-0.0009970828947097237,0.551
-0.004508096033388445,0.552
-0.007826482066063439,0.553
-0.011025118884679174,0.554
-0.013623565348212949,0.555
-0.014451379551115385,0.556
-0.012272558023477233,0.557
-0.00641950602019079,0.558
0.002845664078389431,0.559
0.014066404653134636,0.56
0.024801699433003976,0.561
0.0325577287830002,0.562
0.03573961415332812,0.563
0.03384060669306968,0.564
0.027098874746628608,0.565
0.016324144624672837,0.566
0.0029770978142213502,0.567
-0.01092411040275365,0.568
-0.023302621379699805,0.569
-0.03265758396639108,0.57
-0.03837929773507743,0.571
-0.040515031029410724,0.572
-0.03918092706755204,0.573
-0.034203392555733986,0.574
-0.02525767179015061,0.575
-0.012263996241218388,0.576
0.004006451036173723,0.577
0.02119310687683434,0.578
0.03526200722286455,0.579
0.041790051935627216,0.58
0.038045146180970456,0.581
0.024528658558429475,0.582
0.00502675965645758,0.583
-0.014958229644120075,0.584
-0.030388160963113267,0.585
-0.03811880194848255,0.586
-0.03720970438650102,0.587
-0.028511806932774438,0.588
-0.01402289061089937,0.589
0.003552969443651104,0.59
0.021037953211626388,0.591
0.03525329802715638,0.592
0.043853906209541105,0.593
0.045894081055143254,0.594
0.0416225327624926,0.595
0.03202069641132229,0.596
0.018766986123989998,0.597
0.004291722253289864,0.598
-0.00875151390850661,0.599
-0.018322373488788433,0.6
-0.023401258935843678,0.601
-0.02393220820374281,0.602
-0.020699422081377736,0.603
-0.0151910105992362,0.604
-0.009194921005851894,0.605
-0.004229471353874391,0.606
-0.0013906954244459154,0.607
-0.0014581098879934635,0.608
-0.004431604020319961,0.609
-0.008981443568924961,0.61
-0.01295573993849416,0.611
-0.014504708329440622,0.612
-0.012707106862171288,0.613
-0.007696180871645604,0.614
-0.0007404413273180353,0.615
0.005875364839247068,0.616
0.009572690013272206,0.617
0.008634466448488615,0.618
0.003010308160412093,0.619
-0.005758320679676449,0.62
-0.015242463482287999,0.621
-0.022935737877265636,0.622
-0.026845651084357616,0.623
-0.025756183254686073,0.624
-0.019313029041506457,0.625
-0.008144586966605692,0.626
0.006097625636996694,0.627
0.021033868577724768,0.628
0.03413804233629406,0.629
0.0434105758222114,0.63
0.0480481891834678,0.631
0.04886298219326403,0.632
0.047969693332137756,0.633
0.04752536469827376,0.634
0.04804466563764238,0.635
0.04736048988046568,0.636
0.04117506026865231,0.637
0.025416531872948234,0.638
-0.0008059857527263755,0.639
-0.03383643049403154,0.64
-0.06663254293016853,0.641
-0.09148696881486994,0.642
-0.10290650513440666,0.643
-0.09946842176949387,0.644
-0.08382616854500982,0.645
-0.06085366977314546,0.646
-0.03514366086843601,0.647
-0.00971505846795602,0.648
0.01353825923480312,0.649
0.032917618843535626,0.65
0.046692553226930326,0.651
0.05355992792421059,0.652
0.05322820098756254,0.653
0.04683537224012933,0.654
0.03693642958091444,0.655
0.026675040683569257,0.656
0.018425531555852154,0.657
0.012852706069082617,0.658
0.0089639035655831,0.659
0.004994491388066217,0.66
-0.00036838420404933833,0.661
-0.007076447343116827,0.662
-0.013776228556776586,0.663
-0.01869550514394102,0.664
-0.020432742691455695,0.665
-0.018242868805165832,0.666
-0.012098660151444174,0.667
-0.00265353172674458,0.668
0.008802688083698534,0.669
0.020294969379032763,0.67
0.029377664500503997,0.671
0.03382188060830886,0.672
0.032171189010775446,0.673
0.023897045748966988,0.674
0.009694763963754124,0.675
-0.008278169493226859,0.676
-0.026990060269834925,0.677
-0.043614675307743184,0.678
-0.05607796161230857,0.679
-0.06287121412246001,0.68
-0.06284911615846134,0.681
-0.0553956840185219,0.682
-0.0405975255169481,0.683
-0.019401107023532142,0.684
0.005982506972860131,0.685
0.031851502223811355,0.686
0.05350677150929651,0.687
0.06633813160127346,0.688
0.06719622316563718,0.689
0.055722055468930436,0.69
0.034913208380417025,0.691
0.010345656064406874,0.692
-0.011636279932687765,0.693
-0.025858395269469987,0.694
-0.029733671629734594,0.695
-0.023950344481447387,0.696
-0.012124823125587405,0.697
0.0008287943377289669,0.698
0.01092680022028129,0.699
0.016471281489564036,0.7
0.017671495009616515,0.701
0.015290119731524223,0.702
0.009825390147519927,0.703
0.0017563647248391107,0.704
-0.0078116601695139695,0.705
-0.016945185957439993,0.706
-0.02343487649425722,0.707
-0.02568730268020487,0.708
-0.023304167341454154,0.709
-0.017076259264564644,0.71
-0.008499511459782097,0.711
0.0008057367875345658,0.712
0.009399831443806411,0.713
0.01613187425726003,0.714
0.020195813829849002,0.715
0.02103434141390248,0.716
0.018264398118956717,0.717
0.011901665158278526,0.718
0.0026946506772182587,0.719
-0.0078695102125598,0.72
-0.018040733471664322,0.721
-0.02635122354815731,0.722
-0.03174820371548603,0.723
-0.03343044921052535,0.724
-0.03076285601615149,0.725
-0.0233330101948807,0.726
-0.011058525376007655,0.727
0.0056236779723923954,0.728
0.02546557359019406,0.729
0.046109506747895754,0.73
0.06397077712647788,0.731
0.07461636647481254,0.732
0.07382072935428297,0.733
0.05911408671917371,0.734
0.03128805996627621,0.735
-0.005028150427000594,0.736
-0.0423355658187977,0.737
-0.07241412910869738,0.738
-0.0886775485531244,0.739
-0.08787050778750426,0.74
-0.07068043053095754,0.741
-0.0412414301610717,0.742
-0.005809280766242987,0.743
0.0288203314155968,0.744
0.056568639364243556,0.745
0.07282074228055542,0.746
0.07487320191179951,0.747
0.062406494465147205,0.748
0.037984018357761294,0.749
0.0069924132262830455,0.75
-0.02352766329227527,0.751
-0.04690707530558538,0.752
-0.058861761787040535,0.753
-0.05863965030299201,0.754
-0.04897173057730797,0.755
-0.03494593836350458,0.756
-0.02196646247933247,0.757
-0.01348527124518211,0.758
-0.009782862377523283,0.759
-0.008440811073664473,0.76
-0.0060838050271364566,0.761
-0.00035014233019827596,0.762
0.009055539031184806,0.763
0.020582984344182147,0.764
0.031755676462103276,0.765
0.04018526122360708,0.766
0.044408788851598456,0.767
0.04427574379119799,0.768
0.040647227962728974,0.769
0.034655606085898086,0.77
0.027147133081522532,0.771
0.018546057461914633,0.772
0.008910114662413121,0.773
-0.0018139622762615942,0.774
-0.013219326876639551,0.775
-0.024046476491508973,0.776
-0.03253627407722874,0.777
-0.037218093797923374,0.778
-0.037419355209074495,0.779
-0.033296492461914504,0.78
-0.02567259798907933,0.781
-0.015841507810321977,0.782
-0.005184503123450352,0.783
0.005211011925398728,0.784
0.014450117833885648,0.785
0.02142750645482404,0.786
0.02470015554417973,0.787
0.02287714512558164,0.788
0.015450815466102124,0.789
0.003559634302998943,0.79
-0.010103804768240889,0.791
-0.022324908308320495,0.792
-0.03034399438858146,0.793
-0.03206653513666686,0.794
-0.026211622237153218,0.795
-0.013172954452364908,0.796
0.004129116297470365,0.797
0.020682974832357624,0.798
0.0312991877855921,0.799
0.03301902799343244,0.8
0.02657822583553587,0.801
0.015809375075206758,0.802
0.005314958909294983,0.803
-0.0018277638891961553,0.804
-0.004949011470004077,0.805
-0.005227735408913197,0.806
-0.004484029248717443,0.807
-0.004208015252850506,0.808
-0.005056195303720177,0.809
-0.006622418941478325,0.81
-0.007708355407194838,0.811
-0.007220979620550032,0.812
-0.005091865120840175,0.813
-0.002568606564422833,0.814
-0.0017240436492786987,0.815
-0.0043431751452178745,0.816
-0.010572825110465936,0.817
-0.01807955919895991,0.818
-0.02257913023570261,0.819
-0.019755228031436686,0.82
-0.007467623898616013,0.821
0.01293339048386133,0.822
0.036721444425520035,0.823
0.057199922977072326,0.824
0.06790265770202872,0.825
0.06496789107741424,0.826
0.048626425577162256,0.827
0.022836369421043813,0.828
-0.0065264547574706185,0.829
-0.03356396084804864,0.83
-0.053603408566089104,0.831
-0.06390857085219741,0.832
-0.06395995537074922,0.833
-0.05524333389816806,0.834
-0.040633924544282315,0.835
-0.023515179546756537,0.836
-0.006922356962226267,0.837
0.006863656667413692,0.838
0.01630614783563093,0.839
0.0205522643044476,0.84
0.01949779668738979,0.841
0.013951288932498033,0.842
0.005694240508678292,0.843
-0.0027466711966815825,0.844
-0.008612982910116406,0.845
-0.009695282397024734,0.846
-0.00527124395107637,0.847
0.003339023489638492,0.848
0.013275879211238087,0.849
0.021461494206963652,0.85
0.025653593746287225,0.851
0.024727264920936486,0.852
0.01863488483652875,0.853
0.008473863460413537,0.854
-0.0035649907940553,0.855
-0.014729943306655046,0.856
-0.02245946567989795,0.857
-0.02489535785346498,0.858
-0.021209854166425457,0.859
-0.011872671086445595,0.86
0.0014437708038925235,0.861
0.016502065268152732,0.862
0.03117607301846226,0.863
0.04349287716882219,0.864
0.05113817718346324,0.865
0.05140394738077202,0.866
0.042343374388848026,0.867
0.02442895654793311,0.868
0.0010686240665111087,0.869
-0.022527952476473975,0.87
-0.041102342046580094,0.871
-0.050820036627563014,0.872
-0.050283282120155946,0.873
-0.04095305070320438,0.874
-0.02669285901918347,0.875
-0.012378809924179942,0.876
-0.0021222871313822675,0.877
0.0020531743450610727,0.878
0.0005531478789571082,0.879
-0.00434345478332729,0.88
-0.009443598755810464,0.881
-0.011702936102405997,0.882
-0.009321700677096423,0.883
-0.0025333430262399,0.884
0.006475425108298433,0.885
0.014596685965032443,0.886
0.019114168348312147,0.887
0.01855216464872285,0.888
0.012891820420873994,0.889
0.003439329961871837,0.89
-0.007470332376178362,0.891
-0.017060933823233534,0.892
-0.023014858958163516,0.893
-0.024270821644474035,0.894
-0.02118251135185744,0.895
-0.015003152534763014,0.896
-0.007196880268566158,0.897
0.001030015134261486,0.898
0.008927407898631565,0.899
0.016146014758610487,0.9
0.02246062866652852,0.901
0.027427250587446862,0.902
0.030270700951446988,0.903
0.030275923565926847,0.904
0.027518878316137717,0.905
0.02314831492868174,0.906
0.018639060510572784,0.907
0.014654686385576916,0.908
0.010671322909972195,0.909
0.005641853322921015,0.91
-0.0009202717076722799,0.911
-0.008255169015581468,0.912
-0.014542635327465777,0.913
-0.017792154539066574,0.914
-0.016893005243223316,0.915
-0.012393651991150162,0.916
-0.006655754461092745,0.917
-0.0029666644998055745,0.918
-0.003803713365345735,0.919
-0.009446122773477995,0.92
-0.017934986242524476,0.921
-0.026174556725344862,0.922
-0.03129078755592797,0.923
-0.03157283041368554,0.924
-0.026876213736072758,0.925
-0.018460277410704082,0.926
-0.008145972515510993,0.927
0.00263807750997599,0.928
0.013081118002958289,0.929
0.022651214025474833,0.93
0.030835122338695762,0.931
0.03699260700280473,0.932
0.040125809903970674,0.933
0.0388554489812417,0.934
0.03207236296196615,0.935
0.01990923753866595,0.936
0.004071030271156946,0.937
-0.01265942996864086,0.938
-0.02717438724752926,0.939
-0.03675759958558219,0.94
-0.039754683419826554,0.941
-0.03604218237048317,0.942
-0.0270446961660057,0.943
-0.01523233788017213,0.944
-0.003254781280054778,0.945
0.006876383690359117,0.946
0.014076938414889864,0.947
0.018014180062879023,0.948
0.018846973015397974,0.949
0.017008946420570558,0.95
0.013112074588908165,0.951
0.007979734160058684,0.952
0.002678851091104134,0.953
-0.0014553629679900824,0.954
-0.0029239060488640747,0.955
-0.0006140198627445058,0.956
0.005355222453965445,0.957
0.013251525527926187,0.958
0.020281682143996574,0.959
0.02367763083093184,0.96
0.021681092077518137,0.961
0.014203836111523071,0.962
0.0030571345579734456,0.963
-0.008539224038840207,0.964
-0.017300249184885503,0.965
-0.02154883380042487,0.966
-0.022025291585397698,0.967
-0.02110843140741284,0.968
-0.02117233706616267,0.969
-0.023220723603841843,0.97
-0.026363692432339575,0.971
-0.028381331864000575,0.972
-0.02707780421581766,0.973
-0.021572496871818593,0.974
-0.012793466922298843,0.975
-0.002832315999120657,0.976
0.006432183326483015,0.977
0.014247346343708623,0.978
0.020662395884451318,0.979
0.02550693173109273,0.98
0.027819075685400076,0.981
0.026313466900343828,0.982
0.02055749012700732,0.983
0.0118917795400928,0.984
0.0031916118178180897,0.985
-0.0023957331050482506,0.986
-0.00261883650125524,0.987
0.003466649142258425,0.988
0.015269564189169109,0.989
0.030044851150477857,0.99
0.04284983327187258,0.991
0.04826094313407364,0.992
0.04291665044728113,0.993
0.02697976764042036,0.994
0.0038976337342948413,0.995
-0.02098483780795342,0.996
-0.04211483432817616,0.997
-0.05522520379833149,0.998
-0.05850959778481949,0.999
-0.05314219662591283,1.0
-0.04268870324738994,1.001
-0.03144498123594037,1.002
-0.022545943038342477,1.003
-0.01694774722008974,1.004
-0.013593029800923903,1.005
-0.010416868768395475,1.006
-0.005759836290497557,1.007
0.0005864050734728689,1.008
0.007494800161899316,1.009
0.013557074314300874,1.01
0.017955836310235365,1.011
0.02058999434405742,1.012
0.02182573801672973,1.013
0.02217182539205107,1.014
0.02195405221984642,1.015
0.021182719045852248,1.016
0.019740029061981693,1.017
0.01772570765453633,1.018
0.015506940869002105,1.019
0.013340660582820177,1.02
0.011098736502340088,1.021
0.008459293954713952,1.022
0.005290584505231053,1.023
0.001812916146322391,1.024
-0.001591150107199619,1.025
-0.0047032184276370815,1.026
-0.007598364284440034,1.027
-0.010486785546103931,1.028
-0.013467910803912998,1.029
-0.01637918424123302,1.03
-0.018754202792817188,1.031
-0.019885249240450886,1.032
-0.01904746817265019,1.033
-0.01592376701586461,1.034
-0.01103874935818338,1.035
-0.005740719017646975,1.036
-0.0015672897303352481,1.037
0.0005113688427479657,1.038
0.00044522144346340194,1.039
-0.0009728138801542452,1.04
-0.002451393163568957,1.041
-0.002692103773817213,1.042
-0.000810483286960482,1.043
0.003460220466052167,1.044
0.009665285969750697,1.045
0.016540116621728537,1.046
0.02214338194623687,1.047
0.024530309914463817,1.048
0.022851814746056118,1.049
0.018060114885078145,1.05
0.01256481358676391,1.051
0.009041913273837606,1.052
0.008994313917317304,1.053
0.011722460263836615,1.054
0.014339980592719688,1.055
0.013123491692848047,1.056
0.005580752673467626,1.057
-0.008234745810327591,1.058
-0.025876426856999264,1.059
-0.0433769919258632,1.06
-0.056200370572982904,1.061
-0.06039219470883304,1.062
-0.0538886846740637,1.063
-0.03746772336915344,1.064
-0.01477602610641019,1.065
0.00875142215930061,1.066
0.027725449929599518,1.067
0.03859689758511464,1.068
0.04056614900296415,1.069
0.03528945051779058,1.07
0.0257679479549973,1.071
0.015156014185013049,1.072
0.00591967800018811,1.073
-0.0006978879856018681,1.074
-0.004788905002586342,1.075
-0.007249265150602298,1.076
-0.00895843025529164,1.077
-0.010263549771653453,1.078
-0.010923240934067779,1.079
-0.010374677023939054,1.08
-0.008139248747536389,1.081
-0.0041684896110068,1.082
0.000989453077674002,1.083
0.006254388969202411,1.084
0.010337294817301404,1.085
0.012184711899790429,1.086
0.011273012726143191,1.087
0.0077780983565085195,1.088
0.0027571528225839624,1.089
-0.002015315458171417,1.09
-0.004787839833755415,1.091
-0.0046145215984077625,1.092
-0.0016672212476740976,1.093
0.002906243207353024,1.094
0.007387919825439111,1.095
0.010027928696704753,1.096
0.009622880612436296,1.097
0.005973314322365606,1.098
4.72154282325606e-05,1.099
-0.006266886266107969,1.1
-0.01089320883226012,1.101
-0.012530681452658768,1.102
-0.011198261143026578,1.103
-0.007968567759126277,1.104
-0.0041770046548077824,1.105
-0.0007310884452587532,1.106
0.002120206871626831,1.107
0.004617896248355157,1.108
0.0070925410044660455,1.109
0.009502928781623291,1.11
0.0112567986300314,1.111
0.011550984970585362,1.112
0.009882147410597548,1.113
0.006190211482969351,1.114
0.0007080553696391201,1.115
-0.0060362357983082485,1.116
-0.013034576492644735,1.117
-0.018868354889006733,1.118
-0.022223199245576114,1.119
-0.022328485227718773,1.12
-0.01895057720960666,1.121
-0.012432505667884904,1.122
-0.003995703464516305,1.123
0.004327712567335486,1.124
0.010375449637370025,1.125
0.012643886017887969,1.126
0.010784334722293934,1.127
0.00568396758283011,1.128
-0.0008854049547862003,1.129
-0.006800553111530811,1.13
-0.009996155870273577,1.131
-0.008777065272974434,1.132
-0.0022480410137359665,1.133
0.00911133205011496,1.134
0.02302022004533823,1.135
0.03557366165770558,1.136
0.042345641548641136,1.137
0.040217245138429586,1.138
0.028906843045462243,1.139
0.011069447646383485,1.14
-0.008935382833315991,1.141
-0.02655328777212323,1.142
-0.03824946335679062,1.143
-0.042387281795986324,1.144
-0.03955173706839553,1.145
-0.03205109896534909,1.146
-0.022784173466378784,1.147
-0.014123046988761361,1.148
-0.007319438349885861,1.149
-0.0024438280455702727,1.15
0.0013206037769907814,1.151
0.005175508026142633,1.152
0.010140624052417457,1.153
0.016558972556151165,1.154
0.023830226520152757,1.155
0.030555949407297296,1.156
0.035171401543532425,1.157
0.03673895339263597,1.158
0.03520139222369326,1.159
0.03079751807777856,1.16
0.023283257557421607,1.161
0.011863932023905628,1.162
-0.00398972516590415,1.163
-0.023520590332555838,1.164
-0.044185030957800464,1.165
-0.0618902929699029,1.166
-0.07196428645784904,1.167
-0.07070284969390472,1.168
-0.05696623127123916,1.169
-0.033068008405172544,1.17
-0.004308270553839082,1.171
0.02285507224216687,1.172
0.04301088803405391,1.173
0.05309274189881454,1.174
0.05252256691243243,1.175
0.04291739831115908,1.176
0.02760940582410947,1.177
0.010788706526922254,1.178
-0.003498672376301756,1.179
-0.012221258203956512,1.18
-0.014066638967756385,1.181
-0.009832158337569424,1.182
-0.002169602157364285,1.183
0.005448006733454851,1.184
0.010048272152603455,1.185
0.010121759425514798,1.186
0.00600362046821869,1.187
-0.00040559926069511163,1.188
-0.006545232525290145,1.189
-0.01023969806773204,1.19
-0.010316889345144614,1.191
-0.006743334352580813,1.192
-0.0005286288456111285,1.193
0.006511212459795229,1.194
0.012162611262815745,1.195
0.01441543175608115,1.196
0.012193803966212433,1.197
0.005909406434736175,1.198
-0.0025841826768495117,1.199
-0.010710662369005716,1.2
-0.016132754509871013,1.201
-0.01749972195140745,1.202
-0.014871903643104407,1.203
-0.009751919699131254,1.204
-0.004476815990714591,1.205
-0.0010637617413251567,1.206
-0.0002510297315542213,1.207
-0.0014105991665953827,1.208
-0.0032046540743166296,1.209
-0.004374163290523669,1.21
-0.004277391962055182,1.211
-0.003056525589103672,1.212
-0.0013789954183527984,1.213
2.3791966858722272e-05,1.214
0.0006637992921113228,1.215
0.0003863957856228155,1.216
-0.0006449681192573313,1.217
-0.0019939833743591313,1.218
-0.002955408044864823,1.219
-0.002572469626343522,1.22
0.00013957045052392195,1.221
0.005784208541927182,1.222
0.014222731524281105,1.223
0.024306950837412154,1.224
0.03371100842367129,1.225
0.03918400473396421,1.226
0.03757738745117332,1.227
0.027445414639699385,1.228
0.010201346568281887,1.229
-0.010189962668192833,1.23
-0.028783506357886762,1.231
-0.04144057817857324,1.232
-0.04612489520758318,1.233
-0.043418414418018095,1.234
-0.03601029511123646,1.235
-0.02725910843661011,1.236
-0.01957211537610695,1.237
-0.013500899443152602,1.238
-0.007946823950233247,1.239
-0.0011857335712765194,1.24
0.007955249420249546,1.241
0.019323939837738034,1.242
0.031315723681994846,1.243
0.04136902206812686,1.244
0.046868479042524704,1.245
0.046126278269609196,1.246
0.03903511922565006,1.247
0.027030280366252254,1.248
0.012413425050905072,1.249
-0.002386216348050696,1.25
-0.015233616243317967,1.251
-0.0245811934320106,1.252
-0.02975129674859217,1.253
-0.030987723032233537,1.254
-0.02915551126919877,1.255
-0.02535332436367385,1.256
-0.020764325115233205,1.257
-0.0165734435586678,1.258
-0.013613808439499568,1.259
-0.01196384668791726,1.26
-0.010931461659381083,1.261
-0.009442828778604863,1.262
-0.006547968423082807,1.263
-0.0017649058654258883,1.264
0.004819793730127274,1.265
0.012550157289516334,1.266
0.020199539312054104,1.267
0.02614347738959671,1.268
0.02891192731174133,1.269
0.02786875542012731,1.27
0.02341164618520936,1.271
0.016548362624212967,1.272
0.008409124460412757,1.273
0.00013376498732233666,1.274
-0.0070318297301182825,1.275
-0.011745764746966873,1.276
-0.012770386653951304,1.277
-0.009341082584493019,1.278
-0.0016876493814872641,1.279
0.008485644342968536,1.28
0.018021240789829297,1.281
0.023233578372495074,1.282
0.021509416037194747,1.283
0.012600391662504621,1.284
-0.001189476842287556,1.285
-0.01586126615357401,1.286
-0.027278266545883067,1.287
-0.03297748282478148,1.288
-0.03326600811593879,1.289
-0.03064729987669425,1.29
-0.0278429733919725,1.291
-0.025978645844771997,1.292
-0.024226926092203314,1.293
-0.020766787519939392,1.294
-0.014134441089928626,1.295
-0.004225832527736198,1.296
0.007398948487684631,1.297
0.01805522552121474,1.298
0.02516109080063107,1.299
0.027439142652049938,1.3
0.025350127655957237,1.301
0.020650484472843678,1.302
0.015457970913129948,1.303
0.011377994652234734,1.304
0.00910817638370817,1.305
0.00851801317617656,1.306
0.008964410127496087,1.307
0.009714395533889125,1.308
0.010442134167418154,1.309
0.01158433300868513,1.31
0.014127935452285956,1.311
0.018703857792862617,1.312
0.024539374580366674,1.313
0.029107747701025182,1.314
0.02891626022480263,1.315
0.02117251216385375,1.316
0.005418265222908685,1.317
-0.0159200162662998,1.318
-0.03831642541029293,1.319
-0.05663541918276169,1.32
-0.06670078980021842,1.321
-0.06655391811274841,1.322
-0.05700322717049936,1.323
-0.041203339960131556,1.324
-0.023297983774810564,1.325
-0.006724867445621298,1.326
0.006805093676120854,1.327
0.017177026501465138,1.328
0.024985967028711618,1.329
0.03068073366493758,1.33
0.03430842409059662,1.331
0.035756264251872526,1.332
0.03498361607968521,1.333
0.03199704822222709,1.334
0.026785532668141186,1.335
0.019528209708935373,1.336
0.010948892304579514,1.337
