VaMe,time
0.004801093650359618,0.001
-0.02627612402151513,0.002
-0.05323455594780494,0.003
-0.07233626949291629,0.004
-0.08084630557462107,0.005
-0.0773717346365648,0.006
-0.06209926304810041,0.007
-0.037149819160924476,0.008
-0.006758316194475977,0.009
0.02322769565684722,0.01
0.04654180845161314,0.011
0.05797258878050817,0.012
0.05474629101535835,0.013
0.03751594216711366,0.014
0.010452789013708278,0.015
-0.01988823845879964,0.016
-0.046470504899827694,0.017
-0.06364740105742005,0.018
-0.06850860483366825,0.019
-0.06139218425501994,0.02
-0.04542377597105948,0.021
-0.025284769374378742,0.022
-0.005603916299815135,0.023
0.010491867765755314,0.024
0.0219634242558194,0.025
0.029328456582160007,0.026
0.03360156153635676,0.027
0.035415283081920115,0.028
0.034638891985817065,0.029
0.030568122600088753,0.03
0.022590559818446865,0.031
0.01100605129569428,0.032
-0.0024997536400731255,0.033
-0.01509572675094781,0.034
-0.02368642545324895,0.035
-0.025991888141468293,0.036
-0.021354647273524145,0.037
-0.01102174611860374,0.038
0.002234142605566132,0.039
0.01518459164728189,0.04
0.025447411642132378,0.041
0.032180547873232046,0.042
0.03578327249739479,0.043
0.037069615723583436,0.044
0.036577006515180165,0.045
0.03416485630260227,0.046
0.028998483209154786,0.047
0.020255566668704116,0.048
0.008150375646890244,0.049
-0.005751234118019128,0.05
-0.01909679352541847,0.051
-0.02954690037767855,0.052
-0.035432713120010555,0.053
-0.03623076562188337,0.054
-0.03276593088306254,0.055
-0.02698418898107053,0.056
-0.02120979578871582,0.057
-0.017191048708448342,0.058
-0.015553345604741305,0.059
-0.015847780885739057,0.06
-0.016911707705649023,0.061
-0.0173782594042084,0.062
-0.016132030362410326,0.063
-0.012408495791876117,0.064
-0.005735948814853317,0.065
0.003816698889980319,0.066
0.015182588400965048,0.067
0.02622272867208134,0.068
0.03444445750921275,0.069
0.038232497779282816,0.07
0.03766237404762704,0.071
0.034103351541236074,0.072
0.028845534439493052,0.073
0.021945294011058266,0.074
0.012394439957315935,0.075
-0.0005263210827999689,0.076
-0.016047450244418438,0.077
-0.031777820046398154,0.078
-0.044355721886598046,0.079
-0.05032019369294127,0.08
-0.04693841550400852,0.081
-0.033106548139717654,0.082
-0.010341876640958944,0.083
0.01694754999652653,0.084
0.042585205732895995,0.085
0.06055430716301703,0.086
0.06677162154099194,0.087
0.06015980843860712,0.088
0.0426585434720111,0.089
0.018238176246874717,0.09
-0.008320628101728364,0.091
-0.032176922181567945,0.092
-0.04892353759197549,0.093
-0.05550278041704688,0.094
-0.05134112155184918,0.095
-0.038596332099661484,0.096
-0.021197640101599715,0.097
-0.003528999839772219,0.098
0.010648280035872692,0.099
0.01899041518742452,0.1
0.020906551541797117,0.101
0.017313009931395323,0.102
0.010118456775621187,0.103
0.0017539085614968032,0.104
-0.005366441694398638,0.105
-0.00958442981467638,0.106
-0.010530428136103467,0.107
-0.008966034242797205,0.108
-0.006155952049519993,0.109
-0.003288769459049113,0.11
-0.001064852173429356,0.111
0.0005478686259439264,0.112
0.0021790965172984083,0.113
0.004527122026741267,0.114
0.00779910045539214,0.115
0.011462348445698786,0.116
0.014418080114294423,0.117
0.015479485855272389,0.118
0.013938469861353551,0.119
0.010055889484890146,0.12
0.005168932691133716,0.121
0.001118937784226509,0.122
-0.0007427155463619454,0.123
-0.00026728139863223347,0.124
0.0015210087406278068,0.125
0.0030766082679859154,0.126
0.0030845548396502393,0.127
0.0007788696659237425,0.128
-0.004069739076294644,0.129
-0.010856697580392483,0.13
-0.01776799693361876,0.131
-0.022326829296678122,0.132
-0.022666652835932364,0.133
-0.01831900945478848,0.134
-0.010112451083508717,0.135
0.00033195969983837323,0.136
0.011080250998514871,0.137
0.02034190994630349,0.138
0.027045443338332333,0.139
0.0311929064908329,0.14
0.03334451808034476,0.141
0.03354884395782272,0.142
0.031036598563448904,0.143
0.025068814052187638,0.144
0.015898217968324534,0.145
0.0049084095755031875,0.146
-0.006063937927321727,0.147
-0.015561072349483066,0.148
-0.023027980753296522,0.149
-0.029021666497387067,0.15
-0.03479268233709912,0.151
-0.04112843503305607,0.152
-0.047402802571704324,0.153
-0.05168691589686204,0.154
-0.0516086778780513,0.155
-0.045186291858839045,0.156
-0.031567924674829204,0.157
-0.011956769691853466,0.158
0.01003086965843247,0.159
0.02957237502162554,0.16
0.042664107378727695,0.161
0.047293850882603176,0.162
0.04347070657277566,0.163
0.03299328413769015,0.164
0.01920299319012615,0.165
0.006206840059225421,0.166
-0.00246908791699185,0.167
-0.0049969834287085044,0.168
-0.0015284959709833252,0.169
0.0061550038769614445,0.17
0.015295654701069718,0.171
0.02305317974072747,0.172
0.027482300040038887,0.173
0.028083761074167015,0.174
0.02546361495509003,0.175
0.020485314487156698,0.176
0.013758885304364003,0.177
0.0056645658548238175,0.178
-0.00346030386169839,0.179
-0.013225677791959902,0.18
-0.02307789374149993,0.181
-0.03200343217502411,0.182
-0.038393112080985815,0.183
-0.040621217919247214,0.184
-0.03796307303165442,0.185
-0.030825841973578388,0.186
-0.02018269103770778,0.187
-0.0070869346398458755,0.188
0.0072328797925579925,0.189
0.021055635518581188,0.19
0.032092543097323206,0.191
0.03778763510639241,0.192
0.036109098460901226,0.193
0.026665591659940254,0.194
0.011308246289109557,0.195
-0.006363250575017877,0.196
-0.022182971214045027,0.197
-0.032606300286069756,0.198
-0.03562092725455032,0.199
-0.03132737714253413,0.2
-0.021875751604941866,0.201
-0.01050107169948942,0.202
-0.0002621614471127964,0.203
0.006668942928440964,0.204
0.009150885158253227,0.205
0.00715083037348006,0.206
0.0019790807879343625,0.207
-0.003668934967583038,0.208
-0.006337873323031699,0.209
-0.003029178761467954,0.21
0.007514842887051837,0.211
0.023992749853535594,0.212
0.04259649781877196,0.213
0.05813696250427965,0.214
0.06597831816320772,0.215
0.063724433350892,0.216
0.05151720143292821,0.217
0.03110899792062595,0.218
0.005033808859365345,0.219
-0.023310997105221904,0.22
-0.04954993650841475,0.221
-0.06936503571530502,0.222
-0.079954717306069,0.223
-0.08052393154292047,0.224
-0.07197320023233039,0.225
-0.056513873726836514,0.226
-0.03718219822610656,0.227
-0.017101985582023096,0.228
0.0011892967890544525,0.229
0.01595152573082246,0.23
0.026179123438759284,0.231
0.03176783126660874,0.232
0.03370616895570741,0.233
0.0336877531672904,0.234
0.033264828345516397,0.235
0.0332439866097246,0.236
0.033641358580683574,0.237
0.03388357332470159,0.238
0.03298563636015618,0.239
0.02979441054996396,0.24
0.023359119278121804,0.241
0.01332435084859645,0.242
0.0001850088819996637,0.243
-0.014641816173236084,0.244
-0.028826717234608782,0.245
-0.039329217140952416,0.246
-0.04316685350129997,0.247
-0.038732968800877,0.248
-0.026807393948168876,0.249
-0.010413077932228482,0.25
0.006307821930995773,0.251
0.01947430090923426,0.252
0.02662515597662236,0.253
0.027235499784775814,0.254
0.02230679915580531,0.255
0.013473956937654226,0.256
0.0023894367471609767,0.257
-0.009337857594075578,0.258
-0.019972066194675196,0.259
-0.02780235554400854,0.26
-0.03164078198847736,0.261
-0.031145749363677554,0.262
-0.02680652880602791,0.263
-0.01984626095296249,0.264
-0.011979555933214535,0.265
-0.004663730663500106,0.266
0.001809017427828131,0.267
0.008299332133367133,0.268
0.01566576114339966,0.269
0.023622985778560368,0.27
0.030673202853172803,0.271
0.03493830158913767,0.272
0.035017419429632504,0.273
0.03039180544858593,0.274
0.021475602387270712,0.275
0.009553693544944468,0.276
-0.003253761081790874,0.277
-0.014266079842371602,0.278
-0.02115360075328227,0.279
-0.02295026048108969,0.28
-0.020140717463222414,0.281
-0.013934920398244498,0.282
-0.005557426699786023,0.283
0.004131768422700117,0.284
0.01454695037825082,0.285
0.024822389129736604,0.286
0.03338016171923443,0.287
0.03812592240929051,0.288
0.03709983071109747,0.289
0.029155133727816206,0.29
0.014487131419864881,0.291
-0.005074735631232076,0.292
-0.02628555980699617,0.293
-0.04527055907431784,0.294
-0.058459805529599736,0.295
-0.06338478511951123,0.296
-0.05938537005412523,0.297
-0.047930659735770854,0.298
-0.03195694616115512,0.299
-0.01450461245679591,0.3
0.0021749882388773607,0.301
0.01660926628325874,0.302
0.027762685706397283,0.303
0.03476843629755953,0.304
0.03684066947847801,0.305
0.03348534689738087,0.306
0.024988363149741226,0.307
0.012861419367073024,0.308
-0.0002935464681647661,0.309
-0.011588498482072458,0.31
-0.018740264324670082,0.311
-0.020601449902564965,0.312
-0.017310329328308127,0.313
-0.010101408721794535,0.314
-0.0008681350667192544,0.315
0.00832641820825249,0.316
0.015726713973029213,0.317
0.02035984727769194,0.318
0.022278998689675724,0.319
0.02228556089709383,0.32
0.02125286239151408,0.321
0.01956680653049704,0.322
0.017114505340264593,0.323
0.013851542625814612,0.324
0.010476793211738751,0.325
0.008492640577720654,0.326
0.009472352940613188,0.327
0.014094636583288158,0.328
0.02149443415664922,0.329
0.029044842794425183,0.33
0.032557086329030996,0.331
0.027288850721017964,0.332
0.010135506044032285,0.333
-0.0180121507410538,0.334
-0.051698105871146545,0.335
-0.0826256410900042,0.336
-0.10236462352893902,0.337
-0.10491442818528282,0.338
-0.088820932952271,0.339
-0.05818905173845052,0.34
-0.02155008740107061,0.341
0.011318121605954636,0.342
0.032922059491266906,0.343
0.04014745115069224,0.344
0.0344869648572534,0.345
0.021069066254065138,0.346
0.0070455784932780905,0.347
-0.0006411219949956062,0.348
0.0022782691968711564,0.349
0.015852314505321187,0.35
0.03597803810789286,0.351
0.055853844188548954,0.352
0.06837795456541475,0.353
0.06873622451944944,0.354
0.056005809609159005,0.355
0.03321876833288397,0.356
0.006243372636762011,0.357
-0.018124166565112364,0.358
-0.03453107774674162,0.359
-0.04097446848177803,0.36
-0.03904071144698623,0.361
-0.03233336170823554,0.362
-0.02439307070604121,0.363
-0.01739918754899586,0.364
-0.011849329592923225,0.365
-0.006977909042309882,0.366
-0.0016382337521578143,0.367
0.004827218800483644,0.368
0.012074405768442271,0.369
0.018730742153859222,0.37
0.022891831467157057,0.371
0.022892197246143355,0.372
0.017929004388312565,0.373
0.008372729066137613,0.374
-0.004195683501763618,0.375
-0.017272907595445388,0.376
-0.028078407496588322,0.377
-0.03431970631087238,0.378
-0.034725331691625484,0.379
-0.02918947055667415,0.38
-0.01854891009086155,0.381
-0.004194489546741171,0.382
0.01204675114220995,0.383
0.027663508376916415,0.384
0.03945625891975883,0.385
0.044315761122131786,0.386
0.040452302556896844,0.387
0.028178336534793878,0.388
0.009801079496723979,0.389
-0.010987531834035768,0.39
-0.029794597635920066,0.391
-0.04241091075897341,0.392
-0.04613563471914248,0.393
-0.04104028284899833,0.394
-0.029956085627113105,0.395
-0.0168824689829654,0.396
-0.005130413337357443,0.397
0.0036405056883456115,0.398
0.009516086778518028,0.399
0.013872034722930318,0.4
0.01847838423431893,0.401
0.02442084894548481,0.402
0.031305639816491086,0.403
0.03715740886922502,0.404
0.03919568471591176,0.405
0.035203000398560856,0.406
0.024798323669529915,0.407
0.009918037887325147,0.408
-0.005901344190459836,0.409
-0.019058941978563268,0.41
-0.027195147039737782,0.411
-0.029652059562490524,0.412
-0.02728885940697732,0.413
-0.02192753580736836,0.414
-0.015576872546555105,0.415
-0.009799706269691864,0.416
-0.005489744800241595,0.417
-0.0029121451214702315,0.418
-0.0017939022583285515,0.419
-0.0014292409693686854,0.42
-0.0008235819946363955,0.421
0.0011052244974299689,0.422
0.00515785783042906,0.423
0.011360871524414529,0.424
0.01869774468619326,0.425
0.02528167782184558,0.426
0.02901567743402061,0.427
0.02852788291519776,0.428
0.023691101179671204,0.429
0.015406800040221422,0.43
0.005011062286424585,0.431
-0.006379365456868743,0.432
-0.018172581260190557,0.433
-0.029886245418365633,0.434
-0.040431415995539885,0.435
-0.04786479136686073,0.436
-0.04986725395878006,0.437
-0.04468979109209052,0.438
-0.032110577142923966,0.439
-0.013966548052586118,0.44
0.00612310354786171,0.441
0.02401716585569639,0.442
0.03677203402276494,0.443
0.04373058835746967,0.444
0.046307670802977575,0.445
0.046709074261706826,0.446
0.04643542180780951,0.447
0.04544708789429954,0.448
0.04229501687752626,0.449
0.034931082463266386,0.45
0.021817581390624226,0.451
0.00308445397390745,0.452
-0.018753030042235733,0.453
-0.03917550657452974,0.454
-0.053193440834758854,0.455
-0.05740308101050235,0.456
-0.05162587324786519,0.457
-0.03912058061961507,0.458
-0.025013283009311393,0.459
-0.01382658124489047,0.46
-0.007688982743632038,0.461
-0.006111602273222732,0.462
-0.006897803235273305,0.463
-0.007397199500877808,0.464
-0.0056591400087488055,0.465
-0.0011386150362637244,0.466
0.005322002197535521,0.467
0.012150278074753855,0.468
0.017783528346302736,0.469
0.021087539549433428,0.47
0.021649668539601805,0.471
0.019919350486231037,0.472
0.016774063947048737,0.473
0.01276246241469157,0.474
0.007859344491272392,0.475
0.001982899211979104,0.476
-0.004279583266937971,0.477
-0.009439631503659415,0.478
-0.011615682804037348,0.479
-0.00937669409056794,0.48
-0.0024127349941836496,0.481
0.008091576373505266,0.482
0.019440122012631466,0.483
0.027991403761068852,0.484
0.03038813721357734,0.485
0.02497271427703131,0.486
0.01249610098386956,0.487
-0.004267647720408612,0.488
-0.02149287299590253,0.489
-0.03527000010008028,0.49
-0.04243337166616958,0.491
-0.0412468149261505,0.492
-0.03186733148281522,0.493
-0.01640136902794515,0.494
0.0016495941251568273,0.495
0.018434656236034644,0.496
0.03088915105290725,0.497
0.037576361356522446,0.498
0.03885598033141448,0.499
0.0362301033770325,0.5
0.03130570614561501,0.501
0.025037844411756074,0.502
0.017628914149848022,0.503
0.009014717793068481,0.504
-0.0006450708546710115,0.505
-0.010973915910430926,0.506
-0.021520710943052246,0.507
-0.031451500707088575,0.508
-0.03913748748310902,0.509
-0.04249811590088037,0.51
-0.040130512045917395,0.511
-0.032230744176161376,0.512
-0.02046706729973098,0.513
-0.007205435825647022,0.514
0.004959469033685506,0.515
0.013455987085240394,0.516
0.016411750184911363,0.517
0.013480431391245839,0.518
0.006114762610768155,0.519
-0.002874641279733557,0.52
-0.010199024407049093,0.521
-0.013083613522086795,0.522
-0.010149644536891067,0.523
-0.00193395271690773,0.524
0.009199278223272371,0.525
0.019753940516488225,0.526
0.026241689659009634,0.527
0.026488843671965304,0.528
0.020592275103378955,0.529
0.010923329731840178,0.53
0.0009871969571508905,0.531
-0.0062384975018627276,0.532
-0.00951220725048698,0.533
-0.009569870367722222,0.534
-0.008391058963319582,0.535
-0.007927309999576918,0.536
-0.009049746764134043,0.537
-0.011166162582055697,0.538
-0.012488292014486292,0.539
-0.010815229850380987,0.54
-0.004557658888477529,0.541
0.006526368549844255,0.542
0.02123662238897346,0.543
0.037303661967900276,0.544
0.051838675484765805,0.545
0.06168912166363121,0.546
0.0638128544733966,0.547
0.055856443288050686,0.548
0.03710290576324953,0.549
0.009572624521831448,0.55
-0.021756577313679616,0.551
-0.050356905070539186,0.552
-0.07036046384102958,0.553
-0.07821527502056176,0.554
-0.07338542089581541,0.555
-0.058322139738178146,0.556
-0.037639430397460316,0.557
-0.01646473690592533,0.558
0.001245724336095565,0.559
0.013482834523672828,0.56
0.01997203809776272,0.561
0.021523253920878168,0.562
0.0194127277595586,0.563
0.01496363687650443,0.564
0.00941088761584261,0.565
0.003945156849908312,0.566
-0.0004428576088667718,0.567
-0.0033136779618190056,0.568
-0.0048585935320653,0.569
-0.005571673565286572,0.57
-0.005857344571066614,0.571
-0.0058540789348007875,0.572
-0.0054603803617350784,0.573
-0.004438811217830089,0.574
-0.0025179234179569707,0.575
0.000457599845257652,0.576
0.004288382744022948,0.577
0.008304411760126593,0.578
0.011596654725577686,0.579
0.01353304106248635,0.58
0.01420834037475348,0.581
0.014416004345131803,0.582
0.015127394944177601,0.583
0.016887865577992604,0.584
0.019537939211275165,0.585
0.02242215291218209,0.586
0.02482088184345035,0.587
0.02605617514350686,0.588
0.025194501853259697,0.589
0.02095676800552362,0.59
0.012241224138326214,0.591
-0.0010623394621036635,0.592
-0.017530360747554846,0.593
-0.034281469217565134,0.594
-0.04772000567518861,0.595
-0.05472566662826839,0.596
-0.05369736888575782,0.597
-0.04472854250163669,0.598
-0.02909312739285387,0.599
-0.008943672318506951,0.6
0.012718947693257928,0.601
0.03234230432989431,0.602
0.04635435348774772,0.603
0.051713750235247886,0.604
0.046604087772253285,0.605
0.03128333286116534,0.606
0.008523668818320054,0.607
-0.01690345045412681,0.608
-0.039449437484378465,0.609
-0.054173871265307615,0.61
-0.05809156393340471,0.611
-0.051205949595543365,0.612
-0.03645631485377863,0.613
-0.01825395121182073,0.614
-0.000661538421770555,0.615
0.013566515251817495,0.616
0.02308296402321068,0.617
0.027751137934798536,0.618
0.02831429183739678,0.619
0.025956787143289972,0.62
0.02202619753654289,0.621
0.018040046498943564,0.622
0.01571360199181973,0.623
0.016580411372700114,0.624
0.021056159863636924,0.625
0.027649036110001666,0.626
0.03332695721770061,0.627
0.034917456055274236,0.628
0.030381075482312583,0.629
0.01928520365061034,0.63
0.0028030772676374063,0.631
-0.016402526643152577,0.632
-0.03465509384270249,0.633
-0.04825336580593174,0.634
-0.054462698877216095,0.635
-0.05204702044339161,0.636
-0.041504835484665346,0.637
-0.025151410720867115,0.638
-0.00669574261489987,0.639
0.009869131328970845,0.64
0.021508753758673185,0.641
0.02676271720645142,0.642
0.02560378904038038,0.643
0.019036030544901106,0.644
0.008806943943459126,0.645
-0.0028375327341591096,0.646
-0.013475521330392686,0.647
-0.020874000942120996,0.648
-0.023384726859212557,0.649
-0.020398122588187937,0.65
-0.01272745335213881,0.651
-0.002546978174362981,0.652
0.007374698434270274,0.653
0.014731899161643972,0.654
0.018278331319086946,0.655
0.017856106793981506,0.656
0.014373724483700577,0.657
0.009843976032332646,0.658
0.006916930204762762,0.659
0.007723167859373823,0.66
0.012811996371681917,0.661
0.020893195548242798,0.662
0.02918973666247703,0.663
0.03406206405885222,0.664
0.032107362072719595,0.665
0.021741239404923965,0.666
0.0042974446928725155,0.667
-0.01638235283918559,0.668
-0.03561872906834999,0.669
-0.049580044371050284,0.67
-0.05611210471648848,0.671
-0.054837573796674505,0.672
-0.04686660949489762,0.673
-0.034182210055982286,0.674
-0.01906388531449897,0.675
-0.0037969478184443,0.676
0.009750335351814113,0.677
0.020631902289639844,0.678
0.028776716086592387,0.679
0.034450465598734166,0.68
0.03774946912041654,0.681
0.03830890686871074,0.682
0.03536243126217005,0.683
0.028314360646215026,0.684
0.017448661092896264,0.685
0.004136448990642649,0.686
-0.009494644838011705,0.687
-0.021041039060260797,0.688
-0.028335573686338066,0.689
-0.03008765798072915,0.69
-0.026453065136694116,0.691
-0.018994748175939935,0.692
-0.009938938339969937,0.693
-0.0013106951439433054,0.694
0.005593460780346199,0.695
0.010271446914010964,0.696
0.012711218344814635,0.697
0.013153743875659317,0.698
0.012187868853130375,0.699
0.01079935428800924,0.7
0.009919221217224187,0.701
0.009750983348595432,0.702
0.00961102336544564,0.703
0.008472759266954025,0.704
0.005765920105723596,0.705
0.0018361481551936976,0.706
-0.002293203493512311,0.707
-0.005565262308639436,0.708
-0.007384583571204322,0.709
-0.007864605602540665,0.71
-0.007825820192979241,0.711
-0.008337044652178861,0.712
-0.00999798138451028,0.713
-0.012579615108550836,0.714
-0.015261173614351066,0.715
-0.017119296374474298,0.716
-0.01746282916312117,0.717
-0.01592269750397221,0.718
-0.012427359488075109,0.719
-0.007167813317857347,0.72
-0.0006025121911571059,0.721
0.0064827643708645025,0.722
0.01299256360099669,0.723
0.017814558041075037,0.724
0.020367808814305784,0.725
0.020990175189569096,0.726
0.020658585642691366,0.727
0.020169049671799232,0.728
0.019524754806475073,0.729
0.01803674710483985,0.73
0.014942706514811685,0.731
0.009980730947347784,0.732
0.0036045963382402933,0.733
-0.0031030680465743534,0.734
-0.00874705417714365,0.735
-0.012070215820154885,0.736
-0.012363654709826909,0.737
-0.009760126589779329,0.738
-0.005395064027318984,0.739
-0.0013044655395184955,0.74
0.00018864973081083903,0.741
-0.0024936356854744685,0.742
-0.009372725852534399,0.743
-0.018773188665776014,0.744
-0.02777084372152519,0.745
-0.03307176109383951,0.746
-0.03213138335899794,0.747
-0.024035831746976637,0.748
-0.009698289031246275,0.749
0.008504580188895992,0.75
0.027242027772273067,0.751
0.042866144660338154,0.752
0.05234554834623335,0.753
0.054137612176885175,0.754
0.04830986270686132,0.755
0.035939372685060596,0.756
0.01862588010051478,0.757
-0.0014702378695534409,0.758
-0.0215814835938107,0.759
-0.038750550679099195,0.76
-0.050415785993203954,0.761
-0.05475727705433706,0.762
-0.05099277432901515,0.763
-0.039869591191333,0.764
-0.02395149661563884,0.765
-0.007115146925075516,0.766
0.006640579562280501,0.767
0.014471968581742356,0.768
0.015666396056135807,0.769
0.011969959966281474,0.77
0.006829374156111826,0.771
0.003824811147239425,0.772
0.005358792715174552,0.773
0.012181478743328025,0.774
0.023307943811917812,0.775
0.035885145743674275,0.776
0.04539940893193967,0.777
0.04701257697339407,0.778
0.03796822751354474,0.779
0.0194800689444555,0.78
-0.0035092178666966786,0.781
-0.024455125745249443,0.782
-0.037740779487078775,0.783
-0.040459733676095205,0.784
-0.03309454554929084,0.785
-0.01912178101493616,0.786
-0.0035570425854005855,0.787
0.009078553504850342,0.788
0.016214285070847552,0.789
0.017447243568364933,0.79
0.013879123971288253,0.791
0.007256661392576723,0.792
-0.000560439357044344,0.793
-0.00776892426463799,0.794
-0.012824565425238191,0.795
-0.014874937293475193,0.796
-0.014152709358180613,0.797
-0.011852359384954788,0.798
-0.00939495777884156,0.799
-0.00769854817030074,0.8
-0.007054867006829553,0.801
-0.007417371371407557,0.802
-0.008577378388680888,0.803
-0.010129105556208617,0.804
-0.011409537377441596,0.805
-0.011529413947645794,0.806
-0.009478571517865025,0.807
-0.004269502748264372,0.808
0.004764113565673476,0.809
0.01749963496301746,0.81
0.0326387966111973,0.811
0.04758604457409469,0.812
0.05868216994852191,0.813
0.06196922366705272,0.814
0.054548129741866305,0.815
0.03608872070019035,0.816
0.009595198842040367,0.817
-0.01925437522237825,0.818
-0.04399526934608518,0.819
-0.059502224790258886,0.82
-0.06343142014018256,0.821
-0.05667140497812371,0.822
-0.042786465021907645,0.823
-0.026530605803893617,0.824
-0.011996311008849807,0.825
-0.001377303133086706,0.826
0.005089889728421117,0.827
0.008323650007098341,0.828
0.009494854593293868,0.829
0.009539907021147247,0.83
0.009130860573660474,0.831
0.00886276066509662,0.832
0.009404506088456827,0.833
0.011446052808490132,0.834
0.015301142303179778,0.835
0.02031214748412599,0.836
0.02466965191108238,0.837
0.026100881253179446,0.838
0.0231184714561084,0.839
0.01593606572872238,0.84
0.006355883333366074,0.841
-0.0032081129563721433,0.842
-0.010792972473686904,0.843
-0.015406218908889564,0.844
-0.01697597845742653,0.845
-0.016081849826946493,0.846
-0.013680595382522878,0.847
-0.010846944829766484,0.848
-0.008506996795386605,0.849
-0.007134684684646927,0.85
-0.006542571076347555,0.851
-0.006045702215251694,0.852
-0.005023765960324437,0.853
-0.0034271183421918463,0.854
-0.0016306576484907882,0.855
0.00028342161754570886,0.856
0.0028795582103297228,0.857
0.006906145330554295,0.858
0.012681231563783237,0.859
0.01982706057066493,0.86
0.027156699378733055,0.861
0.03260822383388103,0.862
0.03350934491865755,0.863
0.027496858050423217,0.864
0.0138736366007576,0.865
-0.005453239718456942,0.866
-0.026144317835703777,0.867
-0.04265567980676998,0.868
-0.05000828482969758,0.869
-0.04563864732904055,0.87
-0.03076679374972013,0.871
-0.010233080788654716,0.872
0.009641908919053394,0.873
0.023732335035698125,0.874
0.029453491681329755,0.875
0.02664403019271795,0.876
0.016970122464163954,0.877
0.003451787117381822,0.878
-0.010015205839019301,0.879
-0.019660148676516886,0.88
-0.023237107963838793,0.881
-0.020731852270597075,0.882
-0.013800562175788294,0.883
-0.004659982876887258,0.884
0.00462189576197251,0.885
0.012300580121751508,0.886
0.017121569104024143,0.887
0.018673243715982536,0.888
0.01751357461499331,0.889
0.01479370788477164,0.89
0.011570741444991102,0.891
0.008269739570174984,0.892
0.004743948278287172,0.893
0.0008367743579392036,0.894
-0.0032405376114246244,0.895
-0.006950110328322934,0.896
-0.009444574916761522,0.897
-0.009599899769375263,0.898
-0.006563191657114116,0.899
-0.000622560970491122,0.9
0.006470798781243212,0.901
0.012175089287930594,0.902
0.01431451280930964,0.903
0.011923453910082283,0.904
0.005453851787858544,0.905
-0.003527680282982232,0.906
-0.01285366893280822,0.907
-0.020292761008241126,0.908
-0.024161593962651228,0.909
-0.023896571015820094,0.91
-0.02018307554179657,0.911
-0.014519216676836024,0.912
-0.008508334051488367,0.913
-0.003236718140585581,0.914
0.0009919979296785916,0.915
0.004471769654877749,0.916
0.0076541645278921855,0.917
0.010801037897908284,0.918
0.013912225374644926,0.919
0.016858054946341395,0.92
0.019504737675219305,0.921
0.021634546832455467,0.922
0.022730940192600087,0.923
0.02188380735321943,0.924
0.018041895783468646,0.925
0.010737719801745645,0.926
0.000851664319167101,0.927
-0.009446443082502587,0.928
-0.01768248276072259,0.929
-0.02213627366626442,0.93
-0.022303038903484024,0.931
-0.018793097488653057,0.932
-0.012934046888228596,0.933
-0.006246700350584742,0.934
5.758809755215935e-05,0.935
0.0054044198208195535,0.936
0.009861897204708736,0.937
0.01372756985343391,0.938
0.016870907567174864,0.939
0.018427863850907254,0.94
0.017311562525135746,0.941
0.013054348211444104,0.942
0.006116729734491299,0.943
-0.002391918109963702,0.944
-0.011085418047358424,0.945
-0.018469989595795877,0.946
-0.023062071041369595,0.947
-0.023851880523935432,0.948
-0.02088833772630882,0.949
-0.015303450919495146,0.95
-0.008757466221691547,0.951
-0.0028015287735109473,0.952
0.001508795364119545,0.953
0.0037396774668952155,0.954
0.004117209201925388,0.955
0.003485558281432358,0.956
0.003021549177166369,0.957
0.003726858659799341,0.958
0.006031727338596049,0.959
0.009770919694011702,0.96
0.014360110152959795,0.961
0.018898921089224717,0.962
0.0222296750053962,0.963
0.02311942021348014,0.964
0.02062973626550981,0.965
0.014532262827489257,0.966
0.005453148777811614,0.967
-0.005303289442248898,0.968
-0.015986562717476654,0.969
-0.024686702139661783,0.97
-0.02988311641185164,0.971
-0.03106677383862793,0.972
-0.028805173263839197,0.973
-0.02406894011993414,0.974
-0.017636829519305196,0.975
-0.010200729195667122,0.976
-0.002646946594695166,0.977
0.004088322839357741,0.978
0.009360021300421663,0.979
0.0129428308051181,0.98
0.014971202988251962,0.981
0.015859880819060798,0.982
0.016216325577164424,0.983
0.016676092577838898,0.984
0.01768963802461265,0.985
0.01936804928228646,0.986
0.02141444328333666,0.987
0.02312616835128301,0.988
0.023450182401622128,0.989
0.02117173397894931,0.99
0.015489836848819126,0.991
0.006822836796624601,0.992
-0.0029853875154119865,0.993
-0.011554539533641073,0.994
-0.017345099880118797,0.995
-0.020394334725640114,0.996
-0.021897242335899986,0.997
-0.023214205262688945,0.998
-0.025107028628086874,0.999
-0.027408144124177303,1.0
-0.02916108694246255,1.001
-0.02917499140166884,1.002
-0.02659952838712096,1.003
-0.021264589462019607,1.004
-0.013710301566664187,1.005
-0.00485963654407337,1.006
0.004407417874826736,1.007
0.013430681683969818,1.008
0.02166416794807185,1.009
0.02850092802362665,1.01
0.033249510550777996,1.011
0.035264059804907266,1.012
0.03407816459239329,1.013
0.029547663251975376,1.014
0.022100429706687724,1.015
0.012954878807742591,1.016
0.00392845703805238,1.017
-0.0033077269199027486,1.018
-0.008024977961669929,1.019
-0.010606856555921277,1.02
-0.012030927358201549,1.021
-0.013130831475675344,1.022
-0.014108206125612434,1.023
-0.014527441741514177,1.024
-0.01371123855914488,1.025
-0.011212391408669644,1.026
-0.0070749827640169,1.027
-0.0018156956508421586,1.028
0.003773863466741023,1.029
0.00883606447567234,1.03
0.012549007320948562,1.031
0.014135201502046781,1.032
0.012931973201639656,1.033
0.008661849363967114,1.034
0.0017918110986839867,1.035
-0.006294204242956003,1.036
-0.013543019297282875,1.037
-0.017918897952022325,1.038
-0.018163407102940725,1.039
-0.014204221480648834,1.04
-0.007150422259486924,1.041
0.0010405838255709285,1.042
0.008190292603805202,1.043
0.012572610317416036,1.044
0.01327144173724142,1.045
0.01025519894112865,1.046
0.004418945012403999,1.047
-0.0024847539383159012,1.048
-0.00832495237079692,1.049
-0.011434301524198397,1.05
-0.011147208753680282,1.051
-0.0075964172853216876,1.052
-0.0014484320167567858,1.053
0.005835540711995343,1.054
0.012003057366263245,1.055
0.014999672022088477,1.056
0.014102244195010955,1.057
0.010078095961194272,1.058
0.004514635312549577,1.059
-0.0009561973074006371,1.06
-0.005221035266052692,1.061
-0.007914837806865855,1.062
-0.009248913065594746,1.063
-0.00960687031724895,1.064
-0.009183410027492107,1.065
-0.00785459107123984,1.066
-0.005337624247185357,1.067
-0.0015368252413356413,1.068
0.0031871623671210748,1.069
0.008028876669754962,1.07
0.011978067385999214,1.071
0.014154808213739484,1.072
0.014174020913605288,1.073
0.012406574502784623,1.074
0.009889085218449079,1.075
0.007797890491287157,1.076
0.006793724663510352,1.077
0.0066471134192362695,1.078
0.006297619443608314,1.079
0.004338121532602224,1.08
-0.00019795821351950126,1.081
-0.007190003009664667,1.082
-0.015365954136626232,1.083
-0.022748365463948785,1.084
-0.027282758731476765,1.085
-0.027445319220663303,1.086
-0.022742101114434084,1.087
-0.013978611791350029,1.088
-0.0030459543487209003,1.089
0.007783552918874873,1.09
0.01657078229248053,1.091
0.02204849325491169,1.092
0.023688075322222436,1.093
0.021716673253852185,1.094
0.017042882231169402,1.095
0.010936988448682667,1.096
0.00456385781762145,1.097
-0.001319175467108854,1.098
-0.0063388183682858935,1.099
-0.01032520148574239,1.1
-0.013229435460038304,1.101
-0.01512156685704416,1.102
-0.016090827379654893,1.103
-0.016062748478373627,1.104
-0.014710923915790044,1.105
-0.011578412217663479,1.106
-0.0063685681258666554,1.107
0.0007455485889609485,1.108
0.008955344690555605,1.109
0.016911187668884237,1.11
0.023069088197798415,1.111
0.02611004802843301,1.112
0.025258364847509023,1.113
0.02045077773387796,1.114
0.012308922262969474,1.115
0.001906683179041764,1.116
-0.009466111708332971,1.117
-0.020306669410389146,1.118
-0.028819688750878307,1.119
-0.03319382548587097,1.12
-0.03219310995175428,1.121
-0.025483291175872655,1.122
-0.013509585569408865,1.123
0.0026671935035034633,1.124
0.02129333025493977,1.125
0.039709164820233525,1.126
0.05433417527710041,1.127
0.06132215858905788,1.128
0.05800510544527796,1.129
0.044253080083324084,1.13
0.022585166118559222,1.131
-0.0028953812023777875,1.132
-0.02762986456926473,1.133
-0.04733052293392649,1.134
-0.05879783368741644,1.135
-0.060856170063813116,1.136
-0.05453112885042942,1.137
-0.04221271537720862,1.138
-0.02672280993302949,1.139
-0.010898953099709154,1.14
0.0026560260697720017,1.141
0.012024261076065645,1.142
0.016409807899683992,1.143
0.016257139604965814,1.144
0.013077176927167693,1.145
0.009048444092875706,1.146
0.0063802888203676605,1.147
0.006587089888780887,1.148
0.009966171305242692,1.149
0.01549286638981463,1.15
0.021155809477394618,1.151
0.024619854504404005,1.152
0.024027378257206005,1.153
0.01868403516651777,1.154
0.00936791498530735,1.155
-0.0018879831648291308,1.156
-0.01245405556493292,1.157
-0.019919628373826735,1.158
-0.022763092034713783,1.159
-0.020664304146251512,1.16
-0.01442268721946529,1.161
-0.005590457575515571,1.162
0.004096091475424116,1.163
0.013277551657286503,1.164
0.021074354403471898,1.165
0.02663709561661813,1.166
0.028712585656030902,1.167
0.025827576185852547,1.168
0.01714891483065581,1.169
0.00341001968949422,1.17
-0.012895424695811888,1.171
-0.028189868406263013,1.172
-0.03889879025794962,1.173
-0.042526264415674,1.174
-0.03844720699394209,1.175
-0.028125773650268256,1.176
-0.014500453855534005,1.177
-0.0007825034478350929,1.178
0.01054895713575296,1.179
0.018118949690582063,1.18
0.021618407155327195,1.181
0.021605399838355025,1.182
0.019171431364001006,1.183
0.0155265768963668,1.184
0.011644636321887721,1.185
0.008097168118141554,1.186
0.005158911830618933,1.187
0.0031184540540182258,1.188
0.0024096287796666126,1.189
0.0032123133510012724,1.19
0.004833874918302071,1.191
0.005645649210360812,1.192
0.003976193207404159,1.193
-0.00068798404463949,1.194
-0.007420954221587489,1.195
-0.014630077322013808,1.196
-0.0208153212420291,1.197
-0.024766184692817966,1.198
-0.0256074526484673,1.199
-0.023080184485954853,1.2
-0.01775016098866385,1.201
-0.010664708959761262,1.202
-0.002815236886067415,1.203
0.004957414383717336,1.204
0.011775436255859736,1.205
0.016747927951042532,1.206
0.019303625028825606,1.207
0.019545647708632402,1.208
0.018248770734168054,1.209
0.016404092818065458,1.21
0.014619126344279972,1.211
0.012815689181240134,1.212
0.010477680365593439,1.213
0.007289936164771988,1.214
0.003630529406347095,1.215
0.0004986836292567417,1.216
-0.0010151916471974102,1.217
-0.00034112335581418853,1.218
0.0021281350735211577,1.219
0.004921947465493673,1.22
0.005959676894026643,1.221
0.003618956274888969,1.222
-0.002253567602464285,1.223
-0.010153611781740048,1.224
-0.01758524339609853,1.225
-0.022063492242954355,1.226
-0.02204916854172779,1.227
-0.01758402889402402,1.228
-0.010271620513241448,1.229
-0.0025134799314768972,1.23
0.0034427147707492976,1.231
0.006132304469617305,1.232
0.005152698999408836,1.233
0.001135485521795505,1.234
-0.004564113804942349,1.235
