VaMe,time
0.0006437937390122028,0.001
0.002727615429142815,0.002
0.003978311266095282,0.003
0.004073308751614898,0.004
0.0032834080762018246,0.005
0.002292095869109275,0.006
0.0019389120441386668,0.007
0.00289088578486779,0.008
0.0052966221158167685,0.009
0.008661223778682232,0.01
0.012021486945470044,0.011
0.01425933417191258,0.012
0.014403554534272557,0.013
0.011922188784094161,0.014
0.006997986587539954,0.015
0.0005866296036522908,0.016
-0.005923551508784533,0.017
-0.011273514038118146,0.018
-0.014720858228322278,0.019
-0.01609257911604604,0.02
-0.0156520482801294,0.021
-0.0139223362064852,0.022
-0.011460956346863326,0.023
-0.00858959606377602,0.024
-0.005208298771985998,0.025
-0.0008910175696789126,0.026
0.00465342206710791,0.027
0.011019028241188675,0.028
0.01693069582372531,0.029
0.020698155447418307,0.03
0.021084188972107648,0.031
0.018060635377006567,0.032
0.012902395333353887,0.033
0.007559009039818138,0.034
0.0037869819153270876,0.035
0.002465173586869437,0.036
0.0032942579814085413,0.037
0.005089596096995361,0.038
0.006552239435582569,0.039
0.006920185187852293,0.04
0.006076000904381135,0.041
0.004250696032591348,0.042
0.0016703072028180434,0.043
-0.0016398117859721185,0.044
-0.005808853538459683,0.045
-0.010893006786107964,0.046
-0.016695308823686677,0.047
-0.02277309639309579,0.048
-0.028495340686402526,0.049
-0.033058207564442436,0.05
-0.03563872991163237,0.051
-0.03576756682109803,0.052
-0.03358065429124614,0.053
-0.029533315405647808,0.054
-0.023787011172003245,0.055
-0.016030253952611557,0.056
-0.005981641713894799,0.057
0.006057096112901008,0.058
0.019073939669417596,0.059
0.0314216191859873,0.06
0.040967960999643636,0.061
0.04560359813292911,0.062
0.044157986739438417,0.063
0.03722020203511939,0.064
0.027142946061410867,0.065
0.01707987018738157,0.066
0.009755633992450276,0.067
0.006666162732972309,0.068
0.007825972546506011,0.069
0.01194252606533131,0.07
0.016900068400530443,0.071
0.020353309746564706,0.072
0.020252037691475586,0.073
0.015281324438793448,0.074
0.005232677115477338,0.075
-0.008764894539991028,0.076
-0.024323038333457902,0.077
-0.038365467126907964,0.078
-0.04804836020416394,0.079
-0.051543273973703244,0.08
-0.0483531017857469,0.081
-0.03925621547690111,0.082
-0.02608526080924515,0.083
-0.011289963738910327,0.084
0.0026968883235883147,0.085
0.013909059648602716,0.086
0.02097469499891619,0.087
0.02327169240243589,0.088
0.021183421537967574,0.089
0.016051909793813463,0.09
0.009688048469320322,0.091
0.003796271989768996,0.092
-0.0003739274376736351,0.093
-0.0022345432160263763,0.094
-0.0020778554324218696,0.095
-0.0010619440667204941,0.096
-0.0006239325933438325,0.097
-0.0015943367462934914,0.098
-0.0037103279911455942,0.099
-0.005843182188350161,0.1
-0.006653601915626463,0.101
-0.0052176179911614835,0.102
-0.0013895148554222037,0.103
0.004134830580729939,0.104
0.010035951364309795,0.105
0.014793650496727746,0.106
0.017209614251843953,0.107
0.016896928658793758,0.108
0.014469193937197582,0.109
0.011170795883163893,0.11
0.008128154133451223,0.111
0.005764600087920882,0.112
0.0036719657096705998,0.113
0.0008955256841385885,0.114
-0.0034343315403777674,0.115
-0.009358834629135488,0.116
-0.0157280333369349,0.117
-0.020510309306675724,0.118
-0.021606113100212144,0.119
-0.017734940625831128,0.12
-0.008987944047364565,0.121
0.0030734203826494936,0.122
0.015669852363889993,0.123
0.02539839730016254,0.124
0.02916709934762456,0.125
0.02525883794978171,0.126
0.014104414489674949,0.127
-0.0017785363664888961,0.128
-0.018753327070335946,0.129
-0.033209242011673724,0.13
-0.04225099407017568,0.131
-0.044034286729874465,0.132
-0.03806711610779557,0.133
-0.025365728223258867,0.134
-0.008066145946305935,0.135
0.011302958411833488,0.136
0.030106859284035628,0.137
0.045392810855374374,0.138
0.05397964799411552,0.139
0.05332669970020901,0.14
0.042753976057972626,0.141
0.024051900477421232,0.142
0.0009857577499054935,0.143
-0.02182933945578764,0.144
-0.03997195082807987,0.145
-0.04994817504378908,0.146
-0.049845379205150496,0.147
-0.04000122819489352,0.148
-0.023151791269242418,0.149
-0.0035983437341861693,0.15
0.014133944058734605,0.151
0.026393803285070242,0.152
0.031075690032488328,0.153
0.027978820966997164,0.154
0.018810719360152394,0.155
0.006631650357578561,0.156
-0.005253746342496771,0.157
-0.014393217727229523,0.158
-0.01961595402537867,0.159
-0.020790529432032745,0.16
-0.018363945345311883,0.161
-0.01297411087967862,0.162
-0.005223732802554376,0.163
0.004350368796315126,0.164
0.01517384237688698,0.165
0.02647695862063007,0.166
0.03703759415020542,0.167
0.04488479969805629,0.168
0.047424496513165965,0.169
0.042426625987747865,0.17
0.02948286625324899,0.171
0.010795811663878866,0.172
-0.009428089838750544,0.173
-0.026565950886955857,0.174
-0.03719061539979957,0.175
-0.04009160180851086,0.176
-0.0365403820357378,0.177
-0.02971581473108768,0.178
-0.023306055912680403,0.179
-0.01987720759720736,0.18
-0.019927407614652105,0.181
-0.02199436030865401,0.182
-0.023543011276004815,0.183
-0.022177756665472233,0.184
-0.01670991683601005,0.185
-0.007630683815463155,0.186
0.0032646035978865597,0.187
0.013806338638755251,0.188
0.02223843168952409,0.189
0.027538083220579823,0.19
0.02945740320997581,0.191
0.02842920407113239,0.192
0.025304320180956057,0.193
0.02098994769497232,0.194
0.016176649790231954,0.195
0.011300663024572874,0.196
0.006725865179901127,0.197
0.0029344470412882954,0.198
0.0005383628180408514,0.199
0.00015446394469365097,0.2
0.0022508513300210707,0.201
0.006917699967303757,0.202
0.013471529969058024,0.203
0.020062750116711745,0.204
0.0237790648323826,0.205
0.021552812884340154,0.206
0.011521612146462754,0.207
-0.005860365386558986,0.208
-0.02752835059351923,0.209
-0.04856137940631637,0.21
-0.06368537098656596,0.211
-0.06887765853119858,0.212
-0.0625361257459327,0.213
-0.04589457224061479,0.214
-0.02260857493917274,0.215
0.0022947949012455436,0.216
0.02379633228462537,0.217
0.0382011402196487,0.218
0.04394014489358894,0.219
0.04163615557703387,0.22
0.033566299452244416,0.221
0.022789570053681953,0.222
0.012213813349960221,0.223
0.003901705307928613,0.224
-0.0011722978431433898,0.225
-0.0029666553921058963,0.226
-0.002056456744884388,0.227
0.000650092407455034,0.228
0.004104891191157644,0.229
0.007266940850788742,0.23
0.00926690151330046,0.231
0.00958572633000018,0.232
0.008151318262073173,0.233
0.005256046061244792,0.234
0.0013387835410300095,0.235
-0.0031894936995585624,0.236
-0.00797082734209035,0.237
-0.012660699585439271,0.238
-0.016931523635185276,0.239
-0.02048087524025273,0.24
-0.022960330539533755,0.241
-0.023889110415607727,0.242
-0.02271689270353773,0.243
-0.019053278540594795,0.244
-0.012875814865907689,0.245
-0.004593940161049101,0.246
0.004932110190042121,0.247
0.014378745905677545,0.248
0.0221243086148455,0.249
0.02668571697783564,0.25
0.027260674838931267,0.251
0.024032179028491075,0.252
0.01799085996820988,0.253
0.010451125683116777,0.254
0.0026756747592595977,0.255
-0.0042323344704735645,0.256
-0.00933381711787116,0.257
-0.011944386255342346,0.258
-0.01181790315318846,0.259
-0.009272308301843644,0.26
-0.0051537472917579695,0.261
-0.0006851095700192716,0.262
0.0027637804449312663,0.263
0.004049233798859064,0.264
0.002740295149136438,0.265
-0.0005864708719370216,0.266
-0.004525883305362433,0.267
-0.007335166886404718,0.268
-0.007402829041507288,0.269
-0.003678227062603168,0.27
0.0038379741383536875,0.271
0.013721075962506478,0.272
0.02320656999272721,0.273
0.028961943317581854,0.274
0.028397663288455353,0.275
0.020801106478819782,0.276
0.007617185722685215,0.277
-0.008098460176201635,0.278
-0.022657983147625963,0.279
-0.032797444508499994,0.28
-0.03656270960881144,0.281
-0.03388489140704335,0.282
-0.02656838741369147,0.283
-0.01745112440570126,0.284
-0.009151060031856905,0.285
-0.0031826766244379425,0.286
0.0002160446567054104,0.287
0.0017056259663371007,0.288
0.002253183941958278,0.289
0.0026417362362085393,0.29
0.003246617988939759,0.291
0.004113423272463092,0.292
0.0052153626040266285,0.293
0.0066170952057213765,0.294
0.008395294579623335,0.295
0.01046491615594242,0.296
0.012511507353750978,0.297
0.01404027277652256,0.298
0.014511980655594675,0.299
0.013577227627927268,0.3
0.011317568836350532,0.301
0.008354816828717897,0.302
0.005745759386825194,0.303
0.004626878572965324,0.304
0.005703167657598682,0.305
0.008811911217977557,0.306
0.012782039531951932,0.307
0.01574919407369876,0.308
0.015949901228489487,0.309
0.012612166285926436,0.31
0.006272260241307778,0.311
-0.0017174152879176066,0.312
-0.010010006887954684,0.313
-0.01775470274750627,0.314
-0.024451611515722223,0.315
-0.02952432904222068,0.316
-0.03231484251009138,0.317
-0.03251099711099,0.318
-0.030294827029400024,0.319
-0.025998753710151746,0.32
-0.01979877916133816,0.321
-0.011878333033740678,0.322
-0.0028896678368948263,0.323
0.005892032640840151,0.324
0.013001175291973399,0.325
0.017384732875891293,0.326
0.01871812447222162,0.327
0.017394166529791782,0.328
0.014300960751173306,0.329
0.010496935556124144,0.33
0.006913597765487171,0.331
0.004182484569569212,0.332
0.0025923897976451934,0.333
0.0021322499790133445,0.334
0.002583075150930454,0.335
0.0036177223884030565,0.336
0.004883848094215847,0.337
0.006067234610215842,0.338
0.006901453392569451,0.339
0.0071297841283741,0.34
0.006509766513517417,0.341
0.004903502393616794,0.342
0.0023958003005777177,0.343
-0.0006433108264952768,0.344
-0.0036310906586636835,0.345
-0.005998250736667066,0.346
-0.007427388002639785,0.347
-0.00791008768212451,0.348
-0.00761931931440596,0.349
-0.006764693604587201,0.35
-0.005518562815905392,0.351
-0.003965272403410592,0.352
-0.002063377682455222,0.353
0.0003040402677934346,0.354
0.0031714724954860383,0.355
0.006336821123986973,0.356
0.00934229446436095,0.357
0.011609365094529027,0.358
0.012633973955145476,0.359
0.012099960688221261,0.36
0.0098431253647812,0.361
0.005792459766764244,0.362
7.282346373646893e-05,0.363
-0.006768330119115343,0.364
-0.01367782765031819,0.365
-0.019335997668478072,0.366
-0.02260097495229836,0.367
-0.022908388215486682,0.368
-0.020433103753178864,0.369
-0.015937223602523736,0.37
-0.010403673583365825,0.371
-0.004666068405188622,0.372
0.0007951269698506818,0.373
0.005830133119368791,0.374
0.010433127775608807,0.375
0.014555236299804241,0.376
0.01804435113512852,0.377
0.020665601300257595,0.378
0.02209200154367309,0.379
0.021880915173445346,0.38
0.019602582228122122,0.381
0.01518726178079881,0.382
0.009199625365907368,0.383
0.0027174737576747218,0.384
-0.003109632337311006,0.385
-0.0074962483221027425,0.386
-0.01018441099814219,0.387
-0.011320256834259329,0.388
-0.011296924831800432,0.389
-0.010722901649502065,0.39
-0.010304085865446693,0.391
-0.010465870590559045,0.392
-0.010998817500774243,0.393
-0.011100529228657834,0.394
-0.009853182311341259,0.395
-0.006856430407945125,0.396
-0.0025603192894046744,0.397
0.0019444769583076736,0.398
0.005425584241935855,0.399
0.006915038681320388,0.4
0.005930575089706975,0.401
0.0025889807950410185,0.402
-0.0023775481611586487,0.403
-0.007784438127777601,0.404
-0.0123651676630428,0.405
-0.015135773935099774,0.406
-0.0155024320229074,0.407
-0.013186567528629409,0.408
-0.008214326007362447,0.409
-0.001029946830487248,0.41
0.007422245433945462,0.411
0.01581988624528915,0.412
0.022801605933173208,0.413
0.02734922474802931,0.414
0.028963952542622465,0.415
0.027571652020300687,0.416
0.02340622273416498,0.417
0.01708177722951298,0.418
0.009699219117604638,0.419
0.0026979254803458893,0.42
-0.002549704326123661,0.421
-0.005141908265993078,0.422
-0.004886245883404918,0.423
-0.002369261624435974,0.424
0.0011175184734508415,0.425
0.0038207142089893478,0.426
0.004056223444345481,0.427
0.0009503281663677754,0.428
-0.005115693830436718,0.429
-0.012734680839875409,0.43
-0.020106179221508987,0.431
-0.025594171736447822,0.432
-0.028036152105092003,0.433
-0.026884596983306107,0.434
-0.022319115790561606,0.435
-0.01529170485575719,0.436
-0.0072932672200140556,0.437
0.0001438167317811165,0.438
0.00588798126248581,0.439
0.009374781092068426,0.44
0.010541297292987334,0.441
0.009679402176458154,0.442
0.007317859007534874,0.443
0.004149243622213223,0.444
0.0009577884217784485,0.445
-0.001494697309557457,0.446
-0.0026227087494210288,0.447
-0.002169001596353831,0.448
-0.0002894359609010529,0.449
0.0025161256986860423,0.45
0.005641426080583205,0.451
0.008617459300122959,0.452
0.011155693327604297,0.453
0.013003665990614754,0.454
0.013823454539525964,0.455
0.013242086297437627,0.456
0.011038586403414381,0.457
0.007313712341241056,0.458
0.002524283180855712,0.459
-0.0026083685500250596,0.46
-0.007246366179777674,0.461
-0.010587437525445454,0.462
-0.012001415657129345,0.463
-0.011169562050503543,0.464
-0.008241092713355902,0.465
-0.0039181213872984,0.466
0.0006941585115840017,0.467
0.004495000742952216,0.468
0.0068417006327735255,0.469
0.007736952874375236,0.47
0.007598361474419916,0.471
0.00683427846064939,0.472
0.0056126082498011666,0.473
0.003948617107745875,0.474
0.0019147214487906644,0.475
-0.00028298226446421565,0.476
-0.0024073127264789534,0.477
-0.004331265055394509,0.478
-0.006110217914571061,0.479
-0.007933914907440482,0.48
-0.009915285566389471,0.481
-0.011831549262552933,0.482
-0.013092068552986927,0.483
-0.013005840607049263,0.484
-0.011107517618680188,0.485
-0.0073319986776371965,0.486
-0.002039264211101576,0.487
0.004036412973499129,0.488
0.009875274445863988,0.489
0.014311665622532653,0.49
0.01629473300945727,0.491
0.015265695393059121,0.492
0.011410896064525824,0.493
0.005556113720866824,0.494
-0.0011947166816517266,0.495
-0.0077724875396263755,0.496
-0.013245846574112869,0.497
-0.01681921985499481,0.498
-0.01791322283222037,0.499
-0.016319468693928158,0.5
-0.012202877493325772,0.501
-0.005859115372921351,0.502
0.002456977903000043,0.503
0.012300240415591964,0.504
0.022562406162576917,0.505
0.03130308678307963,0.506
0.03628303677918836,0.507
0.03594313216290485,0.508
0.030102105198767232,0.509
0.019927457943665836,0.51
0.007326356313202218,0.511
-0.005723019828792656,0.512
-0.017474126643114447,0.513
-0.026441181146373657,0.514
-0.03152013943387777,0.515
-0.03225987266961462,0.516
-0.029036450657894095,0.517
-0.02299203827581629,0.518
-0.015762808729102365,0.519
-0.009030031892236442,0.52
-0.004027096820614409,0.521
-0.0012231285933235175,0.522
-0.0003060525383145381,0.523
-0.0004358799854141885,0.524
-0.0006331088473336598,0.525
-0.00014255246376188436,0.526
0.0013931677112639527,0.527
0.0040019144054812255,0.528
0.007493900903985787,0.529
0.011461941335325222,0.53
0.01525610210317697,0.531
0.01805078668731241,0.532
0.0190681415037195,0.533
0.017955267887828242,0.534
0.015107907887361686,0.535
0.01160175028866386,0.536
0.008661912517108605,0.537
0.00699575110501691,0.538
0.006376670783654018,0.539
0.0057407390744686725,0.54
0.0038504044965222742,0.541
0.00013685404533416058,0.542
-0.00493068993575618,0.543
-0.010183807751020103,0.544
-0.014431053924629164,0.545
-0.016971520419069405,0.546
-0.017679675627353696,0.547
-0.016756973771276315,0.548
-0.014533658791925794,0.549
-0.011533223858001986,0.55
-0.008538110510136636,0.551
-0.006357014657663542,0.552
-0.005446310987632134,0.553
-0.005706887888581679,0.554
-0.006514830890096514,0.555
-0.006907616836214436,0.556
-0.005905529486450293,0.557
-0.0028849765785037536,0.558
0.0021625904004470213,0.559
0.00855877514488553,0.56
0.015054297970005563,0.561
0.020154144135398865,0.562
0.022610066652055262,0.563
0.02188590039812718,0.564
0.018329695684012985,0.565
0.01296301732885782,0.566
0.007050384078518706,0.567
0.0016720338518845259,0.568
-0.002534142171212626,0.569
-0.00539550329685707,0.57
-0.007061297653659245,0.571
-0.00782110333369279,0.572
-0.00798134359712481,0.573
-0.007809789586804324,0.574
-0.007488779857108585,0.575
-0.007075400103849973,0.576
-0.006529320498704553,0.577
-0.005787398212164667,0.578
-0.004799869702722125,0.579
-0.0035203436660942227,0.58
-0.0019116569383443162,0.581
1.1095059564385896e-05,0.582
0.0021338634270722523,0.583
0.004219768482522889,0.584
0.005936107609761649,0.585
0.006953612553348669,0.586
0.007043274808246056,0.587
0.0060755806452242244,0.588
0.004002341676396879,0.589
0.0009782389519915847,0.59
-0.002475416717691181,0.591
-0.005552860410471205,0.592
-0.007501546336787768,0.593
-0.007908357713632293,0.594
-0.006753937389789745,0.595
-0.004313715636417451,0.596
-0.001018123152710355,0.597
0.0026690772878680265,0.598
0.006295009207699862,0.599
0.00938318035381409,0.6
0.011419983817025149,0.601
0.011948715271832338,0.602
0.010757207188129473,0.603
0.00802089474482326,0.604
0.004241252285969225,0.605
3.6108074354514096e-05,0.606
-0.004009324632371942,0.607
-0.007368385218578195,0.608
-0.009563229094382307,0.609
-0.010210313599169641,0.61
-0.009174856025978406,0.611
-0.006775021226907283,0.612
-0.003823533309991338,0.613
-0.0013569927169205464,0.614
-0.00020324003199959344,0.615
-0.0006706470489444028,0.616
-0.0024781028937483633,0.617
-0.004889914895365884,0.618
-0.006981139086487711,0.619
-0.007929356633661162,0.62
-0.007225508803970432,0.621
-0.00477182115411622,0.622
-0.0008901287242167686,0.623
0.0037514186977604855,0.624
0.008274110989937859,0.625
0.01176711246067264,0.626
0.013518396007285867,0.627
0.013245700097066312,0.628
0.011196034077601124,0.629
0.008042973290748729,0.63
0.00463378287214296,0.631
0.0017031079088429884,0.632
-0.0003210207010773387,0.633
-0.0013501273949083916,0.634
-0.0015518570276587755,0.635
-0.0012422402046512995,0.636
-0.0007907128611193199,0.637
-0.0005350842950507445,0.638
-0.0007022670949983428,0.639
-0.0013426821686112421,0.64
-0.002325946397748863,0.641
-0.003428797811588421,0.642
-0.004456303610130206,0.643
-0.005301843880705521,0.644
-0.005921170439831117,0.645
-0.0062829293262052855,0.646
-0.006348286066097196,0.647
-0.006065131654625218,0.648
-0.005366349163753599,0.649
-0.004198688007014661,0.65
-0.002578158837631049,0.651
-0.0006233475552371702,0.652
0.0014668359447449976,0.653
0.0034740373162153327,0.654
0.005209554063684612,0.655
0.006523721470672539,0.656
0.007299404528192617,0.657
0.007470276948362365,0.658
0.007067020762413344,0.659
0.006236490709207171,0.66
0.005186493592813439,0.661
0.00409503462269486,0.662
0.0030620306854368634,0.663
0.002124179508261713,0.664
0.0012946962045813867,0.665
0.0005857878467446957,0.666
2.372536022444242e-06,0.667
-0.00046888833090796215,0.668
-0.0008541660318906633,0.669
-0.001185624194189491,0.67
-0.0015013533303820101,0.671
-0.0018339783148989333,0.672
-0.002194358866609519,0.673
-0.0025728767362312075,0.674
-0.002955470638215456,0.675
-0.0033357170139116277,0.676
-0.003704946168606721,0.677
-0.004027671574579458,0.678
-0.004234611600918783,0.679
-0.004243835510360038,0.68
-0.003991146659791743,0.681
-0.003452427995059917,0.682
-0.0026577497327630907,0.683
-0.0016922704296711939,0.684
-0.0006665437318854943,0.685
0.0003252615109466192,0.686
0.0012137304937828385,0.687
0.001931796963508498,0.688
0.0024023289028985853,0.689
0.002551476397792898,0.69
0.0023453863776466354,0.691
0.0018418097111029224,0.692
0.001212760252900997,0.693
0.0006925070791133477,0.694
0.0004748963394074195,0.695
0.0006321173637600333,0.696
0.0011024555343301101,0.697
0.0017424779250647335,0.698
0.002394640026607083,0.699
0.0029181417708325492,0.7
0.0031856732818229348,0.701
0.003100977200462787,0.702
0.002663037338743708,0.703
0.0020133124676728815,0.704
0.0013819102903116045,0.705
0.0009560921857455667,0.706
0.0007837436677091328,0.707
0.0007758434142331602,0.708
0.0007856529989113487,0.709
0.0006997348071281544,0.71
0.00047784355768072136,0.711
0.00012960566276088467,0.712
-0.0003413940192683073,0.713
-0.0009798883902764602,0.714
-0.001853956009998659,0.715
-0.002963302818379205,0.716
-0.004173054100149411,0.717
-0.005248756153287683,0.718
-0.005955997080993599,0.719
-0.006145184778224097,0.72
-0.005780765993534749,0.721
-0.004915482720213787,0.722
-0.0036492792736799334,0.723
-0.0021198044079780184,0.724
-0.0005052307003295743,0.725
0.0010187373295460118,0.726
0.0023473467285714165,0.727
0.003468820566788379,0.728
0.004429884598338554,0.729
0.005273898624267962,0.73
0.005977479562635484,0.731
0.006429283866794867,0.732
0.006478755535975607,0.733
0.0060241668662523685,0.734
0.005068850810950466,0.735
0.0037076402454911824,0.736
0.0020853052054905807,0.737
0.0003679862027781987,0.738
-0.0012777686146968547,0.739
-0.0027000842809688165,0.74
-0.0037684470605750947,0.741
-0.004373377635679241,0.742
-0.004425384772269432,0.743
-0.0038708790764756785,0.744
-0.0027202636144093386,0.745
-0.0010656453529781138,0.746
0.0009020857049456666,0.747
0.0028648973023877493,0.748
0.004385886249092205,0.749
0.005006645263540956,0.75
0.004407266383313258,0.751
0.002546581580903594,0.752
-0.0002850970279652214,0.753
-0.0035245870638485753,0.754
-0.00649679389434709,0.755
-0.008619967120725968,0.756
-0.009553579345320074,0.757
-0.009224579015202091,0.758
-0.007750818877798629,0.759
-0.005324466468597991,0.76
-0.0021218149177694825,0.761
0.0016930379521064342,0.762
0.005866220878643525,0.763
0.009963074724780013,0.764
0.013370096649816466,0.765
0.015361194838996162,0.766
0.015233342885608112,0.767
0.012577884659197902,0.768
0.00760620178657372,0.769
0.0012520980610317377,0.77
-0.005115162172850986,0.771
-0.010195458365093965,0.772
-0.013173495885555638,0.773
-0.01388214528455235,0.774
-0.012710121142434526,0.775
-0.010339069383463996,0.776
-0.0074641471635581175,0.777
-0.004638437062910623,0.778
-0.0022481971484328844,0.779
-0.0005179301257819278,0.78
0.0005192450118095521,0.781
0.0010447186895161515,0.782
0.0013991416333988022,0.783
0.0019468314788555802,0.784
0.002950160882708295,0.785
0.004534519028116921,0.786
0.006692012098768886,0.787
0.009232803609433772,0.788
0.011723112192182472,0.789
0.013529367350857436,0.79
0.01400576180917621,0.791
0.01273060866717242,0.792
0.00965463788303491,0.793
0.005103351247347384,0.794
-0.00031742858926642095,0.795
-0.00584374527314691,0.796
-0.010683101712125,0.797
-0.01413863889618219,0.798
-0.01569244380352123,0.799
-0.015073684144046747,0.8
-0.01238904560159168,0.801
-0.008231571640342734,0.802
-0.003554167454916785,0.803
0.0006698670284003867,0.804
0.003745746851389361,0.805
0.0053884026034012045,0.806
0.00571554413931506,0.807
0.005134998397100781,0.808
0.004165667802261804,0.809
0.003256992499583647,0.81
0.0026603671511432224,0.811
0.0023744771610103564,0.812
0.00218165749994963,0.813
0.0017862904895862778,0.814
0.0009914909216173463,0.815
-0.0002051486295597536,0.816
-0.0016341663161154039,0.817
-0.0030271214922881072,0.818
-0.004081565859859277,0.819
-0.004523502561059025,0.82
-0.0041896182731712564,0.821
-0.0031063187702960555,0.822
-0.0015079096879652932,0.823
0.00022784504602861116,0.824
0.0016928664874986587,0.825
0.0025727224853801887,0.826
0.002754643488583218,0.827
0.0023618559142727646,0.828
0.0016738557778219335,0.829
0.000985682516535231,0.83
0.0004953151102884492,0.831
0.00026435867062505665,0.832
0.000247686171290279,0.833
0.00035448109122082145,0.834
0.0004916922250437446,0.835
0.0005758550137371064,0.836
0.0005405233593583085,0.837
0.0003519808577188589,0.838
2.7286688624439117e-05,0.839
-0.0003573916938514514,0.84
-0.0006938042857893853,0.841
-0.0008861926998118332,0.842
-0.0008620234805925772,0.843
-0.0005663035320596004,0.844
1.2624548251499314e-05,0.845
0.0008025383882226467,0.846
0.0016314203440245753,0.847
0.0022603325583528486,0.848
0.0024715775044409625,0.849
0.0021563005349840864,0.85
0.001340879315820879,0.851
0.00017005177367358185,0.852
-0.0011179073628995947,0.853
-0.0022240304214692945,0.854
-0.0028384832031326354,0.855
-0.002705540892250773,0.856
-0.0016947570854512625,0.857
0.0001299611015945108,0.858
0.00246980475332359,0.859
0.0048259358937236645,0.86
0.006630590393897972,0.861
0.0074273179041085685,0.862
0.007002156041520971,0.863
0.005415730577447988,0.864
0.0029715238240496755,0.865
0.00014286611076554714,0.866
-0.002553908404638296,0.867
-0.004713718336573513,0.868
-0.006150295137337145,0.869
-0.006893063219191418,0.87
-0.00707932362511886,0.871
-0.0068270044886940585,0.872
-0.006189611131726131,0.873
-0.005210818616854742,0.874
-0.00399343445679969,0.875
-0.002708579621357907,0.876
-0.0015506541552858589,0.877
-0.000674324713988809,0.878
-0.00014341595770834615,0.879
8.100627275167399e-05,0.88
0.00010407066511757992,0.881
4.300974044068154e-05,0.882
-4.633794146023377e-06,0.883
3.379032354150514e-05,0.884
0.00021114516781472185,0.885
0.0005582193309362122,0.886
0.0010663604684124114,0.887
0.0016757320185378805,0.888
0.002286473484968842,0.889
0.0027877185093169313,0.89
0.0031005915310602897,0.891
0.003218291787916031,0.892
0.003215395765650338,0.893
0.0032314401900397616,0.894
0.0034364324482937057,0.895
0.003947381323557426,0.896
0.004713542420336991,0.897
0.00547774120730923,0.898
0.005882250631513848,0.899
0.005658661396334313,0.9
0.004772382905067794,0.901
0.0034297724530884177,0.902
0.001962908087751157,0.903
0.0006925552158858597,0.904
-0.00016813668104567042,0.905
-0.0005822543829731542,0.906
-0.0006985000343439556,0.907
-0.0007367393785289743,0.908
-0.0008161869982027051,0.909
-0.0008841053052006857,0.91
-0.0008110745342469091,0.911
-0.0005828083695930365,0.912
-0.0004485020851373538,0.913
-0.0008947970238687104,0.914
-0.002371369812662775,0.915
-0.00488952968568785,0.916
-0.007874499706140835,0.917
-0.01047527640011257,0.918
-0.012028440481574233,0.919
-0.012283812832463905,0.92
-0.011351270322296426,0.921
-0.00954415296884309,0.922
-0.0072205923677278894,0.923
-0.004651756661347454,0.924
-0.001994599218087902,0.925
0.0006075534644231446,0.926
0.0029361473281568524,0.927
0.004741094839379768,0.928
0.005858739941980707,0.929
0.006286582312652577,0.93
0.0061728192744059515,0.931
0.005742672490906206,0.932
0.005216704876150525,0.933
0.004768000971918516,0.934
0.004511726815484978,0.935
0.004498074809322657,0.936
0.0046963515561658994,0.937
0.004990016628284775,0.938
0.0052203047754759745,0.939
0.005259254104304561,0.94
0.0050483255386412984,0.941
0.004587219998674417,0.942
0.0039026117469070495,0.943
0.003027788566454419,0.944
0.0020052333031828394,0.945
0.0008939851955646215,0.946
-0.00023781748882355144,0.947
-0.0013268978329319106,0.948
-0.0023163448919165503,0.949
-0.003145852076916231,0.95
-0.0037498765746318357,0.951
-0.004073857246432449,0.952
-0.004094961450499504,0.953
-0.003829175307063441,0.954
-0.003329473857764768,0.955
-0.0026828726683556124,0.956
-0.001995020688413819,0.957
-0.001359619334584302,0.958
-0.0008323367533112649,0.959
-0.0004265979431042591,0.96
-0.00012232198483411665,0.961
0.0001262362438788976,0.962
0.0003710372420868748,0.963
0.0006340822771570447,0.964
0.0008783225251698974,0.965
0.0010099115045385033,0.966
0.0009231260433432695,0.967
0.0005708121104473582,0.968
8.236550127940307e-06,0.969
-0.0006294996500007213,0.97
-0.0011995151382225343,0.971
-0.0016179966858371367,0.972
-0.0018806569231947829,0.973
-0.002033874759435841,0.974
-0.0021204530402148245,0.975
-0.002139016367869254,0.976
-0.00204777252999822,0.977
-0.0017963272350161226,0.978
-0.001343374849867534,0.979
-0.0006582387032889736,0.98
0.00026289107307328664,0.981
0.0013685695838401089,0.982
0.0025408394729745857,0.983
0.0036110321610298376,0.984
0.0044002238991506975,0.985
0.004773109454899384,0.986
0.004674818360236519,0.987
0.004127892414544946,0.988
0.0032050404407490568,0.989
0.002012242362979957,0.99
0.0006934153760456268,0.991
-0.000562320758917837,0.992
-0.0015413714584945365,0.993
-0.0020650204898048424,0.994
-0.0020591591177311127,0.995
-0.0015969038101722912,0.996
-0.0008883660410906143,0.997
-0.00021005130506309127,0.998
0.00020079753867244325,0.999
0.00023730141692596037,1.0
-4.9361978164269395e-05,1.001
-0.0004907911860900037,1.002
-0.000870353475642275,1.003
-0.000990113128608587,1.004
-0.0007282075129142057,1.005
-8.509745536529327e-05,1.006
0.0007959472759591675,1.007
0.001664673009382772,1.008
0.002252926073754604,1.009
0.002366990540837807,1.01
0.0019349367163000964,1.011
0.001001506689516323,1.012
-0.00029695427799610486,1.013
-0.0017518784334918124,1.014
-0.003107936112423057,1.015
-0.004117040914465797,1.016
-0.004611535555611838,1.017
-0.004552016308253619,1.018
-0.004016980258769968,1.019
-0.0031455007750125987,1.02
-0.0020792758100055997,1.021
-0.0009384159285844282,1.022
0.00018439073446519563,1.023
0.0012315981514962242,1.024
0.0021779678701349145,1.025
0.0030097779705075666,1.026
0.003704909974614132,1.027
0.0042296913201420585,1.028
0.004548256021528349,1.029
0.004637291598585437,1.03
0.004496206512823909,1.031
0.004137735275651807,1.032
0.0035732597492716105,1.033
0.0028214682672712756,1.034
0.0019295014362297328,1.035
0.0009706700394200946,1.036
1.532477229166457e-05,1.037
-0.0008901571282070482,1.038
-0.0017232038202959947,1.039
-0.002475878390999577,1.04
-0.003134095023307173,1.041
-0.003658911841376101,1.042
-0.0039993969020031585,1.043
-0.004123855646882188,1.044
-0.0040281335329254925,1.045
-0.0037186645073507734,1.046
-0.003208551594622641,1.047
-0.0025330455886449434,1.048
-0.0017499655291131019,1.049
-0.0009269679232478428,1.05
-0.00014357061995465828,1.051
0.0005153583329762509,1.052
0.0010026240531535984,1.053
0.0013395032866746093,1.054
0.0015863550974086007,1.055
0.0017938792131115674,1.056
0.0019849493878755114,1.057
0.002155571105216474,1.058
0.0022833738480558903,1.059
0.0023530336799108685,1.06
0.002376223048920446,1.061
0.0023709267109697572,1.062
0.0023181146234101855,1.063
0.002154378608202573,1.064
0.0018136142041291004,1.065
0.0012721325254613676,1.066
0.0005734919490694307,1.067
-0.00016308373211497868,1.068
-0.0007672260622034109,1.069
-0.0010859648726269967,1.07
-0.0010618508510155426,1.071
-0.0007643094594646879,1.072
-0.00035200116948066735,1.073
4.544073674708562e-06,1.074
0.0001952994406158742,1.075
0.000205335942675409,1.076
9.89463675553506e-05,1.077
-3.073345167695775e-05,1.078
-0.00011942633298102336,1.079
-0.00016818919914666358,1.08
-0.0002327996238718556,1.081
-0.00037720093802027675,1.082
-0.0006280275738383482,1.083
-0.0009560841234857682,1.084
-0.0012974335151134722,1.085
-0.0015964769942388196,1.086
-0.001828573706857941,1.087
-0.001983807680901504,1.088
-0.0020308931912128886,1.089
-0.0019062262263013574,1.09
-0.0015560014949404476,1.091
-0.0009871737636766762,1.092
-0.0002708724549346783,1.093
0.0004895464851161843,1.094
0.001192855477425106,1.095
0.0017712595273560474,1.096
0.0022079444184719857,1.097
0.002524617924924374,1.098
0.0027469658177265727,1.099
0.0028713586093608145,1.1
0.0028633210570707655,1.101
0.0026937578337743622,1.102
0.0023670323925166848,1.103
0.0019106807241249415,1.104
0.0013501730373962379,1.105
0.0006949935352868108,1.106
-5.5325667474497294e-05,1.107
-0.0008874354705575823,1.108
-0.0017489716599464712,1.109
-0.0025425124475163307,1.11
-0.0031485701138568947,1.111
-0.003467271971618839,1.112
-0.003453065229070443,1.113
-0.003121224666785631,1.114
-0.002527013654292884,1.115
-0.0017382646678968574,1.116
-0.0008174766950004999,1.117
0.0001767144746904487,1.118
0.001172644634579911,1.119
0.002084973054489857,1.12
0.0028363864435698143,1.121
0.003365021651503958,1.122
0.0036082846320811385,1.123
0.003504642432136097,1.124
0.003037065596730315,1.125
0.002279242832893905,1.126
0.0013931482384320925,1.127
0.0005668571592987744,1.128
-6.9470174128233e-05,1.129
-0.0004933444756122061,1.13
-0.0007797821188772824,1.131
-0.0010407547194095524,1.132
-0.001345344313197784,1.133
-0.0016668857836252872,1.134
-0.001895167692281918,1.135
-0.0019096167370913015,1.136
-0.0016624330065043314,1.137
-0.001217421965995799,1.138
-0.0007216232584569654,1.139
-0.0003275125736678749,1.14
-0.00012244342570122624,1.141
-0.00011171386543019412,1.142
-0.0002455679344851567,1.143
-0.00045406321201503573,1.144
-0.0006750958348562863,1.145
-0.0008718990055511562,1.146
-0.0010291715217362826,1.147
-0.0011326736241657651,1.148
-0.0011526442509359226,1.149
-0.0010424612530639463,1.15
-0.0007544662761431861,1.151
-0.0002674134572580137,1.152
0.00039677493115291917,1.153
0.001179901265594682,1.154
0.001993901643519005,1.155
0.0027202898163082726,1.156
0.0032328378418703192,1.157
0.003439018194234406,1.158
0.0032984859539517027,1.159
0.0028094194099866432,1.16
0.0020026480458314034,1.161
0.0009641182121089848,1.162
-0.0001538698748346533,1.163
-0.0011615714319867974,1.164
-0.0018835197532679044,1.165
-0.002214280455509128,1.166
-0.002155126215894854,1.167
-0.0018028323541902152,1.168
-0.0012916086073489973,1.169
-0.0007269383924557582,1.17
-0.00016175840533413672,1.171
0.00037473082330820567,1.172
0.0008385412441924126,1.173
0.0011659010868915742,1.174
0.0013044714728056514,1.175
0.0012524478318517022,1.176
0.0010796537970880723,1.177
0.0009166421742791285,1.178
0.0009008135632771362,1.179
0.001102240338156019,1.18
0.0014822301503919669,1.181
0.0019015225422654462,1.182
0.0021682256319461536,1.183
0.0021182109525802488,1.184
0.0016879687933505905,1.185
0.0009289960481031999,1.186
-3.266802607429715e-05,1.187
-0.001056297819326537,1.188
-0.00204235202359766,1.189
-0.0029515093988439762,1.19
-0.0037660357323930855,1.191
-0.004433897938206715,1.192
-0.004854799890525527,1.193
-0.004918355458677868,1.194
-0.004553069413538882,1.195
-0.0037486690198479324,1.196
-0.0025535106805343595,1.197
-0.001065544699197856,1.198
0.0005720517386009533,1.199
0.002178865521396348,1.2
0.003567594867193689,1.201
0.00459065744751086,1.202
0.00517257944565059,1.203
0.005312200951224072,1.204
0.005061509883422677,1.205
0.004492597286444254,1.206
0.003670603942627234,1.207
0.002647460042904292,1.208
0.0014742229642326584,1.209
0.0002332790490884066,1.21
-0.000932574978416605,1.211
-0.0018508819274680249,1.212
-0.002398404919641532,1.213
-0.002546877103597343,1.214
-0.0023486826349313383,1.215
-0.0019084797892841227,1.216
-0.0013667317263654376,1.217
-0.0008741162207197803,1.218
-0.0005495400670406874,1.219
-0.00043980018917053835,1.22
-0.000509777751181802,1.221
-0.0006802988163015703,1.222
-0.0008753291478226354,1.223
-0.0010416400727813722,1.224
-0.0011567057414876218,1.225
-0.001227837211079687,1.226
-0.0012689079080436107,1.227
-0.001269733541703889,1.228
-0.001186941262619151,1.229
-0.0009768024987663099,1.23
-0.000644156920840791,1.231
-0.0002453607966073981,1.232
0.00015968128948147243,1.233
0.0005496754437761209,1.234
0.0009394520297398614,1.235
0.0013470315550125282,1.236
0.0017689168211773678,1.237
0.002175621249271366,1.238
0.0025137973858868003,1.239
0.002708809633768763,1.24
0.0026758238139767683,1.241
0.002353648889165269,1.242
0.001751533334501047,1.243
0.000972827201626019,1.244
0.00020006639343935962,1.245
-0.0003564902810001579,1.246
-0.0005350396209631599,1.247
-0.00028380194190796273,1.248
0.00031652724884229414,1.249
0.0010670309476742865,1.25
0.001708074259502886,1.251
0.0020094985377774825,1.252
0.0018493535022260398,1.253
0.0012413177721722712,1.254
0.00030289690122637286,1.255
-0.0008054374007608449,1.256
-0.0019256229631014915,1.257
-0.002914351549182028,1.258
-0.0036396923301246424,1.259
-0.003987271033056372,1.26
-0.003889970296383742,1.261
-0.0033680524234996445,1.262
-0.0025391147379656737,1.263
-0.0015763420806274636,1.264
-0.0006401075388571466,1.265
0.00017697031965331785,1.266
0.0008689378943934852,1.267
0.001493850483232354,1.268
0.0021195357335691495,1.269
0.0027662942812598196,1.27
0.0033756300925942687,1.271
0.0038239703903546318,1.272
0.003974853129843922,1.273
0.003731205189967873,1.274
0.0030712860559820076,1.275
0.0020733577707631855,1.276
0.0009026186477490134,1.277
-0.0002476038104124144,1.278
-0.0012147945571436651,1.279
-0.001894418864803763,1.28
-0.002237911588931438,1.281
-0.00224387821315687,1.282
-0.0019649054709883432,1.283
-0.0015103408202955563,1.284
-0.0010210146115930626,1.285
-0.00063342792681622,1.286
-0.0004511400413895842,1.287
-0.00052176719684115,1.288
-0.0008194304443924049,1.289
-0.0012456593736370123,1.29
-0.0016594175910498755,1.291
-0.0019226027298550794,1.292
-0.001943933589983482,1.293
-0.0017078932034081365,1.294
-0.0012703671187599135,1.295
-0.0007242040131438917,1.296
-0.00016010054763649143,1.297
0.0003557063141220733,1.298
0.0007820335284391567,1.299
0.0010950927062209524,1.3
0.00128114538602897,1.301
0.001331610277167188,1.302
0.0012526527481312153,1.303
0.001080957280673461,1.304
0.0008759385928085122,1.305
0.0006959905163884914,1.306
0.0005939166069341501,1.307
0.0006220569196192021,1.308
0.0008148210150784167,1.309
0.0011615107594826,1.31
0.001599053614966313,1.311
0.0020296823054570053,1.312
0.0023514599749827436,1.313
0.002479437419491932,1.314
0.002351562275342462,1.315
0.0019404482323313163,1.316
0.0012792123678683931,1.317
0.00047799066574219767,1.318
-0.00029855058748526667,1.319
-0.0008909105302506911,1.32
-0.0012005135783230258,1.321
-0.0012102427936808546,1.322
-0.0009808142657857964,1.323
-0.0006313639743798105,1.324
-0.0002951798959378713,1.325
-7.793812992309364e-05,1.326
-4.8167372865220295e-05,1.327
-0.00023787708529216022,1.328
-0.0006328521308380902,1.329
-0.0011572561667694962,1.33
-0.0016703369149443645,1.331
-0.0020030748597437407,1.332
-0.0020238786909742945,1.333
-0.0016821442268812054,1.334
-0.0010104912967024108,1.335
-0.00011093818192408355,1.336
0.0008599210815252579,1.337
0.0017204845442350745,1.338
0.0023092831787599574,1.339
0.002516524616502064,1.34
0.0022949294614500303,1.341
0.0016704523068971386,1.342
0.0007432038451678523,1.343
-0.0003436725338991395,1.344
-0.0014464525038455356,1.345
-0.0024403598604390096,1.346
-0.0032156624498283176,1.347
-0.003666587117627654,1.348
-0.003690064746373191,1.349
-0.0032087784794513565,1.35
-0.0022147850445885047,1.351
-0.0008121767026691538,1.352
0.0007746824672909053,1.353
0.0022527832661309705,1.354
0.003356386795472454,1.355
0.003931810130813741,1.356
0.0039615217460715405,1.357
0.0035317381070653652,1.358
0.0027839825457285057,1.359
0.0018741606486296974,1.36
0.0009421278452068422,1.361
8.93772739368416e-05,1.362
-0.000634974329338586,1.363
-0.001219150482410055,1.364
-0.001638677269177325,1.365
-0.001824218498100514,1.366
-0.0016915339756991836,1.367
-0.0012038857399640575,1.368
-0.0004144341775009331,1.369
0.000532253452543976,1.37
0.0014373743684823756,1.371
0.002108510998765701,1.372
0.002417679257702073,1.373
0.0023326629650592193,1.374
0.0019086543598023766,1.375
0.0012502759515963396,1.376
0.0004701751210636665,1.377
-0.0003356048533959397,1.378
-0.001087407224037528,1.379
-0.0017190238983052911,1.38
-0.002196052001919758,1.381
-0.0025238428017303523,1.382
-0.002712933670887568,1.383
-0.0027365297730063635,1.384
-0.0025290334541178713,1.385
-0.0020329424169472205,1.386
-0.0012606443433369294,1.387
-0.00031334188095234674,1.388
0.0006649634075398933,1.389
0.0015512458546884673,1.39
0.00227292732884915,1.391
0.0027960842460919805,1.392
0.003096789115264501,1.393
0.003144368082606322,1.394
0.002910276379908549,1.395
0.002388758003738152,1.396
0.0016085023352129652,1.397
0.0006398986676260078,1.398
-0.0003984961966728265,1.399
-0.0013457480496174706,1.4
-0.0020202539876626275,1.401
-0.002261301839452034,1.402
-0.001989663980526183,1.403
-0.0012597923043726337,1.404
-0.0002621232953313063,1.405
0.0007430316679870703,1.406
0.0015289627823121298,1.407
0.00197460923219835,1.408
0.0020600697544536314,1.409
0.0018110436227645119,1.41
0.001255516314317935,1.411
0.00043058472253230614,1.412
-0.0005853292146306447,1.413
-0.0016628343216587298,1.414
-0.0026365062854642003,1.415
-0.003330758892872437,1.416
-0.0036030109938458804,1.417
-0.0033908454616741208,1.418
-0.002738422737514089,1.419
-0.0017883451877624698,1.42
-0.0007256003375954249,1.421
0.00029614623100259754,1.422
0.001180488533044864,1.423
0.0018581580063878355,1.424
0.0022573093509203114,1.425
0.0023233575295455613,1.426
0.0020717354462125724,1.427
0.0016101398295500326,1.428
0.0010998054015893106,1.429
0.0006867245307374576,1.43
0.0004506168565136101,1.431
0.00039121787430090155,1.432
0.0004458588963862209,1.433
0.000523617840755972,1.434
0.0005366487049852047,1.435
0.0004236868807449998,1.436
0.00017606169870510807,1.437
-0.00014294927423481917,1.438
-0.00041526820939539826,1.439
-0.0005265468682083123,1.44
-0.00042394940092869906,1.441
-0.00013108732508775029,1.442
0.000273395188432116,1.443
0.000682378218025983,1.444
0.0009829758140348353,1.445
0.0010881184908174996,1.446
0.0009752037663155449,1.447
0.000707486889806425,1.448
0.0004121404198719207,1.449
0.0002130981963733321,1.45
0.00016219876417107956,1.451
0.00022262939033480074,1.452
0.000310488553336468,1.453
0.0003526631503297201,1.454
0.00031887438886988803,1.455
0.00021352303787820325,1.456
4.298440110748483e-05,1.457
-0.00020015224888535828,1.458
-0.0005125861326780301,1.459
-0.0008488252231889339,1.46
-0.0011285003471319644,1.461
-0.0012791431568848746,1.462
-0.0012762502002060655,1.463
-0.001158724348281335,1.464
-0.0010147968531523939,1.465
-0.000937290174225104,1.466
-0.0009688100533932065,1.467
-0.0010779029274856926,1.468
-0.0011839673114372013,1.469
-0.0012029580066538327,1.47
-0.0010806418516256442,1.471
-0.0008006304782834747,1.472
-0.0003740765379445308,1.473
0.00016501753481177358,1.474
0.0007580665121629475,1.475
0.001332261579895925,1.476
0.0018180012740886694,1.477
0.0021681266415634433,1.478
0.002380892135378971,1.479
0.0024983288475247498,1.48
0.002555891399478505,1.481
0.0025275381045339875,1.482
0.002336991089314884,1.483
0.0019317463900837247,1.484
0.001344511370498902,1.485
0.0006954892709627609,1.486
0.0001458633276850205,1.487
-0.00017494286660257332,1.488
-0.0002327366125902456,1.489
-0.00010528518750879994,1.49
5.333593349928803e-05,1.491
8.569620650832951e-05,1.492
-9.779525127695761e-05,1.493
-0.0004962447544547979,1.494
-0.0010406109232502954,1.495
-0.0016295801637531092,1.496
-0.0021650671607528252,1.497
-0.002579576688259873,1.498
-0.0028500819058777252,1.499
-0.0029910923735136006,1.5
-0.0030244308265969327,1.501
-0.002950025465295134,1.502
-0.002737823504825192,1.503
-0.002335914778354814,1.504
-0.0016924129743276714,1.505
-0.0007895812259736376,1.506
0.0003238240505048341,1.507
0.0015190869981731644,1.508
0.0026106126572951437,1.509
0.0034201679761481367,1.51
0.003846554146229134,1.511
0.0038939467031892192,1.512
0.0036490920548224483,1.513
0.0032296555571461123,1.514
0.002735952630432419,1.515
0.0022251927302571785,1.516
0.0017079126760797354,1.517
0.0011635466828070656,1.518
0.0005699693631096794,1.519
-7.098955537935765e-05,1.52
-0.000734445963118817,1.521
-0.0013878300787797146,1.522
-0.001981760438916256,1.523
-0.0024248170005254717,1.524
-0.002593577273830676,1.525
-0.002391114901231843,1.526
-0.0018144001133493003,1.527
-0.0009837909915306636,1.528
-0.00010595918650987831,1.529
0.0006223401877412071,1.53
0.0011035787525953593,1.531
0.0013481825524457802,1.532
0.0014134048921592057,1.533
0.001346749561190078,1.534
0.0011671123909837602,1.535
0.0008623450811305601,1.536
0.00039951493776885775,1.537
-0.0002302847119528936,1.538
-0.0009495621645388364,1.539
-0.0015826741736932356,1.54
-0.0019233504803207414,1.541
-0.0018274185772847067,1.542
-0.0012711947509040562,1.543
-0.00035439965461494697,1.544
0.0007438031764523474,1.545
0.0018168733075292092,1.546
0.002660904359406902,1.547
0.003101696700546987,1.548
0.003045963932661795,1.549
0.0025312131247917807,1.55
0.0017213911844079443,1.551
0.0008397708917847174,1.552
8.477028595256461e-05,1.553
-0.00042319873139988484,1.554
-0.0006553190446441316,1.555
-0.0006723242756569853,1.556
-0.0006127470737575237,1.557
-0.0006465320035079888,1.558
-0.0009001447855244478,1.559
-0.0014032686544989603,1.56
-0.002085801205337742,1.561
-0.0028153174871439254,1.562
-0.003446974903486453,1.563
-0.0038571287816328453,1.564
-0.003957093194220368,1.565
-0.0036953558881154614,1.566
-0.003059848117610918,1.567
-0.0020918200479732476,1.568
-0.000888566588422098,1.569
0.00042665678697643403,1.57
0.0017396094897561471,1.571
0.002953823455949475,1.572
0.003981164877971935,1.573
0.004737492003001994,1.574
0.005149213011747656,1.575
0.005160425797532103,1.576
0.004741647198993711,1.577
0.003914479329773894,1.578
0.0027810923344942606,1.579
0.0015218983229881085,1.58
0.0003519822379196722,1.581
-0.0005425293126775683,1.582
-0.0010654111695123434,1.583
-0.001234083070861028,1.584
-0.0011423275791410646,1.585
-0.0008996551742608568,1.586
-0.000602428885110442,1.587
-0.0003308161716350658,1.588
-0.0001341889783758738,1.589
-1.0182919379338006e-05,1.59
9.239174926393786e-05,1.591
0.00024551819876825063,1.592
0.0005013722188177385,1.593
0.0008513807384095268,1.594
0.0012135389090843184,1.595
0.001459365117053622,1.596
0.0014531437313625693,1.597
0.0010852996122714207,1.598
0.0003023782294405345,1.599
-0.0008708414648895374,1.6
-0.002321886419208028,1.601
-0.003862622045011706,1.602
-0.005278630914465671,1.603
-0.006393635313911179,1.604
-0.007093582317866842,1.605
-0.007300362820389699,1.606
-0.006947520832794593,1.607
-0.006000378061280064,1.608
-0.004499299801121813,1.609
-0.0025732117702271613,1.61
-0.00041158465568456924,1.611
0.001766196776583518,1.612
0.003728804604287189,1.613
0.005263084581667538,1.614
0.006214579934335616,1.615
0.006515340388506829,1.616
0.0061963474033888055,1.617
0.0053846941891506316,1.618
0.0042764150609292464,1.619
0.003088724785140891,1.62
0.002010876197182035,1.621
0.0011685816354851052,1.622
0.0006165137854494266,1.623
0.00036307155554585766,1.624
0.00039645133871918207,1.625
0.0006911977162146774,1.626
0.0012092522650637813,1.627
0.0018962999199596162,1.628
0.002665442099804649,1.629
0.0033863281085350313,1.63
0.003912422134730885,1.631
0.004145149760718286,1.632
0.004073461817531531,1.633
0.003739663801673595,1.634
0.0031723077117542316,1.635
0.0023614956302284314,1.636
0.0012946321258966338,1.637
1.202641615855347e-05,1.638
-0.0013745763699646854,1.639
-0.0027211308147868487,1.64
-0.0039000034504316212,1.641
-0.004811606198165101,1.642
-0.005385768036008451,1.643
-0.0056064751811551895,1.644
-0.005528380697329128,1.645
-0.0052505539712130785,1.646
-0.004870978508028428,1.647
-0.0044543321649794555,1.648
-0.0040165860612435995,1.649
-0.0035363821892468723,1.65
-0.003002295639646059,1.651
-0.0024510713114743628,1.652
-0.0019467206626952714,1.653
-0.0015352867102573268,1.654
-0.0012332371530655382,1.655
-0.0010360205106969983,1.656
-0.0009175869544709986,1.657
-0.0008238647395949698,1.658
-0.000663128099074995,1.659
-0.000311929000270513,1.66
0.0003352008447195442,1.661
0.0012994908466079551,1.662
0.00249430936904722,1.663
0.0037554960224105154,1.664
0.004892472477980624,1.665
0.005730926967529165,1.666
0.006142574931958988,1.667
0.006071351251269931,1.668
0.005552336400803279,1.669
0.004710098594942699,1.67
0.0037290282889592325,1.671
0.00279324043351278,1.672
0.0020182222264628247,1.673
0.0014187078006269013,1.674
0.0009294336599235281,1.675
0.00045341771657340604,1.676
-9.342273616397974e-05,1.677
-0.0007496601993636519,1.678
-0.0014886428363726975,1.679
-0.002226180692619237,1.68
-0.002852738082578257,1.681
-0.0032669682351465766,1.682
-0.003407194773156803,1.683
-0.003275854291905866,1.684
-0.0029350669135863195,1.685
-0.002470574676458948,1.686
-0.0019454964860943559,1.687
-0.001373493402252182,1.688
-0.0007314631637251163,1.689
-1.873333239509189e-06,1.69
0.0007888068917240879,1.691
0.0015622732822273386,1.692
0.0022145428235400885,1.693
0.0026592057016321547,1.694
0.0028562571349096035,1.695
0.002808518868959574,1.696
0.002544442750223811,1.697
0.0021065350789256053,1.698
0.001536990324745085,1.699
0.000862441338869394,1.7
9.73998171950849e-05,1.701
-0.0007394427600661064,1.702
-0.0016163054450311206,1.703
-0.002486541408578236,1.704
-0.0032814139472289,1.705
-0.0038966970214935896,1.706
-0.004195961656494691,1.707
-0.0040463666456095875,1.708
-0.003367374863301757,1.709
-0.002173694863286703,1.71
-0.0006073096856060971,1.711
0.0010699313521525795,1.712
0.0025441923281090996,1.713
0.003540679219090505,1.714
0.0038857256537910864,1.715
0.003528839870693113,1.716
0.0025492583587267757,1.717
0.0011594965481978876,1.718
-0.0003225462008691987,1.719
-0.0015471309677173603,1.72
-0.0022236384450335174,1.721
-0.0022010017637465276,1.722
-0.001514316409296819,1.723
-0.000372855258037972,1.724
0.0009143289154108373,1.725
0.002047893293352703,1.726
0.0028322138925836716,1.727
0.0032069450633927985,1.728
0.0032150351456726465,1.729
0.002950091758651151,1.73
0.002518325509570237,1.731
0.0020128287907771663,1.732
0.001487619512634171,1.733
0.0009516749610239414,1.734
0.0003981195149439535,1.735
-0.00016646158940257201,1.736
-0.000717086716631775,1.737
-0.0012144350731553765,1.738
-0.0016107601889652815,1.739
-0.0018701565345922095,1.74
-0.0020004764384199216,1.741
-0.0020625101942325225,1.742
-0.0021387727281051705,1.743
-0.0022896192245919294,1.744
-0.0025275513999710323,1.745
-0.002821300838970312,1.746
-0.0031181835224714854,1.747
-0.003355333917042946,1.748
-0.0034553673536754457,1.749
-0.0033338249742449083,1.75
-0.0029252456173183877,1.751
-0.002204960054514633,1.752
-0.001196603999965042,1.753
3.1373476689687715e-05,1.754
0.0013825685373776932,1.755
0.002752463341388007,1.756
0.004027691260949492,1.757
0.005068784086959073,1.758
0.005716962028500398,1.759
0.005850612023371061,1.76
0.005455918695322541,1.761
0.0046434492776078334,1.762
0.0035973651257696546,1.763
0.002510447411810524,1.764
0.001535082159809585,1.765
0.00074569014354297,1.766
0.00013031316726211527,1.767
-0.00037732185182946505,1.768
-0.0008494349455627413,1.769
-0.0013186509904739316,1.77
-0.0017522910899356887,1.771
-0.002071971347262211,1.772
-0.0022095456921249253,1.773
-0.0021581359261712654,1.774
-0.0019826246732329413,1.775
-0.0017789724792472953,1.776
-0.0016146695751541181,1.777
-0.0015017792412280058,1.778
-0.0014164095496594312,1.779
-0.0013354136387533687,1.78
-0.0012542763479226574,1.781
-0.0011717116141156444,1.782
-0.001064965042839894,1.783
-0.000890865036556815,1.784
-0.0006136194662030789,1.785
-0.00022969976077264143,1.786
0.00023766283827671814,1.787
0.0007662992336093169,1.788
0.0013534108468863523,1.789
0.002007210608952617,1.79
0.002716391077421981,1.791
0.003424260544427512,1.792
0.0040399330403087024,1.793
0.004480548899070961,1.794
0.004699220586498631,1.795
0.004672442789338388,1.796
0.0043683387962346895,1.797
0.003736735521317309,1.798
0.0027377755695037324,1.799
0.0013816814234139292,1.8
-0.0002480032038616641,1.801
-0.001991488151230526,1.802
-0.0036401421113721115,1.803
-0.004994989660290714,1.804
-0.005922671288768291,1.805
-0.0063746703853146324,1.806
-0.0063659706031310714,1.807
-0.005938398725475477,1.808
-0.005145611462447501,1.809
-0.0040717307796299665,1.81
-0.002849821635286178,1.811
-0.001642439002573081,1.812
-0.0005989861826979773,1.813
0.00017629967796024354,1.814
0.0006452230920508752,1.815
0.0008406314424573403,1.816
0.0008354785519478658,1.817
0.0007029165371566066,1.818
0.0005123649201600536,1.819
0.0003399639580275594,1.82
0.00025987520346230117,1.821
0.00032894519198634645,1.822
0.0005739050748877986,1.823
0.0009821163458739676,1.824
0.0015051609864031653,1.825
0.002078424424144035,1.826
0.002638518335559588,1.827
0.0031210078092609615,1.828
0.0034640967211765376,1.829
0.003634171468837075,1.83
0.003637442429776691,1.831
0.0034995054233687988,1.832
0.0032391784647625983,1.833
0.0028592716154793845,1.834
0.002357411627594099,1.835
0.0017558670892088518,1.836
0.0011290160818328554,1.837
0.000592738087971897,1.838
0.00025622081266303884,1.839
0.00017662448547384012,1.84
0.00034104307615416096,1.841
0.0006586016823441974,1.842
0.000962681293978751,1.843
0.0010566848751676486,1.844
0.0007964156736803187,1.845
0.00015345028428031166,1.846
-0.0007864836591747678,1.847
-0.0018800601082545384,1.848
-0.002977127969393702,1.849
-0.003935801788841809,1.85
-0.004633185291895046,1.851
-0.00498929672641942,1.852
-0.004976408392909432,1.853
-0.004600178306653648,1.854
-0.0038821307751379128,1.855
-0.00286818932371411,1.856
-0.0016486340407405986,1.857
-0.00035880464017856793,1.858
0.0008466142253741209,1.859
0.0018248446386126508,1.86
0.0024687541732520144,1.861
0.0027235814314159313,1.862
0.0025943530372221084,1.863
0.002144531339260457,1.864
0.0014764389102131955,1.865
0.0006974105638867834,1.866
-8.847690700796103e-05,1.867
-0.0007652866155475323,1.868
-0.0012133155319822276,1.869
-0.0013443762963081468,1.87
-0.001128958365802431,1.871
-0.000598215871343838,1.872
0.00015765799420941186,1.873
0.000983786689980665,1.874
0.0016866081817348078,1.875
0.002109799894497837,1.876
0.0022012507899905167,1.877
0.0020167026873144584,1.878
0.001673622435462592,1.879
0.0012873864153277073,1.88
0.0009197799286268964,1.881
0.0005686124988803493,1.882
0.0001975445284624172,1.883
-0.00021533685267684493,1.884
-0.0006347829866364962,1.885
-0.0009617683096215043,1.886
-0.0010802113914886676,1.887
-0.0009260409806345014,1.888
-0.0005224196736863348,1.889
2.849518151662896e-05,1.89
0.0005816714315505941,1.891
0.0010144917306208646,1.892
0.001287507210393543,1.893
0.0014450882232923108,1.894
0.0015564354392823949,1.895
0.00164882131999797,1.896
0.0016842017067243106,1.897
0.0015916564415118218,1.898
0.0013249886916368967,1.899
0.0008990119331385601,1.9
0.0003821570042738401,1.901
-0.00013256873975041306,1.902
-0.0005571775564539234,1.903
-0.0008438677829339714,1.904
-0.0010078074121935266,1.905
-0.0011087091275295334,1.906
-0.0012028562255910736,1.907
-0.001306210259902901,1.908
-0.00140415011993427,1.909
-0.001492587843783927,1.91
-0.001592096936788292,1.911
-0.0017215375904176887,1.912
-0.0018753694945292968,1.913
-0.0020290995312903146,1.914
-0.0021527252988253515,1.915
-0.0022163198582496276,1.916
-0.0021968115279259594,1.917
-0.0020894000606182816,1.918
-0.0019142177443875704,1.919
-0.0017068297815296854,1.92
-0.0014884110909125373,1.921
-0.0012392761892661072,1.922
-0.000904652743546489,1.923
-0.00042418677812029455,1.924
0.00023907671742663845,1.925
0.0010781592871985843,1.926
0.0020373572694726305,1.927
0.0030382270007925567,1.928
0.004019980813414966,1.929
0.0049378120956741645,1.93
0.005714289227283954,1.931
0.00621914471286264,1.932
0.0063142583473731265,1.933
0.0059207236364302316,1.934
0.005058678213305162,1.935
0.0038435688258753784,1.936
0.002452085439619679,1.937
0.0010775780234864286,1.938
-0.0001131695713451631,1.939
-0.0010108690206793373,1.94
-0.0015773824234433598,1.941
-0.0018468685144809676,1.942
-0.0019149299067473032,1.943
-0.0019110632120870959,1.944
-0.001958102285583864,1.945
-0.002129907775181581,1.946
-0.00242683934716896,1.947
-0.0027904167014862875,1.948
-0.003141892289842804,1.949
-0.003404632558395989,1.95
-0.0035122924247626757,1.951
-0.0034231071132844178,1.952
-0.0031237045175443595,1.953
-0.0026199020096160574,1.954
-0.001944508145847294,1.955
-0.001172182441002811,1.956
-0.00040489155170962373,1.957
0.0002606810328498861,1.958
0.0007495517588749573,1.959
0.0010097125738664572,1.96
0.0010182543363192722,1.961
0.000794034457753068,1.962
0.0004013958083184901,1.963
-6.469237651105974e-05,1.964
-0.0005042129338332304,1.965
-0.0008297279421738661,1.966
-0.0009727771541028892,1.967
-0.0008955391231917044,1.968
-0.0006030175584057866,1.969
-0.000135486600418733,1.97
0.0004538390425640705,1.971
0.0011191547399632957,1.972
0.001831687603662145,1.973
0.0025761642418147958,1.974
0.0033329099109510635,1.975
0.004043980218688264,1.976
0.004589497560601483,1.977
0.0048185355087122265,1.978
0.004621467690538733,1.979
0.003979238969623065,1.98
0.00296462787031146,1.981
0.0017167330912019275,1.982
0.0004074347188518167,1.983
-0.0007926649420225955,1.984
-0.0017479373251849868,1.985
-0.002384173824868397,1.986
-0.0026960830480702172,1.987
-0.0027319185499330204,1.988
-0.002562340918651065,1.989
-0.002258761169116445,1.99
-0.0018920473239351192,1.991
-0.0015265298984353838,1.992
-0.0012030309450777534,1.993
-0.0009326528108106522,1.994
-0.0007049384339783555,1.995
-0.0005083705260861976,1.996
-0.0003580607817589811,1.997
-0.0002981111788255307,1.998
-0.00036165237850385945,1.999
-0.0005207478154263397,2.0
-0.000677277979022164,2.001
-0.0007123364755139114,2.002
-0.0005497418793175417,2.003
-0.00018490737837723134,2.004
0.0003210972266840574,2.005
0.0008651270995066512,2.006
0.001332198761358253,2.007
0.0016243678854696957,2.008
0.0016886474659021178,2.009
0.0015378202530299384,2.01
0.0012445234642329136,2.011
0.0009095036812762572,2.012
0.0006218469466338233,2.013
0.00041693257191497573,2.014
0.0002523609082530784,2.015
3.6738343272257895e-05,2.016
-0.0002977504252174517,2.017
-0.0007371703356498298,2.018
-0.00118523329359254,2.019
-0.0015065734719999964,2.02
-0.0015822118006744098,2.021
-0.0013611984496229323,2.022
-0.0008798882137857771,2.023
-0.00023170895644021025,2.024
0.0004769962345784324,2.025
0.0011511353864438625,2.026
0.001716564033197353,2.027
0.0021223983632483604,2.028
0.0023373793177137903,2.029
0.002354981483660752,2.03
0.0022053861400874826,2.031
0.0019411726342651295,2.032
0.0015956679969094379,2.033
0.001160714937400286,2.034
0.0006089601840955143,2.035
-6.44667529974523e-05,2.036
-0.0008234555933651988,2.037
-0.0016018825607280853,2.038
-0.0023121559294179863,2.039
-0.0028468394019243505,2.04
-0.0030990839514455967,2.041
-0.003005116162846867,2.042
-0.002584011367930346,2.043
-0.0019448686461492055,2.044
-0.0012482648006370018,2.045
-0.0006410654423964172,2.046
-0.0002043841231679735,2.047
5.7512518841210305e-05,2.048
0.00019326974971661402,2.049
0.00027265589595273367,2.05
0.00036381349541167934,2.051
0.0005221581722366543,2.052
0.0007901592863202809,2.053
0.001188842269797544,2.054
0.0016909252167559478,2.055
0.002210821232407352,2.056
0.0026350619708608736,2.057
0.0028718955405883763,2.058
0.002878403716137124,2.059
0.0026348977771375546,2.06
0.0021033006151394344,2.061
0.001238141731780371,2.062
5.197173292588759e-05,2.063
-0.0013263539269730458,2.064
-0.0026523442544644743,2.065
-0.003624948287517418,2.066
-0.0039768001034196495,2.067
-0.003573343193877591,2.068
-0.002476708965498027,2.069
-0.0009272235041247833,2.07
0.0007434334978212305,2.071
0.0022237029019851794,2.072
0.00332380524232622,2.073
0.004009916552278249,2.074
0.0043389714089960806,2.075
0.00436331189339746,2.076
0.004086963501699275,2.077
0.0034789891816155703,2.078
0.0025244305925206387,2.079
0.0012831368970608779,2.08
-9.705002766510709e-05,2.081
-0.0014262878529741172,2.082
-0.0025358375706922573,2.083
-0.0033222323207249952,2.084
-0.0037597706345138507,2.085
-0.0038819376011251824,2.086
-0.003753970551308041,2.087
-0.0034614750939289136,2.088
-0.00311178270773472,2.089
-0.0028167514329623436,2.09
-0.002636477003980332,2.091
-0.0025260786562628476,2.092
-0.002352189478575434,2.093
-0.001981296298939029,2.094
-0.0013778293404618812,2.095
-0.0006344983819852817,2.096
9.544592743340238e-05,2.097
0.0007023546681315385,2.098
0.001172590500480122,2.099
0.0015634306989430256,2.1
0.0019371533254263643,2.101
0.0023058967190815907,2.102
0.002620126101975778,2.103
0.00280503381850919,2.104
0.002814924903135881,2.105
0.0026607312703948926,2.106
0.002397995076670515,2.107
0.002098847584713504,2.108
0.00182745343157953,2.109
0.0016235475605874217,2.11
0.001497515123368662,2.111
0.0014345762000586115,2.112
0.0013988000012099683,2.113
0.0013420487625497933,2.114
0.0012337625670336423,2.115
0.0010910191374812817,2.116
0.0009630659350700069,2.117
0.0008809665148602822,2.118
0.00082679928572291,2.119
0.0007389732168981868,2.12
0.0005381266608811137,2.121
0.00016575041086352044,2.122
-0.00038016575473717674,2.123
-0.0010412764013291863,2.124
-0.0017237412970010039,2.125
-0.002325517553535271,2.126
-0.002764039565853021,2.127
-0.002995421410514194,2.128
-0.003004161152478262,2.129
-0.002782176279311331,2.13
-0.0023306902843101824,2.131
-0.0016865582979290197,2.132
-0.0009480557866923405,2.133
-0.0002663392006741003,2.134
0.00021161785155555653,2.135
0.00041274004150932374,2.136
0.000358369738728406,2.137
0.00012349680610118673,2.138
-0.00020960239775008735,2.139
-0.0005612819759759731,2.14
-0.0008474401385490235,2.141
-0.0009867227972963325,2.142
-0.0009245586443788278,2.143
-0.000658346283083174,2.144
-0.0002450636226585212,2.145
0.0002197218558016183,2.146
0.0006399574363162292,2.147
0.0009511614800987319,2.148
0.0011372911883323288,2.149
0.0012309948210744621,2.15
0.0012961402019597184,2.151
0.0013956536019382468,2.152
0.0015615604685425013,2.153
0.001796721171425568,2.154
0.00210001364422914,2.155
0.00246933601927711,2.156
0.0028696366703004485,2.157
0.0031976849476229425,2.158
0.0032861927163814275,2.159
0.0029715936070756088,2.16
0.002195996080091357,2.161
0.0010657613780204742,2.162
-0.00018658311383232777,2.163
-0.0013122579402899826,2.164
-0.002147992921532389,2.165
-0.002647840500573201,2.166
-0.0028513562739680524,2.167
-0.002835689659399149,2.168
-0.0026830105287518427,2.169
-0.0024563294931269635,2.17
-0.002178570920209071,2.171
-0.001836138581517735,2.172
-0.001408139779659777,2.173
-0.0008932559357178286,2.174
-0.00031523974216290154,2.175
0.000286569787575115,2.176
0.000859716117741266,2.177
0.0013356836020894144,2.178
0.0016458824881794827,2.179
0.0017501234732363313,2.18
0.0016527539059184267,2.181
0.0014002964260968142,2.182
0.0010587069299053864,2.183
0.0006835894030819799,2.184
0.00030738859246604147,2.185
-6.194304440138987e-05,2.186
-0.00043641936855127843,2.187
-0.0008256484355284851,2.188
-0.0012093684198386373,2.189
-0.0015310685381135368,2.19
-0.001719048201725735,2.191
-0.0017222089820709094,2.192
-0.0015340320584859705,2.193
-0.0011879826277560082,2.194
-0.000737317154805779,2.195
-0.00024192695911002713,2.196
0.00023370351019848766,2.197
0.0006335110578473665,2.198
0.0009451268435744647,2.199
0.001216492922994784,2.2
0.001520871837945129,2.201
0.0019087282630889106,2.202
0.0023805072480694574,2.203
0.0028666323186550473,2.204
0.003227858386457067,2.205
0.003305833992316063,2.206
0.002992884205962016,2.207
0.002267668190410721,2.208
0.001199132854344123,2.209
-5.653485452072645e-05,2.21
-0.0012785781967676085,2.211
-0.0022380337344700047,2.212
-0.002763977388573307,2.213
-0.0027859708746197282,2.214
-0.0023360138460888757,2.215
-0.00152533652179911,2.216
-0.0005214680169506597,2.217
0.00047646115130799984,2.218
0.0012672023362431247,2.219
0.001679724435851752,2.22
0.0016169750410061179,2.221
0.0010896456012660864,2.222
0.00020368108181511094,2.223
-0.0008804452191780288,2.224
-0.0019826612530385265,2.225
-0.0029373942625370414,2.226
-0.0036184600794127338,2.227
-0.003942134293241887,2.228
-0.003873726167534623,2.229
-0.003440797706869689,2.23
-0.0027247011556708668,2.231
-0.0018237483185704645,2.232
-0.0008180244131074252,2.233
0.00023028957672930847,2.234
0.0012549641137199442,2.235
0.0021779580999599325,2.236
0.0029241573835046,2.237
0.003442221455407652,2.238
0.003710944436761731,2.239
0.0037359116353601965,2.24
0.0035513023816357747,2.241
0.0032198216741256658,2.242
0.002827041184937779,2.243
0.0024718176427818562,2.244
0.0022407198712356387,2.245
0.002170067773706105,2.246
0.0022221503803080403,2.247
0.0022909415559822384,2.248
0.0022375764387431688,2.249
0.001946594502247237,2.25
0.0013733970307775614,2.251
0.0005560201823146169,2.252
-0.0004040570669453031,2.253
-0.001378108050446689,2.254
-0.002255316018773237,2.255
-0.0029776257473052067,2.256
-0.003545135607615177,2.257
-0.003994214631738274,2.258
-0.0043531987031811764,2.259
-0.004589704552337703,2.26
-0.004599934830461157,2.261
-0.00426934772477288,2.262
-0.0035508216364398774,2.263
-0.002492093886592464,2.264
-0.0012166668549789875,2.265
0.00010645698713866233,2.266
0.001295030042350911,2.267
0.002187204209655012,2.268
0.0026756924174259843,2.269
0.0027376816683071376,2.27
0.0024371469958335674,2.271
0.0018969210648207343,2.272
0.00127369029213166,2.273
0.0007410877719363896,2.274
0.0004545764786140341,2.275
0.0005014232746149922,2.276
0.0008731400163437636,2.277
0.0014724145873792186,2.278
0.0021288855617230457,2.279
0.0026313246014261537,2.28
0.0028000059307675055,2.281
0.0025569690222198745,2.282
0.0019395154337161415,2.283
0.001069681610881466,2.284
0.00011648457461528633,2.285
-0.0007402042160488332,2.286
-0.0013455218314493095,2.287
-0.0015983650050033782,2.288
-0.001467233276146696,2.289
-0.0009945953361411386,2.29
-0.00029377452706855125,2.291
0.0004633025976878203,2.292
0.0010761265529702529,2.293
0.0013669298503784894,2.294
0.0012338446800987573,2.295
0.0006747433063453917,2.296
-0.00022440476748508621,2.297
-0.0013157509977854468,2.298
-0.0024133562626330847,2.299
-0.0033243398758033018,2.3
-0.003894585763394773,2.301
-0.004039066754700555,2.302
-0.0037387416870097515,2.303
-0.003024621443212525,2.304
-0.001969638878742325,2.305
-0.0006936146587660233,2.306
0.0006350459053802611,2.307
0.001820427252942092,2.308
0.0026747310671164566,2.309
0.00305517712364193,2.31
0.002902324830432469,2.311
0.0022658308804596994,2.312
0.0012952748225460566,2.313
0.00020502496927045518,2.314
-0.0007634043858883061,2.315
-0.0013816002516707107,2.316
-0.0014913730091520618,2.317
-0.0010686823805203945,2.318
-0.0002493535285314019,2.319
0.0007110515326036991,2.32
0.0015253652986598676,2.321
0.0019780907388994295,2.322
0.002004871891318664,2.323
0.0017064061041591819,2.324
0.0012868568513176922,2.325
0.0009564717113039797,2.326
0.0008598729715614173,2.327
0.001060666877752904,2.328
0.0015506820761305386,2.329
0.002245976128639219,2.33
0.002989973014634519,2.331
0.0035890545446344412,2.332
0.00386442056885413,2.333
0.0036975532010609397,2.334
0.0030593733789907656,2.335
0.0020240100227153788,2.336
0.0007613192347286556,2.337
-0.0005113411662484739,2.338
-0.0016129244493771871,2.339
-0.002469497629019993,2.34
-0.0031241119664449464,2.341
-0.0036882497326423238,2.342
-0.004264734945063045,2.343
-0.004872894900560231,2.344
-0.005423663666558209,2.345
-0.005767112539232592,2.346
-0.005773136545237979,2.347
-0.0053968856766519946,2.348
-0.004702888069544791,2.349
-0.003830528549130864,2.35
-0.002914113319309435,2.351
-0.0020133162219304374,2.352
-0.0010988988888457692,2.353
-9.502377070463024e-05,2.354
0.0010511017721403812,2.355
0.0023155923743384023,2.356
0.003593005602174545,2.357
0.0047448094287649714,2.358
0.005662386760614481,2.359
0.006294609663724652,2.36
0.006637198716549831,2.361
0.006703144472533546,2.362
0.0064934930378669885,2.363
0.0059909617043140415,2.364
0.005174756102460897,2.365
0.004042271752490147,2.366
0.0026252506314764037,2.367
0.000985445863874509,2.368
-0.0007980597029597092,2.369
-0.0026210471171983713,2.37
-0.004336895945195309,2.371
-0.0057650483113512304,2.372
-0.006732015181519805,2.373
-0.007118603257442458,2.374
-0.006883946652258344,2.375
-0.0060686124055737015,2.376
-0.004797035034226537,2.377
-0.0032740417037193125,2.378
-0.0017441231335514268,2.379
-0.00040752204749451516,2.38
0.0006513197249570035,2.381
0.0014671556833824864,2.382
0.002138945460216887,2.383
0.002761293525068655,2.384
0.0033753866568172947,2.385
0.003947337878675838,2.386
0.004370518490598589,2.387
0.0045008015640962944,2.388
0.0042301676681509035,2.389
0.003563511907978836,2.39
0.00263935903509777,2.391
0.0016767472189640953,2.392
0.0008842835106898904,2.393
0.0003862609280635258,2.394
0.0002152296740940456,2.395
0.0003594024739789778,2.396
0.0007966826652019014,2.397
0.0014929422877176014,2.398
0.0023922384820521257,2.399
0.003393927320321797,2.4
0.004307078105091497,2.401
0.00483516174244783,2.402
0.0046473557125328285,2.403
0.0035112726913325643,2.404
0.0013984175669394794,2.405
-0.0014876370843602451,2.406
-0.004734081238307818,2.407
-0.007788763652093447,2.408
-0.010100119586807075,2.409
-0.01127814970882962,2.41
-0.011195733579173445,2.411
-0.009997900140925308,2.412
-0.008029075776933957,2.413
-0.00571894172962546,2.414
-0.0034672174791765447,2.415
-0.0015531480540480166,2.416
-0.00011122856628454965,2.417
0.0008202291007184179,2.418
0.0012549809673595678,2.419
0.0012748632146021605,2.42
0.0010538527637437213,2.421
0.000821072956655223,2.422
0.0007838615361808201,2.423
0.0010762907095313219,2.424
0.0017446994698902987,2.425
0.0027414621381260497,2.426
0.003916829813884187,2.427
0.005038702058745101,2.428
0.005873797401919447,2.429
0.006285371819173066,2.43
0.0062694855684232755,2.431
0.005923631016160396,2.432
0.005385465902365741,2.433
0.004776622956636979,2.434
0.004180253895345949,2.435
0.003647238496052872,2.436
0.0031939925323653585,2.437
0.00278766049796683,2.438
0.0023499631679647056,2.439
0.0017861133862792102,2.44
0.0010263978398224489,2.441
6.727547969630637e-05,2.442
-0.0010143589801569959,2.443
-0.0020910802406464398,2.444
-0.0030438195007934294,2.445
-0.003811874998764561,2.446
-0.004390824186783727,2.447
-0.0047789526892727885,2.448
-0.0049408305579898065,2.449
-0.004836455595750945,2.45
-0.004477861509040497,2.451
-0.003950517302613961,2.452
-0.003381068705106181,2.453
-0.002873851341009587,2.454
-0.0024648147079545935,2.455
-0.002134705425624308,2.456
-0.0018533241361457986,2.457
-0.0015904480841039549,2.458
-0.0012958444722673559,2.459
-0.0009032218189878612,2.46
-0.0003701127833452716,2.461
0.0002832861347533005,2.462
0.0009660824832562169,2.463
0.001551336956030857,2.464
0.0019373492806627392,2.465
0.0020892215195474676,2.466
0.0020383914863262294,2.467
0.001856371302983335,2.468
0.001627168175252412,2.469
0.0014347048214630644,2.47
0.001350570511508448,2.471
0.00140586693680277,2.472
0.0015774026195345728,2.473
0.0018090400322327775,2.474
0.0020412372058647957,2.475
0.0022256705725997206,2.476
0.0023299172232792925,2.477
0.0023461045137369934,2.478
0.002293698162620947,2.479
0.002197757314558175,2.48
0.0020605183839369086,2.481
0.0018593065777619707,2.482
0.001575412459125266,2.483
0.001220219651931367,2.484
0.0008272169547655598,2.485
0.0004227878441939487,2.486
1.1467458264331976e-06,2.487
-0.00047543736765045554,2.488
-0.0010374584769874962,2.489
-0.001667360247655177,2.49
-0.0023005775080071236,2.491
-0.0028503042402816606,2.492
-0.0032302969667925762,2.493
-0.0033760513039488823,2.494
-0.003254251395416705,2.495
-0.0028583486656736847,2.496
-0.0022143354243088233,2.497
-0.0013973896018632118,2.498
-0.0005325888733100978,2.499
0.0002304740146159225,2.5
0.0007507734434098786,2.501
0.0009118451133266457,2.502
0.0006378074671328315,2.503
-5.94253211652545e-05,2.504
-0.0010350312257966883,2.505
-0.002033647253255701,2.506
-0.0027876306606106774,2.507
-0.0031150457483499912,2.508
-0.0029381117412307766,2.509
-0.002245384200346287,2.51
-0.0010764458698678456,2.511
0.00045683225809740966,2.512
0.002157104732435034,2.513
0.003768886120714092,2.514
0.005049808874701775,2.515
0.005848724160081134,2.516
0.00613592465669567,2.517
0.005981962963208815,2.518
0.005515182663149893,2.519
0.004874669476158192,2.52
0.004176624934154389,2.521
0.003500874903402483,2.522
0.0028758803705858376,2.523
0.0022600417908349244,2.524
0.0015496041584538954,2.525
0.0006229245034212646,2.526
-0.0006003754624084478,2.527
-0.0021073238950571377,2.528
-0.0037687552373089853,2.529
-0.005366095118275527,2.53
-0.006656327358953529,2.531
-0.007434624265083975,2.532
-0.007571997089248948,2.533
-0.007043457412244707,2.534
-0.005947105427594755,2.535
-0.004481351536403964,2.536
-0.0028857530346325356,2.537
-0.001384789563044408,2.538
-0.00014632230510473791,2.539
0.0007463433844370941,2.54
0.0013027855758766533,2.541
0.0016111247660938078,2.542
0.001800594645008606,2.543
0.001989578229719226,2.544
0.002241247949120218,2.545
0.002544034273020388,2.546
0.0028184453351458613,2.547
0.0029520640654311604,2.548
0.002861082813647196,2.549
0.0025417732626520765,2.55
0.002070758740971321,2.551
0.0015770259492707745,2.552
0.0012248043554357586,2.553
0.0011758194830030048,2.554
0.0015112042859074606,2.555
0.0021863247312276604,2.556
0.003056280721872165,2.557
0.003912314141139615,2.558
0.004504686292285924,2.559
0.004597411892144631,2.56
0.0040562107309869795,2.561
0.0028971735390822136,2.562
0.00126247517205151,2.563
-0.0006277691630368023,2.564
-0.0025143957995214404,2.565
-0.004140295827073214,2.566
-0.005299210130802922,2.567
-0.005887959524362456,2.568
-0.005938331695480069,2.569
-0.005600385869933719,2.57
-0.005083367883819803,2.571
-0.004572913760537987,2.572
-0.004157671658698041,2.573
-0.003813306350211933,2.574
-0.003445866209387536,2.575
-0.0029479270573165373,2.576
-0.0022381521407515274,2.577
-0.0012905055430427557,2.578
-0.00014783242664434624,2.579
0.0010928341816332742,2.58
0.0023036579001716284,2.581
0.0033441402992115637,2.582
0.004090375330211587,2.583
0.004473343310363759,2.584
0.004493526679324117,2.585
0.004200533179409843,2.586
0.003666766507981575,2.587
0.002976978322934991,2.588
0.002226742515452541,2.589
0.0015155479782594683,2.59
0.00092545872746236,2.591
0.0004976307020993874,2.592
0.00023494285991476827,2.593
0.00013474833581278255,2.594
0.00021584690621182542,2.595
0.0005024492122035162,2.596
0.0009784172024642946,2.597
0.0015569291342737654,2.598
0.0020878681940202405,2.599
0.0024007009506336182,2.6
0.0023670645466502983,2.601
0.0019487721206622563,2.602
0.0011996976718401222,2.603
0.00023232408608112563,2.604
-0.0008120274963381877,2.605
-0.0017795051276246387,2.606
-0.0025280596833264393,2.607
-0.002964669709659618,2.608
-0.0030642513998962373,2.609
-0.0028489378152802658,2.61
-0.0023569744785996286,2.611
-0.0016364663527050367,2.612
-0.0007594625222537181,2.613
0.00016643692501978457,2.614
0.0010019692692078567,2.615
0.001603450991039537,2.616
0.001867797515181709,2.617
0.0017613339826596033,2.618
0.00131527097692988,2.619
0.0006078602974742334,2.62
-0.0002617008161700437,2.621
-0.001210857484787423,2.622
-0.0021912511294850997,2.623
-0.0031582049626196324,2.624
-0.004026094654986134,2.625
-0.004667463518383351,2.626
-0.004953388313409155,2.627
-0.004794342748390526,2.628
-0.004173355023530725,2.629
-0.003161487520896012,2.63
-0.0018800815290819224,2.631
-0.00042967420284954,2.632
0.001134591149242821,2.633
0.0027530486210461157,2.634
0.004298471429949876,2.635
0.005572454548010205,2.636
0.006368924345221177,2.637
0.006549170484154731,2.638
0.006076072568354235,2.639
0.005015290543148636,2.64
0.003532054126427219,2.641
0.0018679661704816312,2.642
0.00028302459162047146,2.643
-0.0010068362625684296,2.644
-0.0018633966267501457,2.645
-0.0022302275295217233,2.646
-0.0021296083433775515,2.647
-0.001657778774000759,2.648
-0.0009701731115632327,2.649
-0.00025696406375311947,2.65
0.0002989532405415616,2.651
0.0005735094231749661,2.652
0.0005286566734915757,2.653
0.00021699548072704497,2.654
-0.00021620743642378627,2.655
-0.0005588923832494326,2.656
-0.0006056391612680793,2.657
-0.00024447288103409006,2.658
0.0004860665319895037,2.659
0.0013943364605516727,2.66
0.0021958821339922267,2.661
0.0026213308826912554,2.662
0.002521921581440891,2.663
0.0019127702216419973,2.664
0.0009426252636118926,2.665
-0.00017362837377242132,2.666
-0.0012242892368258468,2.667
-0.0020533859305087118,2.668
-0.0025828235801822726,2.669
-0.0027997035926256154,2.67
-0.0027270305627202784,2.671
-0.0024026146092138044,2.672
-0.0018855718159393707,2.673
-0.0012909618020181496,2.674
-0.0008101513196400457,2.675
-0.0006716436525936978,2.676
-0.0010416485213116159,2.677
-0.0019056973897382968,2.678
-0.0030216368030527726,2.679
-0.004013009057305723,2.68
-0.004533586113892978,2.681
-0.004374026183863661,2.682
-0.00347974651364169,2.683
-0.0019297231682839835,2.684
9.05855492047857e-05,2.685
0.002322813386582838,2.686
0.0044720779334137374,2.687
0.006241428313257775,2.688
0.007379135643501842,2.689
0.007743412886716629,2.69
0.0073569029479393765,2.691
0.006403468712700296,2.692
0.005150727885991301,2.693
0.003860275079625026,2.694
0.0027445354225962616,2.695
0.0019498648010430385,2.696
0.0015368828572271617,2.697
0.0014638189409271743,2.698
0.0015912133160512242,2.699
0.0017286392556440614,2.7
0.001706972528179893,2.701
0.001413840209343301,2.702
0.0007717256952686689,2.703
-0.00028230216891409843,2.704
-0.0017715719267817562,2.705
-0.003632811216901639,2.706
-0.0056913721265594314,2.707
-0.0076871022709459535,2.708
-0.00934066039428944,2.709
-0.010415945559625921,2.71
-0.010751986310520541,2.711
-0.010280842149916885,2.712
-0.00904167186803349,2.713
-0.0071738733132260726,2.714
-0.004883399963402984,2.715
-0.002389308227252982,2.716
0.00013066018751192499,2.717
0.0025691357472581093,2.718
0.0048776485330413255,2.719
0.007007424821125937,2.72
0.008836710662903667,2.721
0.010167232582577105,2.722
0.010815927479138196,2.723
0.010707932855281769,2.724
0.009877614720756205,2.725
0.008413753297459645,2.726
0.0064363163172116,2.727
0.004118250345734348,2.728
0.00169611149835962,2.729
-0.0005754743181242929,2.73
-0.0024972199648658176,2.731
-0.003964946175254005,2.732
-0.00495348470887902,2.733
-0.005468493959336432,2.734
-0.005512493940675849,2.735
-0.005092791605674994,2.736
-0.004260025397517781,2.737
-0.0031409486422087525,2.738
-0.0019213371464912123,2.739
-0.0007841274982156501,2.74
0.00013817830747302366,2.741
0.0007708001951100661,2.742
0.0010896579811882116,2.743
0.0011174690916296737,2.744
0.0009071459561841571,2.745
0.0005161286651866452,2.746
7.212885355882965e-06,2.747
-0.0005325399681620241,2.748
-0.0009908111777286828,2.749
-0.0012409151010938917,2.75
-0.0011623595462536469,2.751
-0.0006991444208173538,2.752
6.695145040549508e-05,2.753
0.0009021295116582297,2.754
0.0014936693123763576,2.755
0.0015856112601853461,2.756
0.0011228837169118416,2.757
0.00030562073853275415,2.758
-0.000498443111916173,2.759
-0.0009177517997841707,2.76
-0.000725697067958333,2.761
7.829342431266441e-05,2.762
0.0012812887088633747,2.763
0.0025437396137919298,2.764
0.0035015012842035988,2.765
0.003856886613856865,2.766
0.003467755809599068,2.767
0.0023978511395497913,2.768
0.0008743374827044312,2.769
-0.0008203743255521935,2.77
-0.0024321576487308276,2.771
-0.0037603587001457514,2.772
-0.004663868058695654,2.773
-0.005063826170177632,2.774
-0.004935468175195692,2.775
-0.004294014592439318,2.776
-0.0031821165400231118,2.777
-0.0016654478947036838,2.778
0.00017222897752891512,2.779
0.002236116286622391,2.78
0.004406610505140174,2.781
0.006500452407195567,2.782
0.008243766665775577,2.783
0.009305310817658508,2.784
0.009386864575410603,2.785
0.008317481533279747,2.786
0.006120001745024996,2.787
0.0030353633825827113,2.788
-0.0005227606947339995,2.789
-0.004072966392619659,2.79
-0.007161718192623864,2.791
-0.009409713171526148,2.792
-0.01054379658515282,2.793
-0.010440002034288255,2.794
-0.009164041392938362,2.795
-0.006996410925453303,2.796
-0.004411671534696489,2.797
-0.001968571902650101,2.798
-0.000126430129635527,2.799
0.0009045350814258722,2.8
0.0011736888726625518,2.801
0.0008910946693481569,2.802
0.0003359091097456291,2.803
-0.00018777853364950028,2.804
-0.00039063072738134097,2.805
-5.085197979824776e-05,2.806
0.0009357265386777995,2.807
0.0025200885130580754,2.808
0.004486675239836313,2.809
0.006469244972691792,2.81
0.00802878660374086,2.811
0.008811856822903029,2.812
0.008700416803398815,2.813
0.007827139456272622,2.814
0.006445320031990577,2.815
0.004759089721182981,2.816
0.002833627205989176,2.817
0.0006407450983165924,2.818
-0.0018093591564387506,2.819
-0.004363295279443977,2.82
-0.00671426441551058,2.821
-0.0084753436173621,2.822
-0.009299278474405684,2.823
-0.009010344556834214,2.824
-0.007692836641537556,2.825
-0.0056716098053461875,2.826
-0.003395700522958204,2.827
-0.0013033142063099952,2.828
0.00029586322687949604,2.829
0.0013108068131687221,2.83
0.0018734302543964793,2.831
0.002232461670240169,2.832
0.00261173667749539,2.833
0.0031072726591789414,2.834
0.0036574868890886527,2.835
0.004109201936288116,2.836
0.00433856236081036,2.837
0.00433115054694823,2.838
0.004160722004308193,2.839
0.0038922820799768103,2.84
0.0035081922034944355,2.841
0.002925778228038178,2.842
0.0020785478951664154,2.843
0.0009906605363133206,2.844
-0.00021038807059117884,2.845
-0.0013484585004023876,2.846
-0.0022694594757705702,2.847
-0.0028785399235341283,2.848
-0.003153126571032491,2.849
-0.0031588420805333042,2.85
-0.0030456680210580963,2.851
-0.002986262118680276,2.852
-0.0030747364742900484,2.853
-0.0032571383678944763,2.854
-0.0033495950531618056,2.855
-0.003133088954847087,2.856
-0.0024654453128457893,2.857
-0.0013501123098585551,2.858
6.08811013703341e-05,2.859
0.0015115697232034964,2.86
0.0027196216122985393,2.861
0.0034680200098154874,2.862
0.003649683942019636,2.863
0.0032373845080991373,2.864
0.0022524544759546378,2.865
0.0007997663542100767,2.866
-0.0008726624821811799,2.867
-0.002380872892904139,2.868
-0.003312610903064761,2.869
-0.0033808450706201204,2.87
-0.0025373197504236,2.871
-0.0009993508942859894,2.872
0.0008076923317288488,2.873
0.0023769804318913915,2.874
0.003286017421827262,2.875
0.003330278205206358,2.876
0.0025595470447724107,2.877
0.0012189283486456052,2.878
-0.0003514823969902977,2.879
-0.0018057980259522219,2.88
-0.002859911331776209,2.881
-0.0033393954359754894,2.882
-0.003184365917465523,2.883
-0.002414580472654957,2.884
-0.0011030003218241307,2.885
0.0006167785911772238,2.886
0.0025329935246270452,2.887
0.0043669654118899,2.888
0.00583171559456041,2.889
0.006721294666565765,2.89
0.0069822432701902104,2.891
0.006719778872322177,2.892
0.006122137176317031,2.893
0.005329497654323112,2.894
0.004341902024637589,2.895
0.003058319726856896,2.896
0.0014057710022351406,2.897
-0.0005728563560810152,2.898
-0.0027363842854669345,2.899
-0.004922919523847781,2.9
-0.0070119702208431825,2.901
-0.008937666309974722,2.902
-0.010656992402045718,2.903
-0.012080650686155913,2.904
-0.013006969024820922,2.905
-0.013136038727754755,2.906
-0.012174228909313134,2.907
-0.009954891185034908,2.908
-0.006515170616723729,2.909
-0.0021101813365564134,2.91
0.002832936966753374,2.911
0.007812274995518446,2.912
0.01238610406955592,2.913
0.016264639329680326,2.914
0.01924549836001521,2.915
0.02104876519253758,2.916
0.021280521726073153,2.917
0.0196213644028851,2.918
0.016072830199903854,2.919
0.0110470130801318,2.92
0.005218821369527014,2.921
-0.0007477718579790134,2.922
-0.006372216615196572,2.923
-0.011344256297820909,2.924
-0.015427601038641738,2.925
-0.0183753453069262,2.926
-0.01990842566903196,2.927
-0.01980256242088067,2.928
-0.018048378679844643,2.929
-0.014938036281108829,2.93
-0.010984270566459719,2.931
-0.0067476066528147855,2.932
-0.0026862549452992715,2.933
0.0009243182554556588,2.934
0.003986820921344764,2.935
0.0065117247651686,2.936
0.00852990510492705,2.937
0.01001242544470142,2.938
0.010819616002077828,2.939
0.010731541696211154,2.94
0.00957947516447807,2.941
0.007413436516118666,2.942
0.004588878658302463,2.943
0.001694584015552617,2.944
-0.0006519038145838623,2.945
-0.00203259543486825,2.946
-0.002351485238632149,2.947
-0.0017964309166463195,2.948
-0.0007157539977182298,2.949
0.0004958897216663942,2.95
0.0014817894924979555,2.951
0.0019769416966320032,2.952
0.0018308981777656374,2.953
0.0010265214239927266,2.954
-0.00029564659010920363,2.955
-0.001847537274057502,2.956
-0.003267301379985526,2.957
-0.00422661809175774,2.958
-0.004514704320199109,2.959
-0.00407172702836685,2.96
-0.0029884631727584644,2.961
-0.001478642246157594,2.962
0.00019008780683416857,2.963
0.0017787054547441835,2.964
0.0031197250387561704,2.965
0.0041019051768061985,2.966
0.004626442702693347,2.967
0.004604033959095526,2.968
0.004023584217508389,2.969
0.003014382270709134,2.97
0.0018179785230661087,2.971
0.000695593318890344,2.972
-0.00015615772025679618,2.973
-0.000653512039716303,2.974
-0.0008493210925863042,2.975
-0.0009228857546153682,2.976
-0.0010935662416790073,2.977
-0.001486987294140817,2.978
-0.002071206351852855,2.979
-0.002695755421661247,2.98
-0.0031563273109666496,2.981
-0.00325887524150956,2.982
-0.0029028485123183474,2.983
-0.0021520429827704083,2.984
-0.0012228161133244718,2.985
-0.0003536278712421747,2.986
0.00034224042793258135,2.987
0.0008798588919232041,2.988
0.001291351843903571,2.989
0.0015670998963801257,2.99
0.001683800408320473,2.991
0.001630888742455549,2.992
0.00141171180533841,2.993
0.0010574118154804812,2.994
0.0006434789047869521,2.995
0.0002716999628488432,2.996
2.222783240474656e-05,2.997
-8.948567945245695e-05,2.998
-0.00012789133339557513,2.999
-0.00021180298302799752,3.0
-0.0004402857074787199,3.001
-0.0008083952885411191,3.002
-0.0011780375422335994,3.003
-0.0013203625630560157,3.004
-0.0010092283403757862,3.005
-0.00013227505504280544,3.006
0.0012383084081908082,3.007
0.0028439012781445545,3.008
0.004284325339209441,3.009
0.005102663701212233,3.01
0.004923511205449882,3.011
0.0036138303617263595,3.012
0.0013656833089146477,3.013
-0.0013728209998887559,3.014
-0.004058635826204975,3.015
-0.006204439459810192,3.016
-0.0074873287133798185,3.017
-0.007803936220522465,3.018
-0.0072429348119233475,3.019
-0.005993896554688992,3.02
-0.004273658424278422,3.021
-0.0023140379763445045,3.022
-0.0003608796720331574,3.023
0.0013730699041368075,3.024
0.002769615111847286,3.025
0.0038164945877904367,3.026
0.004586999435079884,3.027
0.0052297564535930575,3.028
0.005923198618394236,3.029
0.006759779730017909,3.03
0.007647075357871586,3.031
0.008322072036079754,3.032
0.008469298437213411,3.033
0.007871358154556547,3.034
0.006500870216904637,3.035
0.004494076662648346,3.036
0.002063710784283974,3.037
-0.0005506809276828658,3.038
-0.0030935667428234957,3.039
-0.0053139080588231885,3.04
-0.007002148423463156,3.041
-0.00802860122615198,3.042
-0.008374866668387505,3.043
-0.008141562199126769,3.044
-0.007518569378628647,3.045
-0.006726786167800704,3.046
-0.005946911858445099,3.047
-0.005256416130342721,3.048
-0.00460593748323081,3.049
-0.0038461845259596867,3.05
-0.002805131485629723,3.051
-0.0014089939617475213,3.052
0.0002283249054875259,3.053
0.0018422616873479103,3.054
0.003166933238164163,3.055
0.004085339581141259,3.056
0.004671577115096267,3.057
0.005108630599013513,3.058
0.005575858141969808,3.059
0.006196528664392252,3.06
0.007017121854705159,3.061
0.007941324588886677,3.062
0.00866095075603426,3.063
0.008722005694244335,3.064
0.007739235283525177,3.065
0.005585004846412837,3.066
0.002425931500322809,3.067
-0.0013369081089926469,3.068
-0.005159099168739873,3.069
-0.0084793816378138,3.07
-0.010841689841122996,3.071
-0.011948698870522452,3.072
-0.011663478388794352,3.073
-0.010029033696758925,3.074
-0.00731468723018904,3.075
-0.00400433971311237,3.076
-0.0006610771668745071,3.077
0.0022750018893355284,3.078
0.0046213109881751225,3.079
0.006417487450414929,3.08
0.0077464550149644335,3.081
0.008575193255451627,3.082
0.008754475039463775,3.083
0.008137143084163299,3.084
0.006681932244032864,3.085
0.004489317688911676,3.086
0.0017864358243991033,3.087
-0.001131702597038356,3.088
-0.0039757004428121415,3.089
-0.006483509804620744,3.09
-0.008400657402864924,3.091
-0.009507798117517511,3.092
-0.009697072837957116,3.093
-0.009006056485103007,3.094
-0.00756276440501898,3.095
-0.005500414192073272,3.096
-0.0029526148402548935,3.097
-0.0001345822926540296,3.098
0.002616026335463515,3.099
0.004916806665713796,3.1
0.006497846438217578,3.101
0.0073405721018025396,3.102
0.007671152212377253,3.103
0.007764171569631227,3.104
0.007710924901249776,3.105
0.0073679511021157084,3.106
0.006516870322329436,3.107
0.005073271687199834,3.108
0.0031848450725416896,3.109
0.0011771063997419097,3.11
-0.0006104004713927525,3.111
-0.0019971715056335535,3.112
-0.003011254190737448,3.113
-0.003780566302312662,3.114
-0.004382725205859938,3.115
-0.004774744462756384,3.116
-0.004817904248241943,3.117
-0.004352767601747965,3.118
-0.0032925741208271624,3.119
-0.001716396073432188,3.12
8.067518630485377e-05,3.121
0.0016357822666964491,3.122
0.0024760144972011556,3.123
0.002327329596066177,3.124
0.0012666989626207866,3.125
-0.0003005998842589261,3.126
-0.0018647054973312154,3.127
-0.0030874327953929115,3.128
-0.003915152105366518,3.129
-0.004461100284734347,3.13
-0.004798300946373137,3.131
-0.004846510309134945,3.132
-0.004413830298399596,3.133
-0.0033333428147620803,3.134
-0.0015967633673067492,3.135
0.0005914962649958948,3.136
0.0028646058075987592,3.137
0.00481652301107967,3.138
0.006127341084737745,3.139
0.006637903913872643,3.14
0.006382965944932033,3.141
0.005580387503074134,3.142
0.004539279340924234,3.143
0.003534325189205248,3.144
0.002748117997815196,3.145
0.0022809773935009658,3.146
0.002146391854849398,3.147
0.002226602528490546,3.148
0.0022518751543800473,3.149
0.0018764464722247915,3.15
0.0008466113388264598,3.151
-0.0008401263953878442,3.152
-0.002900108904051942,3.153
-0.004874871366903758,3.154
-0.0063053869353782545,3.155
-0.0068663729451555544,3.156
-0.006440867291314328,3.157
-0.005162653548634756,3.158
-0.0033883460055244233,3.159
-0.0015747598296810392,3.16
-0.0001344693404638963,3.161
0.0006842437713153587,3.162
0.0008928163133464811,3.163
0.0007729659337800929,3.164
0.00074847640941438,3.165
0.0011859585542854105,3.166
0.0022503414164238814,3.167
0.003862967353581336,3.168
0.00570861378567469,3.169
0.007277387829365501,3.17
0.008023255260857237,3.171
0.007598688998473545,3.172
0.005962223338327381,3.173
0.003290704291188068,3.174
-0.0001437425589118011,3.175
-0.003969808500204311,3.176
-0.007620850859630402,3.177
-0.010321750450144655,3.178
-0.011270276556891185,3.179
-0.009981386803688708,3.18
-0.006612985963656752,3.181
-0.0020119934563180716,3.182
0.0025900116161097367,3.183
0.006021696479477885,3.184
0.007549718393692684,3.185
0.007090103899833671,3.186
0.005143112684963292,3.187
0.002475542519439316,3.188
-0.00020845021967101244,3.189
-0.0024255752713554456,3.19
-0.0039268764808072605,3.191
-0.00466225955229016,3.192
-0.00472601254721148,3.193
-0.0042883272333421076,3.194
-0.003550538079426808,3.195
-0.0027330948758406493,3.196
-0.0020540722688222783,3.197
-0.0016730851605353976,3.198
-0.0016405543706345337,3.199
-0.0018929873360412001,3.2
-0.002268297435816064,3.201
-0.0025212690924966284,3.202
-0.002363087877232846,3.203
-0.001534922296945717,3.204
9.66303439716482e-05,3.205
0.002456149626764522,3.206
0.005242899408554064,3.207
0.008005301637486506,3.208
0.010269361432365677,3.209
0.011659787039985565,3.21
0.011985405954926519,3.211
0.011260235043468448,3.212
0.009622846911662094,3.213
0.007240679380486495,3.214
0.004331786883346961,3.215
0.0012479045965536216,3.216
-0.0015375122933196034,3.217
-0.003572501145665584,3.218
-0.004614384680403862,3.219
-0.004744827539435181,3.22
-0.004332531736643491,3.221
-0.0038670136727998786,3.222
-0.0037675985934190956,3.223
-0.004249331471357445,3.224
-0.005266179593071355,3.225
-0.0065285688764481,3.226
-0.0076154048195495715,3.227
-0.008156714170295244,3.228
-0.007958310077451937,3.229
-0.0070006845191337526,3.23
-0.005385094580017771,3.231
-0.0032875807323226093,3.232
-0.0009287636941746768,3.233
0.0014266322145375428,3.234
0.0034554571424187117,3.235
0.004805655922210864,3.236
0.005200074473100408,3.237
0.004571434489191696,3.238
0.0031393022479819207,3.239
0.001369250554981495,3.24
-0.0001658900575381687,3.241
-0.0009542556344189719,3.242
-0.0006828054103433149,3.243
0.0006879920071683448,3.244
0.0029218673445745415,3.245
0.005554302922369685,3.246
0.007977719452791448,3.247
0.009605206675661634,3.248
0.010089535932553568,3.249
0.009435928874697035,3.25
0.007916175045673405,3.251
0.005908123188225835,3.252
0.00378925987045177,3.253
0.001853835596801482,3.254
0.00022777742018603877,3.255
-0.0011586125965091778,3.256
-0.0025174763034875223,3.257
-0.004093235919534868,3.258
-0.006025450340123978,3.259
-0.008245837116116862,3.26
-0.010465418396826714,3.261
-0.012261071418439979,3.262
-0.013226932487899279,3.263
-0.013107893843101502,3.264
-0.011848251823954924,3.265
-0.009589220984319927,3.266
-0.006661560450271599,3.267
-0.0035315225634086544,3.268
-0.0006880367527353988,3.269
0.001436425920534784,3.27
0.0024772320352213334,3.271
0.0022046201084398305,3.272
0.0007059538951733424,3.273
-0.0014877788404949618,3.274
-0.003490465471224361,3.275
-0.004307299140237156,3.276
-0.0030940302266533122,3.277
0.0006463343381669723,3.278
0.006920618942815041,3.279
0.01511517504009212,3.28
0.023895275701981526,3.281
0.03129461671272413,3.282
0.03518737621964599,3.283
0.03407493752590397,3.284
0.027731347397083866,3.285
0.01725263527594353,3.286
0.0045651508283754616,3.287
-0.008203607167837954,3.288
-0.019205971629017042,3.289
-0.027120458753901372,3.29
-0.031210837896427982,3.291
-0.031341799967088906,3.292
-0.02800832315866048,3.293
-0.02225263734927334,3.294
-0.01540432459479041,3.295
-0.008768711204580686,3.296
-0.0033629134088433155,3.297
0.0002672527623892363,3.298
0.00208605247191007,3.299
0.0024710744353857624,3.3
0.002083301288686154,3.301
0.001721507665049202,3.302
0.0020781601187619555,3.303
0.0034550396829521875,3.304
0.005664242222437819,3.305
0.008201104832329949,3.306
0.010539328227507751,3.307
0.012344845655852948,3.308
0.013488058072659447,3.309
0.013898866829154496,3.31
0.013441520407408003,3.311
0.011932839647876142,3.312
0.009284481982583834,3.313
0.005651173259251473,3.314
0.001451532444177832,3.315
-0.002753038552597989,3.316
-0.006412018678486902,3.317
-0.009105862203718803,3.318
-0.01063620929405419,3.319
-0.011044955179642126,3.32
-0.010530077787495136,3.321
-0.009322431409742161,3.322
-0.00761441584631067,3.323
-0.0055799153583086245,3.324
-0.003440133462384147,3.325
-0.0014957715539668018,3.326
-7.814660293497582e-05,3.327
0.0005743202336502287,3.328
0.00042772695931466575,3.329
-0.0003264844217367607,3.33
-0.0013324544353997378,3.331
-0.002172334037484787,3.332
-0.0024702243155990946,3.333
-0.001967649534056104,3.334
-0.0005674671227386221,3.335
0.0016520322801419946,3.336
0.004452986064179319,3.337
0.007468204185897287,3.338
0.010227931891451065,3.339
0.012178808607938971,3.34
0.012724314959219668,3.341
0.011365809974301888,3.342
0.007970268558764681,3.343
0.0030141147962184536,3.344
-0.002445676685151463,3.345
-0.007138401642748827,3.346
-0.010038435656885166,3.347
-0.010660340478671091,3.348
-0.00915523973107653,3.349
-0.006232462208226554,3.35
-0.0029214147230618727,3.351
-0.00025104715971025886,3.352
0.0010690159160040799,3.353
0.0008739554921548557,3.354
-0.0004347041237138461,3.355
-0.002082866092938713,3.356
-0.0032394635273039893,3.357
-0.0033368458763807507,3.358
-0.0022565441946631173,3.359
-0.00029443643103915454,3.36
0.0020213325192166747,3.361
0.004116803653733697,3.362
0.0054942606246025285,3.363
0.005816791506376256,3.364
0.0049941077415429965,3.365
0.003223862433155213,3.366
0.0009348459818077056,3.367
-0.0013291343333475978,3.368
-0.0030263455662107256,3.369
-0.0037255831639218745,3.37
-0.003234051052408266,3.371
-0.001725897370790607,3.372
0.00025616228538600714,3.373
0.002012454479267453,3.374
0.0030021764703962728,3.375
0.003077658344082387,3.376
0.002541563153334716,3.377
0.002005139008320809,3.378
0.0020879064908916334,3.379
0.0031096816111222864,3.38
0.0049611511018927525,3.381
0.00719715328640045,3.382
0.009208065481547777,3.383
0.010350098630145074,3.384
0.010069556217227682,3.385
0.008030890023255579,3.386
0.004192129239522653,3.387
-0.0011637051085853752,3.388
-0.0074432528602047816,3.389
-0.013825446972207193,3.39
-0.019361548264073557,3.391
-0.02311462534642506,3.392
-0.024428828611222326,3.393
-0.023204520328567204,3.394
-0.019893335297267868,3.395
-0.015180175432206955,3.396
-0.009653862199303231,3.397
-0.0037095586095195225,3.398
0.002355249512399924,3.399
0.008202226590450879,3.4
0.013358423549860955,3.401
0.01721255338136323,3.402
0.01914968922233777,3.403
0.018782419744300453,3.404
0.016150748061240866,3.405
0.011821891832067678,3.406
0.00684117842030807,3.407
0.002456836464149631,3.408
-0.0003009277195392152,3.409
-0.0009325368666391432,3.41
0.00045652861672744287,3.411
0.0032336105454029433,3.412
0.006385881122088851,3.413
0.008757571740598009,3.414
0.009388466127674586,3.415
0.007826350998021696,3.416
0.004219251849937457,3.417
-0.0008336142718777721,3.418
-0.006492404143712221,3.419
-0.011812320146974841,3.42
-0.015840381621526824,3.421
-0.017750370077822118,3.422
-0.01700553237055981,3.423
-0.01349436310652055,3.424
-0.00760391496533289,3.425
-0.00020105867098401623,3.426
0.0075125401177789574,3.427
0.014257194322989478,3.428
0.018918222041600274,3.429
0.020643566511134546,3.43
0.01886531546299021,3.431
0.013451617534157368,3.432
0.0050065589783065525,3.433
-0.0049797619396382215,3.434
-0.014435710012576226,3.435
-0.021368891620879803,3.436
-0.024467756078650996,3.437
-0.02338266347661369,3.438
-0.018722025161449045,3.439
-0.01185314992864367,3.44
-0.00451039859886361,3.441
0.0017308820570738567,3.442
0.0058883258608455275,3.443
0.007701202630574515,3.444
0.007460521318224861,3.445
0.005730534855364961,3.446
0.003154656668168487,3.447
0.0004319512950569952,3.448
-0.0016046063919331215,3.449
-0.0020356853763762502,3.45
-0.0001466470144014875,3.451
0.0042569026136614375,3.452
0.010730517905982392,3.453
0.018202078555186997,3.454
0.025062403712936703,3.455
0.029467715602318312,3.456
0.029860037269036244,3.457
0.0254720870670353,3.458
0.01659016442386049,3.459
0.004520836230127895,3.46
-0.008720170856942915,3.461
-0.02095005200048619,3.462
-0.030358141346313424,3.463
-0.0357634740459448,3.464
-0.036633878256605086,3.465
-0.03313045085548685,3.466
-0.02621941142479388,3.467
-0.017557239926478646,3.468
-0.008974139293385515,3.469
-0.0018544875514792756,3.47
0.0031951638178589936,3.471
0.006329339426210174,3.472
0.008222187724449328,3.473
0.009708169386009059,3.474
0.011402397280816767,3.475
0.013405913843583797,3.476
0.015228162512785299,3.477
0.016046816998612705,3.478
0.015209932370996507,3.479
0.012616112061438442,3.48
0.008702281474471902,3.481
0.004157787400776226,3.482
-0.0003305086736955849,3.483
-0.004147461249268397,3.484
-0.006742210009298962,3.485
-0.007754885235134378,3.486
-0.0072428723956621715,3.487
-0.0056991511108911465,3.488
-0.003753204335535783,3.489
-0.0018277682703827596,3.49
-1.2222982820937569e-05,3.491
0.0018266566450427899,3.492
0.0038105777526739365,3.493
0.005849168600170796,3.494
0.007599993372818884,3.495
0.008621424521231867,3.496
0.008619554831798982,3.497
0.007615511357544525,3.498
0.00592665158876497,3.499
0.003983549567415585,3.5
0.0020950709223134766,3.501
0.00030969258915321523,3.502
-0.001538538276094088,3.503
-0.003669887505463102,3.504
-0.0062112733255083544,3.505
-0.00907833271429309,3.506
-0.011885328887791728,3.507
-0.013980097651127394,3.508
-0.014664152302848338,3.509
-0.013486041541381302,3.51
-0.010428811023924754,3.511
-0.005918759679635253,3.512
-0.0007136683352370082,3.513
0.004267794846152533,3.514
0.008164894469172424,3.515
0.010366245444879832,3.516
0.010562012820741498,3.517
0.008701337661661339,3.518
0.004998592653423161,3.519
2.130777429664097e-06,3.52
-0.005399293163653884,3.521
-0.01009801158138046,3.522
-0.012971888025104452,3.523
-0.013164030252101099,3.524
-0.010407693721211099,3.525
-0.005203893563476883,3.526
0.0013070879685344223,3.527
0.007701109532079679,3.528
0.012661714798639048,3.529
0.015312391539434835,3.53
0.01546781924543256,3.531
0.013693844882202044,3.532
0.011022218817001574,3.533
0.00839938530718714,3.534
0.006262578160046008,3.535
0.004597487921180931,3.536
0.0033732115133923526,3.537
0.0028062419275576554,3.538
0.00307150506066916,3.539
0.003795890462756524,3.54
0.003990008328616477,3.541
0.0025963210975204327,3.542
-0.0008157782558296793,3.543
-0.005846133565776115,3.544
-0.011671103264687661,3.545
-0.01751424290872655,3.546
-0.022636053262411283,3.547
-0.02601065807851398,3.548
-0.026390270669053535,3.549
-0.02296862335384716,3.55
-0.01598693538052396,3.551
-0.006682606866042263,3.552
0.003245198083805824,3.553
0.01216458098451741,3.554
0.01885400609809032,3.555
0.022676319954495098,3.556
0.0235801745091644,3.557
0.021991674991114443,3.558
0.018692135191150566,3.559
0.014657657712513442,3.56
0.010764640689067158,3.561
0.007433770986428693,3.562
0.00449607678568436,3.563
0.0014669350428395877,3.564
-0.001967329094142951,3.565
-0.0056849430612355345,3.566
-0.009285699773643885,3.567
-0.01239344508873261,3.568
-0.014709257017057342,3.569
-0.015842127779886462,3.57
-0.015291037025803688,3.571
-0.012749162005717914,3.572
-0.008484683446659954,3.573
-0.003395741054977973,3.574
0.0013646140598501711,3.575
0.004877251482087796,3.576
0.006737478973964593,3.577
0.007058705848499704,3.578
0.006290053266500947,3.579
0.004968378239687796,3.58
0.0035106878222993716,3.581
0.002188807116366834,3.582
0.0012858221775422485,3.583
0.0011508921469138458,3.584
0.0020019231716181213,3.585
0.003716502669358874,3.586
0.005868930246108184,3.587
0.00795214865501641,3.588
0.009516509244847529,3.589
0.01012326454245549,3.59
0.009295177461013073,3.591
0.0066440699230653905,3.592
0.0021406991761397346,3.593
-0.003697894034198862,3.594
-0.009896428273715152,3.595
-0.015293533471902711,3.596
-0.018783928204484126,3.597
-0.019529493958815588,3.598
-0.017248941246667992,3.599
-0.01247366632821981,3.6
-0.006474812465581939,3.601
-0.0007442761488262983,3.602
0.0036710444082604715,3.603
0.006485031733269717,3.604
0.00797700877967649,3.605
0.008555876633716838,3.606
0.008420953260325627,3.607
0.007500198632262926,3.608
0.005635034848080925,3.609
0.0028078875266753585,3.61
-0.0007899871945117152,3.611
-0.004863744371210444,3.612
-0.009107702768153373,3.613
-0.01310938748290883,3.614
-0.016102639992005834,3.615
-0.01685198579006465,3.616
-0.013979426476781097,3.617
-0.006665175315554546,3.618
0.004812079209131257,3.619
0.019088191345778674,3.62
0.03399165432292216,3.621
0.04663870766689352,3.622
0.053611146305362234,3.623
0.05184601773693521,3.624
0.040089340700884005,3.625
0.019882415619562634,3.626
-0.004754058218433563,3.627
-0.028760963700544775,3.628
-0.04769231895760354,3.629
-0.05871580472637598,3.63
-0.060715301187410045,3.631
-0.05399175558786591,3.632
-0.04015079333556943,3.633
-0.02196567580741142,3.634
-0.002697712956389452,3.635
0.014803185782519879,3.636
0.028487380833051284,3.637
0.03697037169332783,3.638
0.03939796338736889,3.639
0.035568049436660434,3.64
0.026185702640699984,3.641
0.0130435545419805,3.642
-0.0011230622802182806,3.643
-0.013283378059687795,3.644
-0.021013427598526445,3.645
-0.02316091556278647,3.646
-0.020082057690625765,3.647
-0.013475522482603364,3.648
-0.005788381439382688,3.649
0.0006235855536450052,3.65
0.004171887608085488,3.651
0.004349085928420248,3.652
0.0017838629842372156,3.653
-0.0018729263541322908,3.654
-0.004311631661026542,3.655
-0.003265607196393478,3.656
0.0025270784699899826,3.657
0.012448234294338384,3.658
0.023793930075987475,3.659
0.032638341628864,3.66
0.035465357453772994,3.661
0.030657501654541643,3.662
0.01903844729184784,3.663
0.003327466212286153,3.664
-0.013003009147189689,3.665
-0.026788417992808983,3.666
-0.03582769424958516,3.667
-0.039197974389107895,3.668
-0.03726241503183901,3.669
-0.031302304551996424,3.67
-0.022862776341597918,3.671
-0.013184324259981403,3.672
-0.0031422265890057133,3.673
0.006362160496549725,3.674
0.01410520059794566,3.675
0.01871018533311158,3.676
0.019181963759059385,3.677
0.01547979747212485,3.678
0.008768314771547261,3.679
0.0011325260477001798,3.68
-0.005121467508953994,3.681
-0.008214226902842825,3.682
-0.007368313225788426,3.683
-0.00285866640154505,3.684
0.004338806268422135,3.685
0.012980409317463658,3.686
0.021641374907097274,3.687
0.028531578420891417,3.688
0.031559431592596915,3.689
0.02892055231194525,3.69
0.020045071991849798,3.691
0.00629818276492763,3.692
-0.009279945439325761,3.693
-0.02308310703565908,3.694
-0.03203835056156543,3.695
-0.03419728090594963,3.696
-0.028931932993502784,3.697
-0.016964959525010058,3.698
-0.0003470557523410411,3.699
0.017638218642221645,3.7
0.03284086803761346,3.701
0.0411476448980857,3.702
0.03979415885336906,3.703
0.028403771174435512,3.704
0.009162934633588185,3.705
-0.01379108448338293,3.706
-0.03532443096723414,3.707
-0.050327377466167646,3.708
-0.054793293191653034,3.709
-0.0469748723702022,3.71
-0.028246845079915355,3.711
-0.0029908415155564688,3.712
0.022615435274802746,3.713
0.042309573268375485,3.714
0.051464620055382465,3.715
0.048347606790263516,3.716
0.03426279644394537,3.717
0.012656325220577106,3.718
-0.012082687035319652,3.719
-0.03575397003025655,3.72
-0.055126268348560804,3.721
-0.06801420642534979,3.722
-0.07312928515160216,3.723
-0.07040199584700914,3.724
-0.061269835405884175,3.725
-0.04807581760792511,3.726
-0.03293788213562714,3.727
-0.017082472003054648,3.728
