VaMe,time
-6.605670440224291e-05,0.001
0.011516599916133893,0.002
0.02261632685141336,0.003
0.032469181796939285,0.004
0.04004849400695207,0.005
0.04423363644853883,0.006
0.044174849313159764,0.007
0.03972394766608593,0.008
0.03156938015672344,0.009
0.020918565872852082,0.01
0.009067697187605693,0.011
-0.0027211516615429504,0.012
-0.013015669540154505,0.013
-0.02007491320927133,0.014
-0.022197348027857142,0.015
-0.018491621536511592,0.016
-0.009531850490668134,0.017
0.0025137396710704757,0.018
0.014262381585789382,0.019
0.02191762909495884,0.02
0.022484325869578686,0.021
0.014971237126850773,0.022
0.0008009066355675516,0.023
-0.01679408714958726,0.024
-0.0338691071211274,0.025
-0.04681959329389065,0.026
-0.05317433367736248,0.027
-0.05211588101740198,0.028
-0.044629418688801055,0.029
-0.03295621749737252,0.03
-0.019396924885037248,0.031
-0.005266942390728365,0.032
0.009237409108524478,0.033
0.02432258411737633,0.034
0.03965555364052399,0.035
0.05376898242682327,0.036
0.06410390267961967,0.037
0.06768474521730201,0.038
0.06219842567357801,0.039
0.04711764609099986,0.04
0.024346644585599216,0.041
-0.002017032918081916,0.042
-0.026733382440118206,0.043
-0.0448512775213229,0.044
-0.052980694370870725,0.045
-0.050056562706648926,0.046
-0.03757060272647693,0.047
-0.01925174917642893,0.048
-0.00011264457618753943,0.049
0.014986422449232352,0.05
0.02279450043045802,0.051
0.022522685995654126,0.052
0.015703838539523684,0.053
0.00526286755259893,0.054
-0.0056350979714461374,0.055
-0.014512739656450406,0.056
-0.020141612351541445,0.057
-0.022649630341961286,0.058
-0.022998705447199515,0.059
-0.0220376778612402,0.06
-0.019866137414016008,0.061
-0.015924483939477405,0.062
-0.009467169356261577,0.063
2.618009006795805e-07,0.064
0.012361773412273487,0.065
0.026602589257224866,0.066
0.04076985914621966,0.067
0.05234125427696273,0.068
0.05889976151817761,0.069
0.05876231053755482,0.07
0.051306227656713874,0.071
0.037004856859313165,0.072
0.017218363042300417,0.073
-0.006051105099276188,0.074
-0.03010341359235727,0.075
-0.05149030371773526,0.076
-0.06668275329843348,0.077
-0.0732922373770305,0.078
-0.07083437146579694,0.079
-0.06052358907780362,0.08
-0.0446295260126732,0.081
-0.026000236126432152,0.082
-0.007642971477296318,0.083
0.007873832646130218,0.084
0.018955539979087426,0.085
0.025173920811587307,0.086
0.027167612038171605,0.087
0.026297616055387153,0.088
0.02406925252549438,0.089
0.021619758564608047,0.09
0.01959148510347971,0.091
0.01827019360038571,0.092
0.017678465288185743,0.093
0.017583839822979796,0.094
0.01752681647590849,0.095
0.016886617061990895,0.096
0.015018586298721492,0.097
0.011514919990899462,0.098
0.006487915683382446,0.099
0.0006582803031221989,0.1
-0.004846127588045489,0.101
-0.008885399566484854,0.102
-0.010758470950395296,0.103
-0.010535341302054227,0.104
-0.00904675450897586,0.105
-0.007488877397301418,0.106
-0.006878432644211997,0.107
-0.007655661617165713,0.108
-0.00960760919733486,0.109
-0.012064365824867078,0.11
-0.014162183137013406,0.111
-0.015069644352786954,0.112
-0.014188486308462955,0.113
-0.011310006129629997,0.114
-0.006728907058504782,0.115
-0.001282267633187244,0.116
0.003803459213218354,0.117
0.007271633440775335,0.118
0.008288619937139075,0.119
0.006832279811969746,0.12
0.003759614538141043,0.121
0.00039905667187889617,0.122
-0.0020956169135690934,0.123
-0.003205678302060852,0.124
-0.003075280187303577,0.125
-0.002155977402943601,0.126
-0.0007967015807527234,0.127
0.0008836144858316396,0.128
0.0028505247337547914,0.129
0.004998459613989459,0.13
0.007108509475902434,0.131
0.00882217958440068,0.132
0.009623875353412968,0.133
0.00900779951305744,0.134
0.006792100326378804,0.135
0.003276533377135649,0.136
-0.0008394793174864231,0.137
-0.0046265306947429466,0.138
-0.00711558574913118,0.139
-0.007469253737074996,0.14
-0.005118768539163312,0.141
2.9490557058730643e-05,0.142
0.007363745795233703,0.143
0.015560561158521342,0.144
0.022812387362204863,0.145
0.027094124127639875,0.146
0.026539747454807337,0.147
0.020093251387626257,0.148
0.008153525381077187,0.149
-0.007308440373265391,0.15
-0.023248747770173214,0.151
-0.036321971582865833,0.152
-0.04362974176013918,0.153
-0.04335201359487865,0.154
-0.035299230047561025,0.155
-0.021269071286618084,0.156
-0.004781181711970569,0.157
0.009947202028480553,0.158
0.019365770545746848,0.159
0.021807926665537145,0.16
0.018082506344846504,0.161
0.011085312640654092,0.162
0.004617357275978002,0.163
0.0018780639913977438,0.164
0.004076643727775354,0.165
0.009748302697171066,0.166
0.015297485235856128,0.167
0.016741227580914224,0.168
0.01180224127728783,0.169
0.0010534434970783562,0.17
-0.012461786813381602,0.171
-0.02455652570465352,0.172
-0.0313778363151313,0.173
-0.030658216075079077,0.174
-0.02251080008032709,0.175
-0.009452983713683671,0.176
0.0044775990000984565,0.177
0.01519060740158615,0.178
0.019956606841739798,0.179
0.018172695063755444,0.18
0.011265719911884419,0.181
0.001983106869107757,0.182
-0.006550941944327991,0.183
-0.011766545387268174,0.184
-0.012401560222296035,0.185
-0.00887496509797611,0.186
-0.0029997501617507433,0.187
0.0030027644743565955,0.188
0.007593204907790778,0.189
0.010323351771698061,0.19
0.011500770179876099,0.191
0.01167622756290612,0.192
0.011332683538501736,0.193
0.010775386742281474,0.194
0.010112424372667031,0.195
0.009267858232699764,0.196
0.008055974477803329,0.197
0.006339078657661983,0.198
0.004147922379993099,0.199
0.0015976632814953457,0.2
-0.0012527556161558125,0.201
-0.004289604990708791,0.202
-0.007114301517297507,0.203
-0.00909189877866815,0.204
-0.009687262211637557,0.205
-0.00874193731639673,0.206
-0.006491121404302582,0.207
-0.0034224807105429278,0.208
-0.00013457314311162436,0.209
0.0027577719420111557,0.21
0.004705468081393105,0.211
0.00531976465921903,0.212
0.004426961807877393,0.213
0.0020596399356782374,0.214
-0.0015140800859165988,0.215
-0.00569294792351536,0.216
-0.009555962366730184,0.217
-0.012115489159937943,0.218
-0.012701335917910844,0.219
-0.011264418838381331,0.22
-0.008412197007330712,0.221
-0.005137744735444128,0.222
-0.002401113080992097,0.223
-0.0007513834097966547,0.224
-0.00013670759983806276,0.225
-4.96391251412197e-06,0.226
0.0003698533431383362,0.227
0.001528622449820488,0.228
0.003569218645195231,0.229
0.00606492934255503,0.23
0.008218666093614341,0.231
0.009206495268352455,0.232
0.008538781682077338,0.233
0.006271304969674754,0.234
0.003016676155263869,0.235
-0.00022371570887360888,0.236
-0.0023811904435185652,0.237
-0.002687829087984695,0.238
-0.0009382093639941328,0.239
0.0024015185895140652,0.24
0.0062415056974868925,0.241
0.009148193952550976,0.242
0.009847452441211744,0.243
0.007723692780234724,0.244
0.0030259285033348146,0.245
-0.0033315169005978295,0.246
-0.010182395089267797,0.247
-0.016410036506476804,0.248
-0.02103603034653596,0.249
-0.023239805595253255,0.25
-0.022433760408493972,0.251
-0.018381774742409925,0.252
-0.011292814409688946,0.253
-0.0018936110904721171,0.254
0.008506818636253202,0.255
0.01808249637915787,0.256
0.024841952562560297,0.257
0.02725354667792581,0.258
0.024876347496900722,0.259
0.018589674984369624,0.26
0.010248810488873756,0.261
0.0020271150842758852,0.262
-0.004175596018958065,0.263
-0.007075955921652452,0.264
-0.006121008905237384,0.265
-0.0015145101886557483,0.266
0.00575828256908612,0.267
0.01398723261183313,0.268
0.02096689413213966,0.269
0.02440921480729219,0.27
0.02250149415495789,0.271
0.014509375181365546,0.272
0.0012477930417542603,0.273
-0.014872627866623186,0.274
-0.03044994089539632,0.275
-0.042124378991223295,0.276
-0.047530895236443785,0.277
-0.045851466685088486,0.278
-0.03788569538938313,0.279
-0.025699734806510666,0.28
-0.012007344259930086,0.281
0.0005607765957813853,0.282
0.010098494859984394,0.283
0.01575602244300198,0.284
0.017684417154097982,0.285
0.016689208129311194,0.286
0.013795056257644942,0.287
0.009929858254836582,0.288
0.005836912703648284,0.289
0.0021584994347857594,0.29
-0.0004998048711762992,0.291
-0.001651333836084901,0.292
-0.0010941624514191482,0.293
0.001000542677597894,0.294
0.004173917263944638,0.295
0.007833386988501626,0.296
0.011303179080140079,0.297
0.013810400613377022,0.298
0.014569631095327568,0.299
0.013040734313277876,0.3
0.009301348021528166,0.301
0.004243958342349239,0.302
-0.0007337551540472049,0.303
-0.004391306206048052,0.304
-0.006123675783953853,0.305
-0.005971594110871831,0.306
-0.004276687854109696,0.307
-0.001301684701023132,0.308
0.0028080782982757,0.309
0.007641442149720449,0.31
0.012127778429112302,0.311
0.014709204172553886,0.312
0.014191370746043123,0.313
0.010522588804063726,0.314
0.0046561680119751245,0.315
-0.00224961019322596,0.316
-0.009342496065305019,0.317
-0.01594274386605287,0.318
-0.021275766706742156,0.319
-0.024640789747128623,0.32
-0.025810462877216098,0.321
-0.025026506798707028,0.322
-0.022566084047350218,0.323
-0.01847450153870369,0.324
-0.012818829515012722,0.325
-0.006145201794585899,0.326
0.0004584623449725406,0.327
0.0058329286724741495,0.328
0.009287811252909386,0.329
0.010788657302214141,0.33
0.010808343951473716,0.331
0.010055804015550963,0.332
0.009207070374451192,0.333
0.00869359430062631,0.334
0.008609837943067767,0.335
0.008747399143152947,0.336
0.008716361420862278,0.337
0.00813826302964846,0.338
0.006858765284464213,0.339
0.005057770229772223,0.34
0.0031698161841747937,0.341
0.0016637539656204077,0.342
0.0008363443686896346,0.343
0.000726630749377914,0.344
0.0011301038153301735,0.345
0.0016670647967889649,0.346
0.001903695882779706,0.347
0.0015085978610452546,0.348
0.0003814379565237837,0.349
-0.0013154168317894071,0.35
-0.003234551842926225,0.351
-0.004968738121552838,0.352
-0.006165194532057381,0.353
-0.006624619485986962,0.354
-0.006366798171804175,0.355
-0.005593845960727271,0.356
-0.0045380475193368755,0.357
-0.003318657823642837,0.358
-0.0019431849507041915,0.359
-0.00043512844369476405,0.36
0.0010472360401707517,0.361
0.0022164997892897284,0.362
0.0027827775278630768,0.363
0.0025871373568567405,0.364
0.0016636989988922475,0.365
0.000252133964266832,0.366
-0.0012380094319917032,0.367
-0.002347844189201669,0.368
-0.002722855720488252,0.369
-0.0021984800721264004,0.37
-0.0008002458160982686,0.371
0.0012857833519295944,0.372
0.0037069097824758233,0.373
0.005899816845555117,0.374
0.0071075513562098925,0.375
0.006567943274856624,0.376
0.0038965216442835185,0.377
-0.0005101458228344609,0.378
-0.005421925906217897,0.379
-0.00925218478444227,0.38
-0.010764891572020674,0.381
-0.009562076791462896,0.382
-0.006135435418484277,0.383
-0.001541065803797018,0.384
0.003019770068807543,0.385
0.006477900519823116,0.386
0.008131386341233827,0.387
0.00788629880422777,0.388
0.006215207579542853,0.389
0.0037916678488390896,0.39
0.0011729232662120322,0.391
-0.0012592636486123123,0.392
-0.0032201412434921853,0.393
-0.004474106301830999,0.394
-0.004860448580094476,0.395
-0.004337623200751668,0.396
-0.0029729913152988625,0.397
-0.0008893728227987091,0.398
0.0016994450843362985,0.399
0.004354534144367599,0.4
0.006414131759246314,0.401
0.007257775526470233,0.402
0.006627790021811187,0.403
0.004718676662332709,0.404
0.001969352313316589,0.405
-0.0011855275641941645,0.406
-0.004325311096586731,0.407
-0.006931572180633148,0.408
-0.008489960146848458,0.409
-0.008760787311661758,0.41
-0.00786167400402695,0.411
-0.00613147762860073,0.412
-0.004005311058893479,0.413
-0.001921168812955957,0.414
-0.00019398243776616816,0.415
0.0010780912380290953,0.416
0.002004217741996082,0.417
0.002799691064017748,0.418
0.0036392185889556282,0.419
0.004533519476544216,0.42
0.0053009080047132315,0.421
0.005630856549529224,0.422
0.00520010857313607,0.423
0.0038276064115682837,0.424
0.001615621229180587,0.425
-0.001034915330455298,0.426
-0.0035695880470731907,0.427
-0.005468923519452278,0.428
-0.006347846811251985,0.429
-0.005954760321687077,0.43
-0.004178551670057356,0.431
-0.0011568523673522971,0.432
0.002587624487794293,0.433
0.006192450182490475,0.434
0.008794417972295123,0.435
0.009941989158706482,0.436
0.009733267785587517,0.437
0.008641587183181452,0.438
0.007244796580704945,0.439
0.005999118229236677,0.44
0.005063148152680031,0.441
0.004176257471906028,0.442
0.0027114170791331838,0.443
1.6969369038747152e-05,0.444
-0.004134052138005993,0.445
-0.009356305853638256,0.446
-0.014814225218511504,0.447
-0.01951971667534391,0.448
-0.022601481091255208,0.449
-0.023485268360979465,0.45
-0.021957077752467333,0.451
-0.018171276128821922,0.452
-0.012665639850022248,0.453
-0.006275422542537964,0.454
0.0001439054215810017,0.455
0.006022038571921777,0.456
0.011215801945150284,0.457
0.015940995139691237,0.458
0.020498326745748606,0.459
0.024873069706490704,0.46
0.028393118445358214,0.461
0.02973172495440189,0.462
0.02748650946886424,0.463
0.02106635641263958,0.464
0.011186140822302367,0.465
-0.0003733485197975189,0.466
-0.01144189650796965,0.467
-0.02013102069256934,0.468
-0.025238939071565224,0.469
-0.026339510964450866,0.47
-0.023739344262762817,0.471
-0.018457656404052107,0.472
-0.012064994567368275,0.473
-0.006222524825822642,0.474
-0.0021349618433180568,0.475
-0.00022836548085163627,0.476
-0.00014348810240347588,0.477
-0.0009594801367858142,0.478
-0.0015222580564057426,0.479
-0.0007926371425429273,0.48
0.0018431409785283847,0.481
0.006374277181733856,0.482
0.01212537471272274,0.483
0.01783810300281306,0.484
0.02187315860299208,0.485
0.022678674650925948,0.486
0.019506437984852663,0.487
0.012894421158827765,0.488
0.0044516177090225,0.489
-0.0038620399113909274,0.49
-0.010403202879997723,0.491
-0.014188174314111268,0.492
-0.014955035676617635,0.493
-0.013066913685535865,0.494
-0.00938464554694968,0.495
-0.005115229054887599,0.496
-0.001507140091612943,0.497
0.0005450526347005672,0.498
0.0007190741145248479,0.499
-0.0007751599136999674,0.5
-0.003356995024774276,0.501
-0.00623432038383345,0.502
-0.008536300175166515,0.503
-0.009458717013006712,0.504
-0.008439855675691492,0.505
-0.0053458246703541,0.506
-0.0006185188061370473,0.507
0.004710622142021176,0.508
0.009242117252443902,0.509
0.011664113889017594,0.51
0.01127872700687989,0.511
0.00830267293387134,0.512
0.003719267032673271,0.513
-0.0011958115554333236,0.514
-0.005310803031865627,0.515
-0.00783613144076226,0.516
-0.008350897712422638,0.517
-0.006769128819969736,0.518
-0.003289907761286856,0.519
0.0016334948796483057,0.52
0.00728201096743102,0.521
0.012660667791491713,0.522
0.01656195303076454,0.523
0.017794653371988465,0.524
0.015628221333085793,0.525
0.010222971599147552,0.526
0.0026636867587581155,0.527
-0.005446540830718614,0.528
-0.012512534922274362,0.529
-0.01731390687446091,0.53
-0.019156484888912088,0.531
-0.017900705747681805,0.532
-0.013977577692423726,0.533
-0.008368986878417396,0.534
-0.002387733475522903,0.535
0.0027521902541267373,0.536
0.006298527420904517,0.537
0.00803905863849036,0.538
0.008149718648006593,0.539
0.006979541179917099,0.54
0.004896755256287196,0.541
0.0022412716443375503,0.542
-0.0006311248822308715,0.543
-0.0032786450115978344,0.544
-0.005178692143737762,0.545
-0.005855040137244224,0.546
-0.005064354784611548,0.547
-0.0029328317813449405,0.548
3.664957191227305e-05,0.549
0.0031098063719299674,0.55
0.005565654146117652,0.551
0.006922051931202782,0.552
0.007047709153429841,0.553
0.0061499985038535225,0.554
0.004666051540599558,0.555
0.0030959231654372897,0.556
0.0018403591137018903,0.557
0.0010970567321585058,0.558
0.0008419742455995807,0.559
0.0008965440112046239,0.56
0.001030101053745359,0.561
0.001037007289593296,0.562
0.000782734916502667,0.563
0.0002282430921215749,0.564
-0.0005808887538171195,0.565
-0.00155476143167274,0.566
-0.0025957173383497397,0.567
-0.003618584360039426,0.568
-0.004557773898687831,0.569
-0.005351224763818747,0.57
-0.005908558034295731,0.571
-0.00611153340242169,0.572
-0.00587937821294855,0.573
-0.005247870586029016,0.574
-0.004375178540344734,0.575
-0.003472365340568658,0.576
-0.0027303545547877786,0.577
-0.0022873119868511453,0.578
-0.0022250457585018084,0.579
-0.0025501439350632395,0.58
-0.003142144953891113,0.581
-0.0037119025185939846,0.582
-0.0038322314908539514,0.583
-0.0030653448614813604,0.584
-0.00112864220938672,0.585
0.0019919386533625025,0.586
0.006011452005455488,0.587
0.010381896035313316,0.588
0.014378686906828126,0.589
0.01722896944803799,0.59
0.01827281169478822,0.591
0.01713820719872538,0.592
0.013883968167447342,0.593
0.009030138054664372,0.594
0.0034187261965489277,0.595
-0.0020352498018289733,0.596
-0.006572063283704879,0.597
-0.009725235023440911,0.598
-0.011356831510353247,0.599
-0.011610732704534317,0.6
-0.010834920127982359,0.601
-0.009489248718220301,0.602
-0.008031729064751296,0.603
-0.006807363868591194,0.604
-0.005975189930138655,0.605
-0.0055011415478583075,0.606
-0.005217350900455165,0.607
-0.004888743616490926,0.608
-0.004232831946484929,0.609
-0.002950656936018045,0.61
-0.000849356904500204,0.611
0.0020199532154950017,0.612
0.005345493110176865,0.613
0.008645311911342329,0.614
0.011374174088246685,0.615
0.013027815583690485,0.616
0.013256124141060303,0.617
0.011952683320735557,0.618
0.009265578379399236,0.619
0.005544276637379407,0.62
0.0012842284250524872,0.621
-0.0029422376941662973,0.622
-0.006598937576240261,0.623
-0.009295336739680204,0.624
-0.01082602999910325,0.625
-0.01114363312650935,0.626
-0.010333611278120335,0.627
-0.008619148956631097,0.628
-0.0063453182347174095,0.629
-0.003906464374303583,0.63
-0.0016428668532110521,0.631
0.0002395696737919244,0.632
0.0016854600417222656,0.633
0.00275488441520385,0.634
0.0035796582114615083,0.635
0.0043144655508453285,0.636
0.005081913806764138,0.637
0.0059320172205238894,0.638
0.006795155618793644,0.639
0.0074292139520441905,0.64
0.007483649916321132,0.641
0.006746306498178872,0.642
0.005364504070905522,0.643
0.003766205775973938,0.644
0.0023215331165430926,0.645
0.001078480953023047,0.646
-0.00019097713003346238,0.647
-0.0017432906213284815,0.648
-0.003671806904555789,0.649
-0.005874218552625466,0.65
-0.008122510785654973,0.651
-0.010140591071455445,0.652
-0.011611025585814217,0.653
-0.01214087712158988,0.654
-0.011339546987024865,0.655
-0.009038207173374991,0.656
-0.005444702663782647,0.657
-0.001104513709698839,0.658
0.003241152270866655,0.659
0.00682639401763569,0.66
0.009059214579075839,0.661
0.009688394372436567,0.662
0.008846434735776414,0.663
0.00694435764845927,0.664
0.004500699362202965,0.665
0.0020088464864637828,0.666
-0.00013864100045528813,0.667
-0.001684816862458233,0.668
-0.0025110932539504304,0.669
-0.002635264441101313,0.67
-0.0022032661159075194,0.671
-0.001443016470142161,0.672
-0.0005868298572597209,0.673
0.00018592933232718342,0.674
0.0007505795791298977,0.675
0.0010168414473437687,0.676
0.0009470651070469166,0.677
0.0006077616382681588,0.678
0.00017745698993874333,0.679
-0.0001324822581799703,0.68
-0.00019083846214626636,0.681
-1.23059056791306e-05,0.682
0.00025767749283571554,0.683
0.0004232688270296373,0.684
0.0003429514360985755,0.685
9.102849828125868e-06,0.686
-0.00044413702559717384,0.687
-0.0008089956043920853,0.688
-0.0008893102973736002,0.689
-0.0005584788216588936,0.69
0.00019333602682961915,0.691
0.0012218684805937433,0.692
0.002239660550157813,0.693
0.0028911763490505377,0.694
0.0028729595374893248,0.695
0.002060955041573698,0.696
0.0005852839714664044,0.697
-0.0012014165754861655,0.698
-0.0028551667801844905,0.699
-0.004003153309650713,0.7
-0.004458589426516118,0.701
-0.0042358580498067155,0.702
-0.0034752744876154202,0.703
-0.0023574732158307666,0.704
-0.0010723741787455933,0.705
0.00018068310586165292,0.706
0.001207021074695671,0.707
0.0018450916375005787,0.708
0.001999607376248096,0.709
0.0016741401976254505,0.71
0.0009830530688647796,0.711
0.00012936123691659337,0.712
-0.0006469271958813433,0.713
-0.0011361929052965593,0.714
-0.001213395943192659,0.715
-0.0008574040477137491,0.716
-0.00014803340172766472,0.717
0.0007495487466687045,0.718
0.0016225008641738944,0.719
0.002263829679593711,0.72
0.002533515574652838,0.721
0.002414277790311997,0.722
0.0020203235774602824,0.723
0.0015440612843043192,0.724
0.0011830404262085324,0.725
0.0010832795560432704,0.726
0.00129720294763536,0.727
0.0017638202385693636,0.728
0.002334103271953022,0.729
0.0028268138434397474,0.73
0.0030731128782523964,0.731
0.002928985172069191,0.732
0.0022724364387962997,0.733
0.0010315159472346703,0.734
-0.0007516707042975243,0.735
-0.0028862095235125482,0.736
-0.005073500652449245,0.737
-0.007003829757216331,0.738
-0.008463107001964761,0.739
-0.009404997841188185,0.74
-0.009938546380015472,0.741
-0.010210629597496254,0.742
-0.010243628471436523,0.743
-0.009848414269291124,0.744
-0.008694939792267277,0.745
-0.006486874711917334,0.746
-0.003105404229025309,0.747
0.0013263234268526252,0.748
0.006423299214826683,0.749
0.011562022635254162,0.75
0.015969313544919664,0.751
0.0188743607811293,0.752
0.019698331137705482,0.753
0.018233503328415147,0.754
0.014747603068678032,0.755
0.009929343971496267,0.756
0.004646929643467352,0.757
-0.00033076233107770243,0.758
-0.0044599322181727765,0.759
-0.007413950180958322,0.76
-0.009083678312771676,0.761
-0.009592749725247708,0.762
-0.009231524628202797,0.763
-0.008323712520426832,0.764
-0.007134635508831086,0.765
-0.005859495803204354,0.766
-0.004648680328405616,0.767
-0.003631648154889295,0.768
-0.002924658985753175,0.769
-0.002609300481896479,0.77
-0.0026802370355167218,0.771
-0.002997331918471413,0.772
-0.0032981297559466897,0.773
-0.0032906870617957175,0.774
-0.0027710669423190834,0.775
-0.0016938286535268074,0.776
-0.00019514575584337305,0.777
0.0014171252544019279,0.778
0.002740383167294407,0.779
0.003425542995933024,0.78
0.003333072654316749,0.781
0.002614282182668867,0.782
0.001666959858980035,0.783
0.000995451078307783,0.784
0.0010742436990724639,0.785
0.002286857060804086,0.786
0.00489678464133733,0.787
0.008942700444298644,0.788
0.014045120851409597,0.789
0.01924450143738254,0.79
0.023037313467302933,0.791
0.02376241371939986,0.792
0.020298360926719234,0.793
0.012664387411138105,0.794
0.002087369231210736,0.795
-0.009446773346814532,0.796
-0.019832992607051996,0.797
-0.02741784052666224,0.798
-0.031324296470490225,0.799
-0.0314454175050587,0.8
-0.028221889352687553,0.801
-0.02244012142861267,0.802
-0.01515912682607994,0.803
-0.00763085619166703,0.804
-0.001054707419903482,0.805
0.0037520724368013043,0.806
0.006536648617593453,0.807
0.007549857309069045,0.808
0.007346849525268703,0.809
0.006581436818692582,0.81
0.00583859071058887,0.811
0.005510811923943629,0.812
0.005736315244959848,0.813
0.006405456568488648,0.814
0.007227170079122816,0.815
0.007833899436403976,0.816
0.00788455488230601,0.817
0.007153305035957306,0.818
0.005612286298244583,0.819
0.0034680578084102065,0.82
0.0011042845014250814,0.821
-0.001046679382733131,0.822
-0.002641742434976903,0.823
-0.0035180208377135172,0.824
-0.0037021175921438357,0.825
-0.003359484933114144,0.826
-0.0027250214167049928,0.827
-0.0020178073615774333,0.828
-0.0013465021981626485,0.829
-0.0006603266826677096,0.83
0.00020333040689762366,0.831
0.0014050832451957475,0.832
0.002997673437043633,0.833
0.004849380041917982,0.834
0.006583323505305883,0.835
0.007579121181447369,0.836
0.007155323457765494,0.837
0.004945690359801603,0.838
0.001202344709672754,0.839
-0.0032690290671898367,0.84
-0.00746647367070486,0.841
-0.010543369979799022,0.842
-0.012005249578353203,0.843
-0.011755749062524466,0.844
-0.010029638867722205,0.845
-0.007267889395588266,0.846
-0.00399003302101606,0.847
-0.0007007272293492448,0.848
0.002173491623083465,0.849
0.004350318222570126,0.85
0.0057370912393061475,0.851
0.006402078690822726,0.852
0.006498954571822079,0.853
0.006190991177675027,0.854
0.00558183945360317,0.855
0.004681646286457728,0.856
0.0034432713542778943,0.857
0.00186113563081896,0.858
6.779089606238838e-05,0.859
-0.001668697783593552,0.86
-0.0030606664365396903,0.861
-0.003917426341721416,0.862
-0.00416980794356755,0.863
-0.0038411130918352193,0.864
-0.003035858666551884,0.865
-0.0019472291555046924,0.866
-0.0008380696666046358,0.867
3.859120532903679e-05,0.868
0.0005435266150201494,0.869
0.0006933258116115645,0.87
0.0006083461165757648,0.871
0.0004200986807707633,0.872
0.0002123567582959851,0.873
1.7894472672312784e-05,0.874
-0.0001583736751772242,0.875
-0.00031906761675105244,0.876
-0.0004685484275623371,0.877
-0.0006157178698755819,0.878
-0.0007727515504514284,0.879
-0.0009402821151379411,0.88
-0.001084418544705939,0.881
-0.0011322050926138743,0.882
-0.0009941873293176464,0.883
-0.0006027765544463013,0.884
4.621439884057215e-05,0.885
0.0008752176521285297,0.886
0.0017426637257323698,0.887
0.002481207356231035,0.888
0.002938276429312461,0.889
0.003006306221459009,0.89
0.0026325290472561567,0.891
0.0018143204430419624,0.892
0.0006110557480263453,0.893
-0.0008217839764246758,0.894
-0.0022237155761003083,0.895
-0.003279623767502608,0.896
-0.0037135493519708934,0.897
-0.003391915754916772,0.898
-0.00239053268285329,0.899
-0.0009733639994405601,0.9
0.000515359939956599,0.901
0.0017689300750135851,0.902
0.0025793978621707686,0.903
0.0028514201217170647,0.904
0.0026076496001200444,0.905
0.001989466583809349,0.906
0.0012230166537975345,0.907
0.0005456039328930875,0.908
0.0001332224190202196,0.909
5.8078376883257365e-05,0.91
0.0002775246342970199,0.911
0.0006571173188729878,0.912
0.0010201964468320344,0.913
0.0012046046728204415,0.914
0.0011077106297866578,0.915
0.0006962455876302926,0.916
-1.3317458890612976e-05,0.917
-0.0009547617089261834,0.918
-0.001991861497302403,0.919
-0.002940307645499368,0.92
-0.00363515713310207,0.921
-0.003982388878443396,0.922
-0.0039613807658793795,0.923
-0.00359105502117788,0.924
-0.002904698714236056,0.925
-0.0019654833604142003,0.926
-0.0008915807741288598,0.927
0.00014963926688362292,0.928
0.0009741138799785922,0.929
0.0014302307728623889,0.93
0.0014599131727828865,0.931
0.001136657097847571,0.932
0.0006445059904250047,0.933
0.0002064454250252944,0.934
-7.688462045766182e-06,0.935
4.453116846368673e-05,0.936
0.0002709070681844979,0.937
0.0005188784486067818,0.938
0.0006815355685667117,0.939
0.0007595254989996216,0.94
0.0008388826938155293,0.941
0.0010136372452783815,0.942
0.0013219295028503463,0.943
0.0017349794862117566,0.944
0.0021782883163823847,0.945
0.002551856747324494,0.946
0.00274793635099162,0.947
0.002677007439761946,0.948
0.002299791908269688,0.949
0.0016462192759956634,0.95
0.0008007888304847489,0.951
-0.00013155924472553113,0.952
-0.0010473006277913518,0.953
-0.0018500252789397523,0.954
-0.0024545326117198056,0.955
-0.0027961696226187494,0.956
-0.0028358056424497057,0.957
-0.002557192269538759,0.958
-0.0019719908655371834,0.959
-0.0011354404581561989,0.96
-0.00015909772472651442,0.961
0.0008009420626866633,0.962
0.001593600221329453,0.963
0.0021281932410987417,0.964
0.002389118950755407,0.965
0.002412347952529483,0.966
0.002247891831366509,0.967
0.0019169815001236564,0.968
0.0013962643350388041,0.969
0.0006550474835668674,0.97
-0.00029658466136229313,0.971
-0.0013932867089299847,0.972
-0.002524331433618943,0.973
-0.0035490033909523155,0.974
-0.0043211231765923385,0.975
-0.004730036994289567,0.976
-0.004740170311570499,0.977
-0.004397251121045196,0.978
-0.0038007834460313185,0.979
-0.003066833550200806,0.98
-0.002293549020757051,0.981
-0.0015438171754272457,0.982
-0.0008535959198899361,0.983
-0.0002478882455884436,0.984
0.00024996753703918995,0.985
0.000615620625084133,0.986
0.0008245783806453959,0.987
0.0008529575671734616,0.988
0.0006868847174357053,0.989
0.00035754246188854155,0.99
-1.3369643388301275e-05,0.991
-0.00021371826899403793,0.992
-1.5819147634266952e-05,0.993
0.0007162344247048367,0.994
0.001957911332870915,0.995
0.0035322776616462715,0.996
0.005173239925962801,0.997
0.0065964201190667395,0.998
0.007563388809047489,0.999
0.007933844412110506,1.0
0.00767306463995983,1.001
0.006817360445106452,1.002
0.005448928414348826,1.003
0.003699663487087067,1.004
0.0017474754587842195,1.005
-0.00021854175560474866,1.006
-0.00203023187510771,1.007
-0.0035542866497555716,1.008
-0.004722140272332012,1.009
-0.00556181713548767,1.01
-0.006175047998737889,1.011
-0.00665816795981896,1.012
-0.007026493277093523,1.013
-0.007203370146020781,1.014
-0.007068487007804602,1.015
-0.0065142638819525875,1.016
-0.005502673066500153,1.017
-0.004114831208006671,1.018
-0.0025373651988797492,1.019
-0.0009853338850081587,1.02
0.00037258146523003107,1.021
0.0014550633369679901,1.022
0.0022746115020331865,1.023
0.002911478594071406,1.024
0.0034690467020532635,1.025
0.004024354865700498,1.026
0.004585304895380825,1.027
0.005071156984985236,1.028
0.005324611741557616,1.029
0.005154768810152983,1.03
0.004414409585750607,1.031
0.0030884407105668354,1.032
0.0013321861695150044,1.033
-0.0005689067081567814,1.034
-0.0022892296735082212,1.035
-0.00356167664435738,1.036
-0.004247522091495102,1.037
-0.004346211698897174,1.038
-0.0039458624289340155,1.039
-0.003161047126520798,1.04
-0.0020993357517101498,1.041
-0.0008553852860540562,1.042
0.0004701346754209125,1.043
0.001739350349923545,1.044
0.0027846292016785847,1.045
0.0034663753329062094,1.046
0.0037176273712167486,1.047
0.003536668087379505,1.048
0.0029670975199031597,1.049
0.0021008572788974935,1.05
0.001074215410075339,1.051
2.3947136793598733e-05,1.052
-0.0009670893926015646,1.053
-0.0018869505781720958,1.054
-0.002760193443637605,1.055
-0.0035803103429984007,1.056
-0.004257591377225678,1.057
-0.004629478904624495,1.058
-0.004529617293120359,1.059
-0.0038642211451507583,1.06
-0.0026499724139191906,1.061
-0.001013487615303921,1.062
0.0008332098507165999,1.063
0.002631467967065581,1.064
0.004113185924348052,1.065
0.005038988985608524,1.066
0.005241897171573621,1.067
0.004661482388904799,1.068
0.0033709409643813146,1.069
0.0015928378150427626,1.07
-0.0003353141573585557,1.071
-0.0020530921053452697,1.072
-0.003283523893874564,1.073
-0.003902549273418082,1.074
-0.0039402633588045705,1.075
-0.003526253534079415,1.076
-0.002820054797737837,1.077
-0.0019620466817201103,1.078
-0.0010603452848099847,1.079
-0.00019923977651274376,1.08
0.0005534312217120183,1.081
0.0011403741289037733,1.082
0.0015085424171744936,1.083
0.0016180509672353786,1.084
0.0014739375538987375,1.085
0.001155117641979975,1.086
0.000805183733636858,1.087
0.0005786617391233264,1.088
0.0005722753694872469,1.089
0.0007880512621724942,1.09
0.0011423286171883846,1.091
0.0014986363352296752,1.092
0.0017162398626114099,1.093
0.0016993869091036255,1.094
0.0014191357761914655,1.095
0.0009131737682214564,1.096
0.00027683164580963586,1.097
-0.00036035261580337816,1.098
-0.0008695519870396721,1.099
-0.0011625737628935971,1.1
-0.0012294820923779528,1.101
-0.001146199248446569,1.102
-0.0010353016033436142,1.103
-0.0010031788692669021,1.104
-0.0010848442834656515,1.105
-0.001223008978472945,1.106
-0.00130567591431558,1.107
-0.0012415414721003231,1.108
-0.0010117945392009808,1.109
-0.00066862094596295,1.11
-0.0003009566937712144,1.111
5.24343017286245e-06,1.112
0.00020465626528275589,1.113
0.0003165188071695324,1.114
0.0004074409134319415,1.115
0.0005330729594637721,1.116
0.0006873248734349108,1.117
0.000808058249052955,1.118
0.0008303472668041381,1.119
0.0007341156648347303,1.12
0.0005481052214449689,1.121
0.00032355169832164903,1.122
0.00011884014577445896,1.123
-5.784180932564359e-06,1.124
-1.8797041105848465e-05,1.125
4.378617192191896e-05,1.126
8.919770551992298e-05,1.127
2.8747337511190987e-05,1.128
-0.00017185710639272298,1.129
-0.0004893782500031733,1.13
-0.0008667027495708271,1.131
-0.001231309632746653,1.132
-0.0015087792257046677,1.133
-0.0016437892647510912,1.134
-0.0016231938491109849,1.135
-0.0014836801836425953,1.136
-0.001294390057950638,1.137
-0.0011269089787154505,1.138
-0.0010307203820468897,1.139
-0.0010244341382368675,1.14
-0.0010983077036150768,1.141
-0.0012087199741280534,1.142
-0.0012717321601182021,1.143
-0.0011830811299308893,1.144
-0.000856986875849893,1.145
-0.00025592992042140767,1.146
0.0005976113203496527,1.147
0.0016293053849920965,1.148
0.002737613606861538,1.149
0.0038101255227126463,1.15
0.004717934519563274,1.151
0.005313120415534502,1.152
0.005451112548393189,1.153
0.0050309076024958104,1.154
0.004040245927042905,1.155
0.002583554212053037,1.156
0.0008691513685421192,1.157
-0.0008386902362434143,1.158
-0.0022867580502890636,1.159
-0.0032969821319825685,1.16
-0.0037917875491210932,1.161
-0.003772502859004125,1.162
-0.0032845935395569652,1.163
-0.002405860357958686,1.164
-0.00125411435683359,1.165
1.6492777089917558e-05,1.166
0.0012335201263427033,1.167
0.002214378596122224,1.168
0.002767614231499271,1.169
0.002729639299464833,1.17
0.002048378869773827,1.171
0.0008487658563728283,1.172
-0.0005924825116584892,1.173
-0.001959947879694187,1.174
-0.0030239181562310017,1.175
-0.0036985169013691835,1.176
-0.004019353001748453,1.177
-0.004080224534791586,1.178
-0.00397460759355114,1.179
-0.0037623360572677767,1.18
-0.003459519903723452,1.181
-0.0030429055121659887,1.182
-0.002464328426640149,1.183
-0.001686572175530003,1.184
-0.0007317874021904666,1.185
0.0003079410122611014,1.186
0.0013120225753758662,1.187
0.002179662589215162,1.188
0.0028566486373742556,1.189
0.0033368939311681214,1.19
0.003639865132306326,1.191
0.003785417788227646,1.192
0.003781036264806473,1.193
0.0036186245531099085,1.194
0.0032835476446937,1.195
0.0027701141980503515,1.196
0.0020888410197060017,1.197
0.0012638402630844646,1.198
0.0003319317143243303,1.199
-0.0006477282815943813,1.2
-0.0015873514733263732,1.201
-0.002385825182387715,1.202
-0.002955081535336223,1.203
-0.003236614685324905,1.204
-0.003205931839696897,1.205
-0.0028673470372824854,1.206
-0.002242678063494127,1.207
-0.0013790308223111344,1.208
-0.00038144056085424763,1.209
0.0005787365543806967,1.21
0.001314699453566027,1.211
0.0017056767023409499,1.212
0.0017566714732043544,1.213
0.0016036355964179853,1.214
0.0014527317024093443,1.215
0.0014716656524059255,1.216
0.0017003922873994816,1.217
0.0020419958506868326,1.218
0.002325928977323582,1.219
0.0023928176123006865,1.22
0.0021474275557196044,1.221
0.0015637718793972428,1.222
0.000671339633186176,1.223
-0.0004512726920616833,1.224
-0.0016749651233284788,1.225
-0.0028294965876123172,1.226
-0.003740089810792518,1.227
-0.004280997525583613,1.228
-0.004412006016426271,1.229
-0.00417337111965392,1.23
-0.0036564334024211643,1.231
-0.002977384260974727,1.232
-0.0022506138725924005,1.233
-0.0015604802296936583,1.234
-0.0009477778133141489,1.235
-0.0004148357293236419,1.236
5.479505795924522e-05,1.237
0.00047498345766201327,1.238
0.0008576878752185315,1.239
0.0012344611508776518,1.24
0.0016647742409970764,1.241
0.0021975958551565975,1.242
0.002806834264812411,1.243
0.0033694797915278505,1.244
0.0037094613056819453,1.245
0.003671701492147837,1.246
0.003191074219300334,1.247
0.0023292519282490575,1.248
0.0012620960141874447,1.249
0.0002229254768339946,1.25
-0.0005763696371462869,1.251
-0.0010167055526208765,1.252
-0.0011023881586355163,1.253
-0.000937862912657736,1.254
-0.000674267899119715,1.255
-0.00045533511858952965,1.256
-0.0003767254245476449,1.257
-0.0004751402046000063,1.258
-0.0007495274529032132,1.259
-0.001179190762143609,1.26
-0.0017166695558492406,1.261
-0.0022772187069291833,1.262
-0.0027441726411131977,1.263
-0.002986888128714606,1.264
-0.0028910156239173976,1.265
-0.002399882001461075,1.266
-0.0015455335420688518,1.267
-0.0004492440216664474,1.268
0.0007049442345285139,1.269
0.0017116730333938885,1.27
0.002395986668092057,1.271
0.0026636449600724796,1.272
0.002525384013480039,1.273
0.0020841402215396087,1.274
0.0014971577687271514,1.275
0.000936316694891481,1.276
0.0005598819324191996,1.277
0.00048183732032187687,1.278
0.0007325679232796345,1.279
0.0012360349988461048,1.28
0.0018262485701443863,1.281
0.002298662860608297,1.282
0.0024734393283503704,1.283
0.0022449551080081613,1.284
0.0016010011388270305,1.285
0.0006079986579310539,1.286
-0.0006211632589615014,1.287
-0.0019438104079376837,1.288
-0.003186792219040568,1.289
-0.004162506666734227,1.29
-0.004707459943038222,1.291
-0.00471871091069003,1.292
-0.004178244918776359,1.293
-0.0031662232684881346,1.294
-0.001852661181481004,1.295
-0.0004539608659486848,1.296
0.0008301155023486564,1.297
0.001855718395519483,1.298
0.0025313172329759145,1.299
0.0027941116980381166,1.3
0.00260032320994622,1.301
0.001952692451463624,1.302
0.0009479166813069264,1.303
-0.0002203881498452856,1.304
-0.00133039707850002,1.305
-0.002213598369925245,1.306
-0.002787873493616477,1.307
-0.003047816076636917,1.308
-0.00304170204866688,1.309
-0.0028396831038514313,1.31
-0.0025015437097394935,1.311
-0.002058484154380204,1.312
-0.0015045982359031993,1.313
-0.0008113191008204479,1.314
2.7960681139797753e-05,1.315
0.0009679963215365801,1.316
0.0019251012982722652,1.317
0.002809309498338773,1.318
0.0035443212510440367,1.319
0.0040660806984770875,1.32
0.0043106626841606065,1.321
0.004211176389573043,1.322
0.0037213385192624016,1.323
0.002854291179295194,1.324
0.0017005785558543804,1.325
0.00041525250247122594,1.326
-0.0008160395519599195,1.327
-0.001826877723857648,1.328
-0.002506172328094549,1.329
-0.0027883730975672926,1.33
-0.002627863889242549,1.331
-0.0020103592180026335,1.332
-0.0009915914122443706,1.333
0.0002905343085253386,1.334
0.0016484787941218636,1.335
0.0028902026714780708,1.336
0.003848314635155975,1.337
0.004396394415645088,1.338
0.00446468783644592,1.339
0.004049817862381453,1.34
0.003209990965703062,1.341
0.0020547027790551206,1.342
0.0007269077779092704,1.343
-0.000636635234452504,1.344
-0.0019492858424853213,1.345
-0.0031793063124543187,1.346
-0.004305917837370469,1.347
-0.005273967628005343,1.348
-0.005988540930525664,1.349
-0.006341020392704843,1.35
-0.006245166440192671,1.351
-0.005670136272283088,1.352
-0.004655349345337871,1.353
-0.0033064505856616267,1.354
-0.0017894258315292663,1.355
-0.0003166361852153018,1.356
0.0008990667344470381,1.357
0.0017104326468407015,1.358
0.002082440251957332,1.359
0.0020949492273439466,1.36
0.0019028988597596884,1.361
0.0016707757897541054,1.362
0.0015061043096636073,1.363
0.0014233058859294925,1.364
0.0013585251780719775,1.365
0.0012266694752153151,1.366
0.000983926028864507,1.367
0.0006552927100878391,1.368
0.0003184268060888678,1.369
6.393699773022977e-05,1.37
-4.5656053730589806e-05,1.371
3.6696356779287946e-06,1.372
0.00018742941352109359,1.373
0.00046204371814011143,1.374
0.0007765209714610356,1.375
0.0010874341679669869,1.376
0.0013736428453648075,1.377
0.0016297494977496952,1.378
0.0018456109702722693,1.379
0.001989862121843877,1.38
0.0020005767111177823,1.381
0.001798467743703147,1.382
0.0013281098352242243,1.383
0.0005978091970698736,1.384
-0.0003025540915910869,1.385
-0.0012110959495393139,1.386
-0.0019340622270228934,1.387
-0.002303715221118265,1.388
-0.002229987541095126,1.389
-0.0017302005169267005,1.39
-0.000932309123634156,1.391
-4.177561540133896e-05,1.392
0.0007189902924068333,1.393
0.001161213820087033,1.394
0.0011612459494047844,1.395
0.0006809588776910423,1.396
-0.00023389064413129664,1.397
-0.0014680157798555992,1.398
-0.0028360414463515947,1.399
-0.004076653976623608,1.4
-0.004878844098176343,1.401
-0.004959730397627175,1.402
-0.004176869509277511,1.403
-0.0026085914998094277,1.404
-0.0005359579268370717,1.405
0.0016571435427802583,1.406
0.0035958660902662113,1.407
0.004993669495990621,1.408
0.005694236366954395,1.409
0.0056788142206089165,1.41
0.005035381678014833,1.411
0.003910818612770995,1.412
0.0024802704027496914,1.413
0.0009395668061843687,1.414
-0.0004986151145696097,1.415
-0.0016348839780992177,1.416
-0.0023439646597299153,1.417
-0.00262410367930245,1.418
-0.002591621609355271,1.419
-0.0024179719692769314,1.42
-0.002251868596326052,1.421
-0.002177834008375413,1.422
-0.0022162554603342966,1.423
-0.0023333931472980084,1.424
-0.0024507480687694567,1.425
-0.0024676661485102153,1.426
-0.0022997804611015896,1.427
-0.0019121263999975042,1.428
-0.00132159880990898,1.429
-0.0005734361789625941,1.43
0.00027935345871242507,1.431
0.0011800651338423997,1.432
0.002065395019353668,1.433
0.0028638623748569424,1.434
0.003497858594796943,1.435
0.003898055886533841,1.436
0.0040296498828809426,1.437
0.003907935205757631,1.438
0.0035845311404235987,1.439
0.0031114883332737943,1.44
0.0025109199645523416,1.441
0.001776021457101204,1.442
0.0009000524002347799,1.443
-9.125680103560507e-05,1.444
-0.0011221129538197122,1.445
-0.0020737421019190786,1.446
-0.002810383859077028,1.447
-0.0032128814518857887,1.448
-0.00321498362220116,1.449
-0.002825025858180121,1.45
-0.00212055371526639,1.451
-0.0012268977961465847,1.452
-0.00029371971316417605,1.453
0.0005232995839525844,1.454
0.0010777544663661892,1.455
0.0012569560630636997,1.456
0.0010134469455741018,1.457
0.0003794076191456921,1.458
-0.0005448778750465244,1.459
-0.0016105161806503974,1.46
-0.002634542159890883,1.461
-0.0034220390173572714,1.462
-0.0038139713471342447,1.463
-0.003741218452238196,1.464
-0.0032387278441562677,1.465
-0.0024159253079426347,1.466
-0.001419768142855613,1.467
-0.0003984558015814148,1.468
0.000543595245941754,1.469
0.0013784821444575647,1.47
0.0021454296375496935,1.471
0.002899249826940545,1.472
0.003651568372384921,1.473
0.004337677387954103,1.474
0.004815621652192176,1.475
0.004904300098672152,1.476
0.0044524040362749285,1.477
0.0033983724870752206,1.478
0.0017970801969573284,1.479
-0.00018310286485776216,1.48
-0.002285632977602451,1.481
-0.004209934196823106,1.482
-0.005667020242600093,1.483
-0.006433189768392883,1.484
-0.006388363033909381,1.485
-0.005524555210348451,1.486
-0.003933097321139649,1.487
-0.0018027373513567015,1.488
0.0005724654509156695,1.489
0.0028188669850022323,1.49
0.004567757709420424,1.491
0.005558600735616716,1.492
0.005692840745639348,1.493
0.005025357215195384,1.494
0.0037338616255261476,1.495
0.002084639880355162,1.496
0.00038932643317744704,1.497
-0.001043626538641811,1.498
-0.0019669977154943056,1.499
-0.002256699512002867,1.5
-0.001946590505033072,1.501
-0.001216282307075147,1.502
-0.0003295944445163174,1.503
0.0004541187851640777,1.504
0.0009452161676861539,1.505
0.0010446105751042655,1.506
0.0007543767291852276,1.507
0.0001917712488513855,1.508
-0.0004381349216581617,1.509
-0.0009257758374210931,1.51
-0.0011408404106140948,1.511
-0.0010632657046553366,1.512
-0.0007536621558340446,1.513
-0.00029663434301792563,1.514
0.00023632429459542368,1.515
0.0007877232731995274,1.516
0.0012954918292935776,1.517
0.0016825072187863798,1.518
0.0018689167605678686,1.519
0.0017909069366985005,1.52
0.0014096761566777033,1.521
0.0007161583701995075,1.522
-0.0002650741662075319,1.523
-0.0014680132207794219,1.524
-0.0027714573801880136,1.525
-0.003997518875733646,1.526
-0.004939433090156342,1.527
-0.005416109277975742,1.528
-0.005334541194927415,1.529
-0.004727825218336587,1.53
-0.003736843699197895,1.531
-0.002542582252826398,1.532
-0.0013017932122703338,1.533
-0.00012409465443923717,1.534
0.000919788014142735,1.535
0.0017846010578030868,1.536
0.0024384613870614123,1.537
0.00284685741415996,1.538
0.002975662684705039,1.539
0.00283667261290252,1.54
0.0025249065852169157,1.541
0.0021870676111154035,1.542
0.0019527751817586749,1.543
0.0018830594889255453,1.544
0.0019468999579955399,1.545
0.002036370097909332,1.546
0.0020293171874587153,1.547
0.0018692463492148545,1.548
0.0016000807050361348,1.549
0.0013194253387245054,1.55
0.001094758410112148,1.551
0.000919300154933148,1.552
0.0007299303956118565,1.553
0.00045978490340722417,1.554
8.94228967356383e-05,1.555
-0.0003368525873285292,1.556
-0.0007388320797102449,1.557
-0.0010464001579554261,1.558
-0.0012323575191606835,1.559
-0.0013152817460232286,1.56
-0.0013333663768273724,1.561
-0.0013164069583045015,1.562
-0.001284645800631415,1.563
-0.0012642369263446973,1.564
-0.0012927403677936511,1.565
-0.0014091079262521468,1.566
-0.0016344872958163157,1.567
-0.0019525330310345976,1.568
-0.002298911000442921,1.569
-0.0025658334509443713,1.57
-0.0026265682267741673,1.571
-0.002381974294679966,1.572
-0.00180434809877271,1.573
-0.000941521621135564,1.574
0.00010625118791250806,1.575
0.0012022276954295095,1.576
0.00218768284781228,1.577
0.0029069952984756915,1.578
0.0032338846894832654,1.579
0.0030924154600898515,1.58
0.0024821827130219855,1.581
0.0015037913713577544,1.582
0.0003470284578500717,1.583
-0.0007705531200547041,1.584
-0.0016742255493264891,1.585
-0.0022760951420090474,1.586
-0.0025803859364492447,1.587
-0.0026471154008897947,1.588
-0.002535101403820447,1.589
-0.0022656891730174185,1.59
-0.0018256734794219668,1.591
-0.0011915827941477324,1.592
-0.00035529908071483873,1.593
0.0006488307229986953,1.594
0.001714297207537217,1.595
0.0026614630572069442,1.596
0.0033004254337439787,1.597
0.00352551312237546,1.598
0.003365274050420899,1.599
0.002962955581196786,1.6
0.002518887486522532,1.601
0.0022190102427700393,1.602
0.0021635599753216162,1.603
0.002325813554372697,1.604
0.0025691077456520624,1.605
0.0027111627736070175,1.606
0.0025914913297453842,1.607
0.0021184473662582827,1.608
0.0012939312320410835,1.609
0.0001993760680965465,1.61
-0.001052218341498923,1.611
-0.00235134106227452,1.612
-0.003588764409280389,1.613
-0.0046385765254118305,1.614
-0.005363024002492436,1.615
-0.005654322139842171,1.616
-0.00548865036298051,1.617
-0.0049421353357532736,1.618
-0.00415446781562111,1.619
-0.0032739032019669296,1.62
-0.0024170323023017413,1.621
-0.001657360996557659,1.622
-0.0010414615341984444,1.623
-0.000610745407207273,1.624
-0.0003951792411450859,1.625
-0.00037414265257711897,1.626
-0.00044954955609856313,1.627
-0.00046737394937774145,1.628
-0.00026924636540207346,1.629
0.0002543542710971976,1.63
0.0011212115969525594,1.631
0.0022451391004940876,1.632
0.003467141234228975,1.633
0.004604868465030787,1.634
0.005483938783170523,1.635
0.005950088037309307,1.636
0.005894094734940263,1.637
0.005289452864017729,1.638
0.004204015294886203,1.639
0.0027724799876898765,1.64
0.0011514573189635533,1.641
-0.000510749462407117,1.642
-0.002075379706919279,1.643
-0.0034074237813790176,1.644
-0.004387207141376318,1.645
-0.004931650385206459,1.646
-0.00500876612756636,1.647
-0.004650285623802831,1.648
-0.003954836302246603,1.649
-0.003051627066236779,1.65
-0.0020405815526472796,1.651
-0.0009718761096622966,1.652
0.00011806876899101733,1.653
0.0011633390454675538,1.654
0.0020604655919218696,1.655
0.002697169018691762,1.656
0.0030000112108655684,1.657
0.002976576004142613,1.658
0.0027218309501753557,1.659
0.0023732032172515314,1.66
0.0020454461465800274,1.661
0.0017947660082144993,1.662
0.0016192692316856663,1.663
0.0014713015444288231,1.664
0.0012727349277688966,1.665
0.0009398772938469161,1.666
0.0004160811416563257,1.667
-0.000299523500878606,1.668
-0.0011378136711250124,1.669
-0.0019740901119334963,1.67
-0.0026729271806352805,1.671
-0.003130538307019417,1.672
-0.003289458571789757,1.673
-0.0031373729167874158,1.674
-0.002705033491575202,1.675
-0.002068185686387012,1.676
-0.0013458071614661992,1.677
-0.0006815098193567494,1.678
-0.00020650271903137509,1.679
8.026425507678965e-06,1.68
-2.117297071369767e-05,1.681
-0.00020341900593538417,1.682
-0.00040986266418360247,1.683
-0.0005172726781107565,1.684
-0.00045732040043451133,1.685
-0.00024954069950258473,1.686
2.597993362254591e-06,1.687
0.0001625251353083164,1.688
0.00014099045199739724,1.689
-5.811245647080051e-05,1.69
-0.0003629006943802918,1.691
-0.0006823572612416706,1.692
-0.0009283987263380091,1.693
-0.0010213697536801756,1.694
-0.0009022373909490878,1.695
-0.0005380853845824959,1.696
8.472083797917996e-05,1.697
0.0009474990893294574,1.698
0.0019671560728935587,1.699
0.002988960904137214,1.7
0.0038245189801139282,1.701
0.004314858797917754,1.702
0.004381717799463628,1.703
0.0040445435286607795,1.704
0.0033968895299384886,1.705
0.002551391771771065,1.706
0.0015995021484473157,1.707
0.0006174210094339102,1.708
-0.00031707301221936004,1.709
-0.0011291408867978503,1.71
-0.001763202670277241,1.711
-0.0021992706623541504,1.712
-0.002452083021129102,1.713
-0.0025465323971480937,1.714
-0.0024985690138202114,1.715
-0.0023243427049718856,1.716
-0.002064109982865453,1.717
-0.0017908362011694965,1.718
-0.0015912219460262583,1.719
-0.0015290238849019673,1.72
-0.0016072015244691827,1.721
-0.001751481637808731,1.722
-0.0018296965835410007,1.723
-0.0017003148087461084,1.724
-0.0012765990673492375,1.725
-0.0005797892344462916,1.726
0.00026198007105379103,1.727
0.0010752910207375791,1.728
0.0017121692248628524,1.729
0.002084198236300735,1.73
0.002166579227058486,1.731
0.001995128181511197,1.732
0.0016490744994452533,1.733
0.0012166965695144412,1.734
0.0007717238253492018,1.735
0.0003734937974879105,1.736
7.875938025151964e-05,1.737
-5.3261077334652466e-05,1.738
1.34444628038607e-05,1.739
0.00024654551422027284,1.74
0.0005352455687375483,1.741
0.0007353192267532811,1.742
0.000734775606639346,1.743
0.0005000727707921097,1.744
7.581738616009017e-05,1.745
-0.0004617068990537461,1.746
-0.0010537758554148705,1.747
-0.0016637169832152286,1.748
-0.0022432888930962788,1.749
-0.0027122204007036326,1.75
-0.0029722695903499933,1.751
-0.002930503420147963,1.752
-0.00251824702934417,1.753
-0.0017172472913046645,1.754
-0.0005973026896083818,1.755
0.0006596564132354857,1.756
0.0017942940719159405,1.757
0.0025660167133125184,1.758
0.0028416005891890904,1.759
0.0026179603890341113,1.76
0.0019903241104653377,1.761
0.0011039466258765786,1.762
0.00011429538149773777,1.763
-0.000834178946277591,1.764
-0.0016118920805393987,1.765
-0.0021004592312099503,1.766
-0.002196178445388497,1.767
-0.0018318327498402362,1.768
-0.0010090142122445088,1.769
0.00018480447368570552,1.77
0.001586844764337632,1.771
0.0029876823180626007,1.772
0.004163955829320334,1.773
0.004908807981363175,1.774
0.005066586262078186,1.775
0.004572126069847211,1.776
0.003482969192334796,1.777
0.0019824010694371955,1.778
0.0003230704383407548,1.779
-0.0012686318406949278,1.78
-0.002655298687204416,1.781
-0.0037856203298004152,1.782
-0.0046549032607024,1.783
-0.005259424728586069,1.784
-0.005559512530756144,1.785
-0.005482958774402173,1.786
-0.004977630077353531,1.787
-0.004066095777678619,1.788
-0.002862682149287562,1.789
-0.0015507110380005096,1.79
-0.0003335753252989382,1.791
0.0006274662086585975,1.792
0.001267926477340699,1.793
0.0016288984201230704,1.794
0.001811521751807656,1.795
0.0019138475452044872,1.796
0.001985128876633742,1.797
0.0020196948023231665,1.798
0.001995737643268148,1.799
0.0019198446918032184,1.8
0.0018305138019084769,1.801
0.0017645762482605858,1.802
0.0017200018226147308,1.803
0.001650751113605916,1.804
0.001510977403755009,1.805
0.0013062283034960941,1.806
0.001086459664339976,1.807
0.0008864565687584806,1.808
0.0006888135598028479,1.809
0.000444905946660905,1.81
0.00011463360900007893,1.811
-0.0003061506986661368,1.812
-0.0007754871548783463,1.813
-0.0012209963755026824,1.814
-0.0015722394621309683,1.815
-0.0017853430282960654,1.816
-0.0018471933082767089,1.817
-0.0017594604819280517,1.818
-0.0015158483723722522,1.819
-0.0010936472538875168,1.82
-0.00047179203133468426,1.821
0.0003313500447895125,1.822
0.0012283647882668659,1.823
0.002075244925731264,1.824
0.0027286325533578772,1.825
0.003096124398831922,1.826
0.0031327731079772566,1.827
0.0028112896245074755,1.828
0.002116183841904432,1.829
0.0010667986186938623,1.83
-0.0002621937791408027,1.831
-0.0017485004012667532,1.832
-0.003238002509948185,1.833
-0.0045408057463312305,1.834
-0.0054398218452093635,1.835
-0.005758237175713798,1.836
-0.005447564331675456,1.837
-0.004613686385598341,1.838
-0.0034684610138158247,1.839
-0.0022462211343695164,1.84
-0.0011298963932452378,1.841
-0.0002277799003297901,1.842
0.00041571588943967115,1.843
0.0008150031768533868,1.844
0.0010339064845371795,1.845
0.0011546690348688575,1.846
0.0012387636360161195,1.847
0.0013082913901214398,1.848
0.0013593277949269756,1.849
0.0013812120827453142,1.85
0.001363501415857372,1.851
0.001302954708756265,1.852
0.0012131802297908195,1.853
0.001130307616355697,1.854
0.0011175603353112636,1.855
0.0012524271431855977,1.856
0.0015780252871129422,1.857
0.002052659076031532,1.858
0.0025470113666541737,1.859
0.0028918881763292403,1.86
0.002945972090752307,1.861
0.00264989253115548,1.862
0.002042516189575528,1.863
0.0012386773429839903,1.864
0.00038831465786488134,1.865
-0.0003630513736753938,1.866
-0.0009054340098679129,1.867
-0.0011892241903703796,1.868
-0.0012332636404895326,1.869
-0.0011050754181495199,1.87
-0.0008988529326295524,1.871
-0.0007231716950391444,1.872
-0.0006698876394693594,1.873
-0.0007761308248895648,1.874
-0.0010221746352779195,1.875
-0.0013553169054838028,1.876
-0.0017040420748780953,1.877
-0.00198991709448885,1.878
-0.0021517733563514965,1.879
-0.002163013482344969,1.88
-0.0020347737563351518,1.881
-0.0018074142474861735,1.882
-0.0015249195896663032,1.883
-0.0012120274292140617,1.884
-0.0008763896317924613,1.885
-0.0005226614025505598,1.886
-0.00015599988935634937,1.887
0.00022018053389496914,1.888
0.0005988963738276168,1.889
0.0009665297869661914,1.89
0.0013053894303241172,1.891
0.0015883227589754954,1.892
0.0017709630243210861,1.893
0.0018003072613994257,1.894
0.0016386439341860475,1.895
0.0012846627682496056,1.896
0.0007837494875928443,1.897
0.00022044150930091133,1.898
-0.0003143146128401641,1.899
-0.0007517031292551,1.9
-0.0010426424950251158,1.901
-0.0011462725554310922,1.902
-0.0010316847667197018,1.903
-0.0006891487321597938,1.904
-0.00014098618320768165,1.905
0.0005518798523580618,1.906
0.0012875717366839868,1.907
0.0019370842249018948,1.908
0.0023797691394998174,1.909
0.0025317732370607566,1.91
0.002351839819335702,1.911
0.0018463425751379541,1.912
0.0010813048081648893,1.913
0.00018390058307621903,1.914
-0.0006819036475557542,1.915
-0.0013635279646443132,1.916
-0.0017652038011163526,1.917
-0.0018706363298206061,1.918
-0.0017500154795633501,1.919
-0.0015421051979610072,1.92
-0.0014018135016099292,1.921
-0.0014497526345283412,1.922
-0.00174642947703141,1.923
-0.0022763211686990083,1.924
-0.002941942634164367,1.925
-0.00357515124954649,1.926
-0.003970318274045426,1.927
-0.003948506916593269,1.928
-0.003428023524026496,1.929
-0.0024534541624312944,1.93
-0.0011732819111698145,1.931
0.00021494325892196367,1.932
0.0015250007178748556,1.933
0.0026134912401320595,1.934
0.0033810312855149065,1.935
0.0037765086148477474,1.936
0.003813076281110761,1.937
0.0035728049524200328,1.938
0.003188007676325308,1.939
0.0028151061796269088,1.94
0.0026114651381845687,1.941
0.0026910008288901052,1.942
0.00305788652581841,1.943
0.0035734517199286896,1.944
0.003993778937439344,1.945
0.004065092119129428,1.946
0.003632543664073972,1.947
0.002704433463774503,1.948
0.0014378968102623302,1.949
5.5641964413174955e-05,1.95
-0.0012555605717686931,1.951
-0.0024015958650793596,1.952
-0.0033800371749431804,1.953
-0.004249217989759705,1.954
-0.005076064462340142,1.955
-0.005878538245441191,1.956
-0.006605056806233079,1.957
-0.007155956688621913,1.958
-0.007412625814927379,1.959
-0.007264594856761171,1.96
-0.006644110710229287,1.961
-0.005555918586345642,1.962
-0.0040823554853247025,1.963
-0.0023595037486402407,1.964
-0.0005379963928224993,1.965
0.0012429115797248024,1.966
0.002855927805584927,1.967
0.0041839009634630836,1.968
0.005140238317533488,1.969
0.005700999941377399,1.97
0.00591403628703996,1.971
0.0058744946781984116,1.972
0.00568211593479555,1.973
0.005401327494630643,1.974
0.005057619672930722,1.975
0.004674968775600604,1.976
0.004298424955799146,1.977
0.003962038653855073,1.978
0.0036392372715354135,1.979
0.003233476621974249,1.98
0.002619666310657418,1.981
0.0017059995500415697,1.982
0.0004773752600267148,1.983
-0.0009977099701763271,1.984
-0.0025856213924825818,1.985
-0.004119934273163951,1.986
-0.0054404408164349695,1.987
-0.006422458401779002,1.988
-0.006982625964348787,1.989
-0.007064976005202916,1.99
-0.006632727621130674,1.991
-0.005679045761316714,1.992
-0.00424369345632318,1.993
-0.0024301119522940574,1.994
-0.0004191161914366094,1.995
0.001536474232269327,1.996
0.003146149230326436,1.997
0.004139884201687923,1.998
0.004333815710871358,1.999
0.0036877615355167394,2.0
0.0023438817836192527,2.001
0.000619021403956599,2.002
-0.001078782394271072,2.003
-0.0023805104019286633,2.004
-0.0030692090698425665,2.005
-0.0031294945142219246,2.006
-0.0027048759222468017,2.007
-0.0019919309331012784,2.008
-0.0011501686671123122,2.009
-0.0002765782560794554,2.01
0.0005580951348796429,2.011
0.0012612814128741745,2.012
0.001720608348459104,2.013
0.0018565956703301763,2.014
0.0016720616676428376,2.015
0.001260473089238823,2.016
0.0007742869810895074,2.017
0.00037778842355958096,2.018
0.0002023272778777999,2.019
0.0003026807337521753,2.02
0.0006337740262125231,2.021
0.0010780313671446967,2.022
0.0015074078291478085,2.023
0.0018406214150150217,2.024
0.0020710790836941688,2.025
0.002247154171197518,2.026
0.002413075312828363,2.027
0.0025623323268677573,2.028
0.002649745050915456,2.029
0.002641613260269472,2.03
0.002539029733765259,2.031
0.0023522327905842917,2.032
0.002065045103312127,2.033
0.0016239322214325488,2.034
0.0009507113809043866,2.035
-1.811326702365643e-05,2.036
-0.0012649224166575513,2.037
-0.002646376479306755,2.038
-0.003921922858316774,2.039
-0.004840486982031841,2.04
-0.005231341941063668,2.041
-0.005062134106287872,2.042
-0.004451771633385222,2.043
-0.0036375555026346004,2.044
-0.002901194347413161,2.045
-0.0024705619314142587,2.046
-0.002437708247441104,2.047
-0.002723286236794996,2.048
-0.003092985824178921,2.049
-0.0032417893943850963,2.05
-0.0029338233296180263,2.051
-0.002115078315077398,2.052
-0.0009184475872938964,2.053
0.00042328730973920477,2.054
0.0016669529751317284,2.055
0.002606784535441736,2.056
0.003102712280405344,2.057
0.0030946130283856905,2.058
0.0025926246747288518,2.059
0.0016667683074754398,2.06
0.0004590121768280317,2.061
-0.000809644379992404,2.062
-0.0018734701301479446,2.063
-0.0024865315700763058,2.064
-0.0024849332756705462,2.065
-0.0018240433116967166,2.066
-0.0005739466814720822,2.067
0.0011244741716754957,2.068
0.0031071813331443898,2.069
0.005196772072111932,2.07
0.00718303310234059,2.071
0.008826192139673636,2.072
0.009895808111440396,2.073
0.01021182259039662,2.074
0.009668976238280681,2.075
0.008251846779680392,2.076
0.006055164498902268,2.077
0.003299159798642719,2.078
0.0002998126002239758,2.079
-0.0026071299495098684,2.08
-0.005132134439669988,2.081
-0.007056238874232247,2.082
-0.00823512690258036,2.083
-0.00860971589158551,2.084
-0.008229092599359002,2.085
-0.007262067246013995,2.086
-0.00597092583974129,2.087
-0.004660826566992336,2.088
-0.0036232759792919136,2.089
-0.0030628030914610065,2.09
-0.003019614472263198,2.091
-0.0033437281303629464,2.092
-0.0037489656616000516,2.093
-0.003917495335331331,2.094
-0.0036136587334155254,2.095
-0.002772221305869842,2.096
-0.0015187543291953116,2.097
-0.00010264497991889547,2.098
0.0012177146244143524,2.099
0.0022644297068611947,2.1
0.002963262731667509,2.101
0.0033212616234673813,2.102
0.0034006055723647243,2.103
0.003306111716091628,2.104
0.003171034934998189,2.105
0.0031191413319940123,2.106
0.003213105741657852,2.107
0.003427025598236275,2.108
0.0036661098187927787,2.109
0.003814242549418459,2.11
0.0037717438962719244,2.111
0.0034692062165120525,2.112
0.002871153685465678,2.113
0.001989161319573718,2.114
0.0009008764868042078,2.115
-0.0002568138015918965,2.116
-0.0013264711444949413,2.117
-0.0021657158535406977,2.118
-0.0026673146799301604,2.119
-0.002777778910968181,2.12
-0.002515826908605341,2.121
-0.0019735595291989908,2.122
-0.0012824031527980592,2.123
-0.000563336850056295,2.124
9.876641943396425e-05,2.125
0.0006430084335079081,2.126
0.0009923291994318694,2.127
0.0010292772406863846,2.128
0.0006469627372569351,2.129
-0.00015367352001948245,2.13
-0.0012276450888973542,2.131
-0.002343949930968568,2.132
-0.0032782828037841495,2.133
-0.0038781561413515414,2.134
-0.004066462377563125,2.135
-0.003812560322910673,2.136
-0.003130398383911677,2.137
-0.0020948499184893937,2.138
-0.0008393283660509271,2.139
0.000461690583412651,2.14
0.0016201881809799232,2.141
0.0024786200058037654,2.142
0.002953818812900181,2.143
0.0030468083763943517,2.144
0.0028147925103807992,2.145
0.002343578916850636,2.146
0.0017493497869690623,2.147
0.0011887294493861964,2.148
0.0008272829890881267,2.149
0.000756458257929483,2.15
0.0009185869435864839,2.151
0.001113209744088326,2.152
0.0011018245969834338,2.153
0.0007442286545377906,2.154
6.41716394790462e-05,2.155
-0.0007869489012277181,2.156
-0.0016077717260229206,2.157
-0.0022088175462176163,2.158
-0.0024527435825439565,2.159
-0.002282518152318196,2.16
-0.0017401036840727232,2.161
-0.0009679686745166869,2.162
-0.00017484807019359073,2.163
0.00043827900772657537,2.164
0.0007563513389600965,2.165
0.0007811160048603782,2.166
0.0005999051897161571,2.167
0.00032501117801851925,2.168
4.771001966989837e-05,2.169
-0.00016893179115482645,2.17
-0.00026602560536310234,2.171
-0.0001738925935268231,2.172
0.00015553612855341892,2.173
0.0006932813636353672,2.174
0.001322594624892632,2.175
0.0018815560226295223,2.176
0.002210083153535629,2.177
0.0021914827565769324,2.178
0.0017942316803883584,2.179
0.0010737446104498438,2.18
0.0001239856315960911,2.181
-0.0009594916894835782,2.182
-0.002074938777075505,2.183
-0.0030994516677716453,2.184
-0.00388907066151568,2.185
-0.0043052078653239975,2.186
-0.00426470205458422,2.187
-0.003786264643723484,2.188
-0.0030074529786880432,2.189
-0.0021544248232280784,2.19
-0.001457064477311396,2.191
-0.0010485002121195955,2.192
-0.0009112596491167243,2.193
-0.0008904585439049064,2.194
-0.0007599072449770344,2.195
-0.0003133686890344904,2.196
0.0005576270889312844,2.197
0.0018207153294082963,2.198
0.0032975513264478524,2.199
0.004706693810501861,2.2
0.005756892704546876,2.201
0.0062564967840662,2.202
0.006180789553294735,2.203
0.005655027143871155,2.204
0.004863988010018405,2.205
0.00395601586713011,2.206
0.0030047767554069803,2.207
0.002028275432633444,2.208
0.0010285475054303667,2.209
2.445612006493299e-05,2.21
-0.0009445387036852923,2.211
-0.0018409039183015438,2.212
-0.0026413950525729277,2.213
-0.0033252551331281067,2.214
-0.003852392326030069,2.215
-0.004153896069542416,2.216
-0.004154941392247617,2.217
-0.003817736247388432,2.218
-0.003181695559185518,2.219
-0.0023793315184117898,2.22
-0.0016044895526775398,2.221
-0.0010450640329506468,2.222
-0.00081397927033983,2.223
-0.0009060987458250518,2.224
-0.0012136904032173075,2.225
-0.0016023004667893549,2.226
-0.0019783656387633687,2.227
-0.002287708587867896,2.228
-0.002477900313166162,2.229
-0.00248814921460325,2.23
-0.002280030847829341,2.231
-0.0018786917733472264,2.232
-0.0013763736517055623,2.233
-0.0008820657236204983,2.234
-0.00046089519634860156,2.235
-0.0001066850045000121,2.236
0.0002565905385510452,2.237
0.000752416201924896,2.238
0.0014908192067910769,2.239
0.0024864152563940207,2.24
0.0036196945894028066,2.241
0.004672047935633645,2.242
0.0054014463226458535,2.243
0.005614738003400224,2.244
0.0052206402042890175,2.245
0.004260026655106768,2.246
0.0029052549690987673,2.247
0.0014221641243232811,2.248
0.00010465884276991927,2.249
-0.0008032046172687355,2.25
-0.0011834993504543857,2.251
-0.001078297530524394,2.252
-0.0006535050778069701,2.253
-0.00012101700185322543,2.254
0.0003417711552395351,2.255
0.0006383057756562922,2.256
0.0007396483441851865,2.257
0.0006477060049326794,2.258
0.0003870617259443373,2.259
1.6072345543651538e-05,2.26
-0.00038000840247396115,2.261
-0.0007213781521656224,2.262
-0.0009668002579756677,2.263
-0.0011188864061285968,2.264
-0.0011994918038680837,2.265
-0.0012227568933836014,2.266
-0.0012000253593479075,2.267
-0.0011745805673411473,2.268
-0.0012321775337833462,2.269
-0.0014529859940616288,2.27
-0.0018477381708945759,2.271
-0.0023374120670476913,2.272
-0.0027872350401399264,2.273
-0.0030705466183806526,2.274
-0.0031222052002437975,2.275
-0.0029535636725202007,2.276
-0.0026352839022593623,2.277
-0.002254984360652097,2.278
-0.001863963754614439,2.279
-0.0014524458506085568,2.28
-0.0009689619747587548,2.281
-0.00037081524350394886,2.282
0.00031601551704502214,2.283
0.0009690528808729331,2.284
0.0014022603064481345,2.285
0.0014481186283512198,2.286
0.0010569799827399543,2.287
0.00035760464532813015,2.288
-0.00037610778205157523,2.289
-0.0008349145390186941,2.29
-0.000787079087916589,2.291
-0.00014075033362105787,2.292
0.001047675120736673,2.293
0.0025961907351669243,2.294
0.004241863607696984,2.295
0.005706411193219069,2.296
0.006755126010475099,2.297
0.0072217736914218286,2.298
0.007013704493053511,2.299
0.0061210703660902754,2.3
0.004636803679238692,2.301
0.002774211035349666,2.302
0.0008356825433622516,2.303
-0.0008858868317364322,2.304
-0.002207883731784126,2.305
-0.0030872840101360244,2.306
-0.003578759596754587,2.307
-0.003779451257950678,2.308
-0.0038033492089407294,2.309
-0.0037733120080266492,2.31
-0.0037973041782316543,2.311
-0.003918729365981105,2.312
-0.004075067219220701,2.313
-0.004128504881395477,2.314
-0.003968880758921706,2.315
-0.003590591592034108,2.316
-0.003081064549493326,2.317
-0.0025634726542262095,2.318
-0.0021447812765641636,2.319
-0.0018743175376048481,2.32
-0.001709184085030072,2.321
-0.0015117469214944246,2.322
-0.001101342898509696,2.323
-0.00032965054583230586,2.324
0.0008640016083153871,2.325
0.002427594057648868,2.326
0.004194070074274183,2.327
0.005904967698856639,2.328
0.007269888254296549,2.329
0.008044862066292863,2.33
0.008099895421206411,2.331
0.00745732521968565,2.332
0.006272966025260791,2.333
0.004749354106716069,2.334
0.0030348708991124,2.335
0.0011863156803004992,2.336
-0.0007930841670561052,2.337
-0.0028972656129009587,2.338
-0.005073657825304675,2.339
-0.0071873923805543145,2.34
-0.009020588113585368,2.341
-0.010329040893356511,2.342
-0.010912850204795025,2.343
-0.010654832173771993,2.344
-0.009534659974055377,2.345
-0.007631799051892243,2.346
-0.005112406572895113,2.347
-0.00220442495378804,2.348
0.0008262977576444462,2.349
0.0037002107889173162,2.35
0.006164279942477198,2.351
0.008036445500385965,2.352
0.009214424852543635,2.353
0.009644763464446064,2.354
0.009304344241518332,2.355
0.008234628291082161,2.356
0.006587707382515571,2.357
0.0046097978422582845,2.358
0.0025657230226415824,2.359
0.0006780130855095496,2.36
-0.0008888326678082848,2.361
-0.0020283066290369555,2.362
-0.0026975297562974983,2.363
-0.0029327185859702905,2.364
-0.0028540546428949577,2.365
-0.002621390680526549,2.366
-0.002363225045872617,2.367
-0.002143007692740679,2.368
-0.001970707768772081,2.369
-0.001825650904786917,2.37
-0.0016715370230313078,2.371
-0.0014686582455630504,2.372
-0.0011924492043780452,2.373
-0.0008535670853208927,2.374
-0.0005074611159966195,2.375
-0.00023372568314315457,2.376
-8.089922912447194e-05,2.377
-2.7558883544505465e-05,2.378
-6.150137880445295e-06,2.379
4.047488182343064e-05,2.38
0.00011645727023181922,2.381
0.00015854123965021585,2.382
6.645268863445257e-05,2.383
-0.00022460330808928534,2.384
-0.0006865442662927069,2.385
-0.0012100225916948934,2.386
-0.0016633289552100451,2.387
-0.0019300142060137263,2.388
-0.0019122141058410863,2.389
-0.001546715220161995,2.39
-0.0008431937389698515,2.391
9.963787433646024e-05,2.392
0.0011319513762305423,2.393
0.0021192180309309743,2.394
0.0029752181384500353,2.395
0.003639142654197341,2.396
0.004037590157575773,2.397
0.004081953982927929,2.398
0.0037035950832990973,2.399
0.002885867867531541,2.4
0.0016754412044532434,2.401
0.0001901653090313326,2.402
-0.0013798136599337972,2.403
-0.00280212725392094,2.404
-0.003860416503165791,2.405
-0.004411510502700149,2.406
-0.004422173103928817,2.407
-0.003972819435966886,2.408
-0.0032158615140466078,2.409
-0.002301817476058582,2.41
-0.0013120896697630113,2.411
-0.0002454694433690638,2.412
0.0009159622079996452,2.413
0.0021130727000984247,2.414
0.0031837194828963,2.415
0.003931506694310857,2.416
0.004216158769142082,2.417
0.003983608909378111,2.418
0.0032504741376604904,2.419
0.002104895709518353,2.42
0.0007098744379644536,2.421
-0.0007383465102932152,2.422
-0.0020685585109624072,2.423
-0.0031530145308944694,2.424
-0.003895659298744269,2.425
-0.004235037917432319,2.426
-0.004167209992993498,2.427
-0.0037517272418635924,2.428
-0.003087014296633577,2.429
-0.00228447130311438,2.43
-0.0014484941230867888,2.431
-0.0006517082223682079,2.432
7.307143731692957e-05,2.433
0.0007122544089393435,2.434
0.001250280913923524,2.435
0.0016678151802794524,2.436
0.0019497370186309921,2.437
0.0020850090386959367,2.438
0.0020495552103840893,2.439
0.0017962481896811923,2.44
0.001292192283795044,2.441
0.0005790261711447142,2.442
-0.00021467116487285925,2.443
-0.000920505008927649,2.444
-0.0013883745448411168,2.445
-0.001509108083550812,2.446
-0.001205456458348082,2.447
-0.0004462348028602643,2.448
0.0007133009031013138,2.449
0.002132725932057601,2.45
0.00363392894103003,2.451
0.00503636052629566,2.452
0.006176172101606399,2.453
0.006928975281596933,2.454
0.007218100241057073,2.455
0.0069921379794701385,2.456
0.006184905783395146,2.457
0.004708692359392373,2.458
0.002526042567898089,2.459
-0.0002475004497299945,2.46
-0.0033083410091462825,2.461
-0.006229488694113282,2.462
-0.008576884413900502,2.463
-0.010019074272668894,2.464
-0.010407190409134064,2.465
-0.00981518466962608,2.466
-0.008511218843938698,2.467
-0.006851943270400018,2.468
-0.005158495566471118,2.469
-0.0036431498810592156,2.47
-0.0023967698255221988,2.471
-0.0014204657931006217,2.472
-0.0006844781766066651,2.473
-0.00016717750213724277,2.474
0.00015888819978804157,2.475
0.0003609091924085148,2.476
0.0005575263412836814,2.477
0.0008956036716292792,2.478
0.0015010140839800327,2.479
0.002428565269762901,2.48
0.003630493691439214,2.481
0.00495713788546696,2.482
0.0061848376959830614,2.483
0.007052792814106071,2.484
0.00732170476258488,2.485
0.006844563415749442,2.486
0.0056041853394287015,2.487
0.003720796032002733,2.488
0.0014440646563283026,2.489
-0.0008871495191426999,2.49
-0.002916102725350934,2.491
-0.00434966086446797,2.492
-0.0050312048082953465,2.493
-0.004980494975884392,2.494
-0.004377070424697006,2.495
-0.0034959823995570688,2.496
-0.002623613088123803,2.497
-0.001960447944029985,2.498
-0.0015308736362574453,2.499
-0.0011726973539453267,2.5
-0.0006497951456943127,2.501
0.00018676906407383393,2.502
0.0013071995274386815,2.503
0.0025186833667628834,2.504
0.0035550689718589316,2.505
0.004201127750036572,2.506
0.004390997359858626,2.507
0.004206229448909153,2.508
0.003782051949703008,2.509
0.00321595434374286,2.51
0.0025340195133798475,2.511
0.001693883546065697,2.512
0.0006093398805707141,2.513
-0.0007859887108414466,2.514
-0.0024543360480427656,2.515
-0.004212774274629966,2.516
-0.00576419804816468,2.517
-0.006771473999022569,2.518
-0.006948536014752193,2.519
-0.006158965372578897,2.52
-0.004486674580482312,2.521
-0.002225147406099044,2.522
0.00021660117433005681,2.523
0.002428794867372768,2.524
0.004074908858334416,2.525
0.0049128761273754,2.526
0.004802116588319519,2.527
0.003733703684389299,2.528
0.0018756792055985955,2.529
-0.00040184474888919127,2.53
-0.002567419389345037,2.531
-0.004059055509308288,2.532
-0.00445677075640981,2.533
-0.0036074691416713893,2.534
-0.001664546601237759,2.535
0.0009388019762724351,2.536
0.0035853904432097596,2.537
0.005650815779137233,2.538
0.0067020467338551794,2.539
0.006609578903377011,2.54
0.005512989498103582,2.541
0.0036882033535196347,2.542
0.001427437846519194,2.543
-0.0010102629001962824,2.544
-0.0033889120344789505,2.545
-0.005456489517470289,2.546
-0.006936175080011527,2.547
-0.007594624052411047,2.548
-0.007345785878373666,2.549
-0.006300414091769396,2.55
-0.004727233017880746,2.551
-0.0029697711014118754,2.552
-0.0013620364703074489,2.553
-0.0001497669750019045,2.554
0.0005724174730708811,2.555
0.0008776375124030283,2.556
0.0009476907465541224,2.557
0.0009662208389006869,2.558
0.0010556199269358656,2.559
0.0012941215254426376,2.56
0.001748667528292472,2.561
0.002467001580703678,2.562
0.003436283235152299,2.563
0.004540225244740301,2.564
0.005545327272336283,2.565
0.006147728154587271,2.566
0.006092157330687722,2.567
0.005301841367523063,2.568
0.003916764099463027,2.569
0.0022154560894480824,2.57
0.0004949669725805218,2.571
-0.0010145632456974906,2.572
-0.0021791961825586353,2.573
-0.0029454854767531017,2.574
-0.003304938004633045,2.575
-0.003272407039485251,2.576
-0.002892563425563155,2.577
-0.0022549551987861077,2.578
-0.0014924250391600733,2.579
-0.000757938535840068,2.58
-0.0001929300672109512,2.581
0.00010365375302810614,2.582
0.00010114061284120248,2.583
-0.00016132113356537683,2.584
-0.0006063041276464605,2.585
-0.0011607886594587821,2.586
-0.0017904490081480451,2.587
-0.002510723254379044,2.588
-0.003348861952780949,2.589
-0.00426442673883462,2.59
-0.0050924988192940345,2.591
-0.00556795871969616,2.592
-0.0054211603395094956,2.593
-0.004484689170636301,2.594
-0.0027713642315715134,2.595
-0.0005181232235996165,2.596
0.0018307556260943009,2.597
0.003755743108633954,2.598
0.004897387134481521,2.599
0.005236835047008034,2.6
0.00506084215391892,2.601
0.0047541879143732,2.602
0.004588384261633125,2.603
0.004612615072689957,2.604
0.004669074593951393,2.605
0.0045092284244207526,2.606
0.003935715279403487,2.607
0.002893741291547204,2.608
0.0015024063242965859,2.609
2.4719955227581467e-05,2.61
-0.001235537289668294,2.611
-0.0020529943906090514,2.612
-0.0023427346168816117,2.613
-0.0021740394535692416,2.614
-0.0017618630466709985,2.615
-0.0013957150610413042,2.616
-0.001286082992723976,2.617
-0.0014276848974174047,2.618
-0.0015983344149861313,2.619
-0.0015000733234923694,2.62
-0.0009488479860150688,2.621
1.0512281684394997e-05,2.622
0.0011230084522550865,2.623
0.0020237939597850304,2.624
0.002350075329908187,2.625
0.0018523394142952391,2.626
0.0004907569095167888,2.627
-0.0015389083063339776,2.628
-0.0038786998052741553,2.629
-0.0061334882563686705,2.63
-0.007968200886115715,2.631
-0.009144107159265967,2.632
-0.009516796352193217,2.633
-0.009008678509022728,2.634
-0.00756551209070819,2.635
-0.005154143811175852,2.636
-0.0018389430926630443,2.637
0.0021055779627353107,2.638
0.006137841256816994,2.639
0.009547655099027387,2.64
0.011704409706629905,2.641
0.01230392249654818,2.642
0.011471082463390904,2.643
0.009671855715656067,2.644
0.007477797295200072,2.645
0.005322792143618651,2.646
0.0034012330250507814,2.647
0.0017296834731782827,2.648
0.0002558174686756534,2.649
-0.0010925187127902838,2.65
-0.002397434075248138,2.651
-0.0037171665702169314,2.652
-0.005036236024576584,2.653
-0.006249005349298647,2.654
-0.007196317178280376,2.655
-0.007723799777433966,2.656
-0.00771988544085379,2.657
-0.0071283197492841175,2.658
-0.005950351030562203,2.659
-0.004241163560926425,2.66
-0.0021019870215058835,2.661
0.0003217872825977804,2.662
0.002822153922025485,2.663
0.00510611813629542,2.664
0.006829423153783248,2.665
0.007700486712563477,2.666
0.007580535649955891,2.667
0.006524977306268615,2.668
0.004780832862404054,2.669
0.0027470860173977683,2.67
0.0008644511809838897,2.671
-0.0005451246185419027,2.672
-0.0013809566268786233,2.673
-0.0017458749590337347,2.674
-0.0018490997778212222,2.675
-0.0018990525768042357,2.676
-0.002039437518936251,2.677
-0.002338686081657397,2.678
-0.0027927646414131835,2.679
-0.0033118519639224065,2.68
-0.0037324306348409846,2.681
-0.003896317277772985,2.682
-0.0037365264690324335,2.683
-0.003286533689109107,2.684
-0.0026274903165555362,2.685
-0.001847294232893094,2.686
-0.001035666903312434,2.687
-0.00028502072093324044,2.688
0.00033115675842627126,2.689
0.0008127715195843378,2.69
0.001274702738810884,2.691
0.0018970912330741525,2.692
0.0028064005846839633,2.693
0.003985185673486476,2.694
0.005239231824719956,2.695
0.006209976899728521,2.696
0.006458369118061312,2.697
0.0056315922834195165,2.698
0.0036496339422806556,2.699
0.0008002921540807588,2.7
-0.0023282191105831324,2.701
-0.005050127903169185,2.702
-0.006832940030546265,2.703
-0.007477912858079303,2.704
-0.00712134769137801,2.705
-0.006075319580207171,2.706
-0.004644616313222774,2.707
-0.0030144545965826667,2.708
-0.0012256771310870211,2.709
0.0007628127588516807,2.71
0.002961641571197619,2.711
0.005268327480387487,2.712
0.00746078093633737,2.713
0.0092473439852948,2.714
0.010333455199459468,2.715
0.0104818121797372,2.716
0.009558699601339763,2.717
0.00756909435622704,2.718
0.004679886354619074,2.719
0.001216728247972427,2.72
-0.00237380128447636,2.721
-0.005601019136617206,2.722
-0.008054092985863529,2.723
-0.009539419859359032,2.724
-0.010147097251909145,2.725
-0.01018545855377588,2.726
-0.010008229076262793,2.727
-0.009826433810451488,2.728
-0.009598477331234059,2.729
-0.009051107836706316,2.73
-0.007826363922917823,2.731
-0.005676636075168096,2.732
-0.0026012689337192208,2.733
0.0011211930017836335,2.734
0.004985781921397885,2.735
0.008366063953467786,2.736
0.01064777623131173,2.737
0.011381893658082468,2.738
0.010435168527022844,2.739
0.00806957390518754,2.74
0.00487134148122766,2.741
0.0015512906519150685,2.742
-0.0012623433049226097,2.743
-0.003160969445352293,2.744
-0.0040133643647496595,2.745
-0.003949634098697874,2.746
-0.0032830447335553538,2.747
-0.002381135521463056,2.748
-0.0015125735067095525,2.749
-0.0007312211773487831,2.75
0.00012857749511920892,2.751
0.001333819802769503,2.752
0.003077937435270416,2.753
0.005327682808036521,2.754
0.007759873021834213,2.755
0.009822300080168276,2.756
0.010907595164965152,2.757
0.010590331491938004,2.758
0.00879627290621871,2.759
0.005779543859483827,2.76
0.0019510349726654767,2.761
-0.0022981742145918947,2.762
-0.0066776905394316365,2.763
-0.010947772965119779,2.764
-0.014765240017267495,2.765
-0.01754546481165417,2.766
-0.018528714347044447,2.767
-0.01710726712895739,2.768
-0.013186463609723514,2.769
-0.00728782127561604,2.77
-0.00036157916427278564,2.771
0.00649346870815049,2.772
0.012244412918152531,2.773
0.016071068192981666,2.774
0.01749038713856479,2.775
0.016425443180029215,2.776
0.013150266872590721,2.777
0.008144669622442525,2.778
0.0019947850777871524,2.779
-0.004595992298919594,2.78
-0.01078239847705464,2.781
-0.015668916756532255,2.782
-0.018512016888471202,2.783
-0.018900927178090686,2.784
-0.016833616260900613,2.785
-0.012713962300170816,2.786
-0.007275299942432775,2.787
-0.0013999033572474587,2.788
0.004108157746184658,2.789
0.008680692397916344,2.79
0.012034307788464527,2.791
0.014134831958734714,2.792
0.015090346831000244,2.793
0.015017660472711834,2.794
0.013993147357009184,2.795
0.012134885152340858,2.796
0.009679591163170702,2.797
0.006909793309311603,2.798
0.004010302129659332,2.799
0.0010327154596331365,2.8
-0.00199957636440069,2.801
-0.0049576075321103455,2.802
-0.0075550951475373196,2.803
-0.009413810221272575,2.804
-0.010208865358652031,2.805
-0.009803529029508628,2.806
-0.00829072810610162,2.807
-0.005944488976660552,2.808
-0.0031519657721911717,2.809
-0.0003777792298539855,2.81
0.0018575371557695238,2.811
0.003051579543403845,2.812
0.0028722934452024246,2.813
0.0013223926016936434,2.814
-0.0011857108715949056,2.815
-0.003908828725068806,2.816
-0.006014152255524727,2.817
-0.006897577843071395,2.818
-0.0063808580500379405,2.819
-0.004665539536849055,2.82
-0.0021646858347963514,2.821
0.0006150372515293799,2.822
0.003143791323175232,2.823
0.004974282039609476,2.824
0.0058636185150870174,2.825
0.005836918655745323,2.826
0.00516593824052113,2.827
0.004244348173077705,2.828
0.003394313575314537,2.829
0.0027381661703625737,2.83
0.0022092307331013443,2.831
0.0016537540939496782,2.832
0.0009437727732914224,2.833
4.396661727682511e-05,2.834
-0.000975842226694971,2.835
-0.001960427004804296,2.836
-0.0026973105932189966,2.837
-0.002951227959566555,2.838
-0.002534065954213444,2.839
-0.0014041091757544166,2.84
0.0002792787651749065,2.841
0.002188793906894543,2.842
0.003921206296509843,2.843
0.005119578780374584,2.844
0.005582081224149384,2.845
0.005285194484336114,2.846
0.004321077308589533,2.847
0.0028123219762733066,2.848
0.0008628134532865756,2.849
-0.0014017417645754743,2.85
-0.003758937182367271,2.851
-0.005927933379978678,2.852
-0.007692423769689157,2.853
-0.008935589581490128,2.854
-0.009568899686928287,2.855
-0.009477343953299853,2.856
-0.008541191587894296,2.857
-0.00670945710971643,2.858
-0.004085564848428081,2.859
-0.0009559397667429786,2.86
0.0023182568490633976,2.861
0.005467544730424876,2.862
0.008315584677982452,2.863
0.010579879607163788,2.864
0.011738989637619704,2.865
0.01122120644309314,2.866
0.008824208047992792,2.867
0.004979250733134567,2.868
0.0006124352634993756,2.869
-0.0032549848751294613,2.87
-0.005883032229493451,2.871
-0.007013950195131296,2.872
-0.006877200169938141,2.873
-0.0060216784103012365,2.874
-0.0050300786726285435,2.875
-0.004252528946552351,2.876
-0.0037322963778609088,2.877
-0.003334209129362308,2.878
-0.0029011444800451738,2.879
-0.002325478143475158,2.88
-0.0015722380744041618,2.881
-0.0006944989262117818,2.882
0.00017983900442385107,2.883
0.0009060050019688413,2.884
0.0014042171975291327,2.885
0.0017315334956027077,2.886
0.002090288101027251,2.887
0.0027327635883158917,2.888
0.0038154525962444995,2.889
0.005322619757301977,2.89
0.007112638467957518,2.891
0.009000856939395122,2.892
0.0107588474226977,2.893
0.012049306825899612,2.894
0.012441946014553187,2.895
0.011569809554254294,2.896
0.00928456526050743,2.897
0.005658924629434115,2.898
0.000885613544203984,2.899
-0.004779902467764032,2.9
-0.010966156380891013,2.901
-0.01704789012311642,2.902
-0.0220639840416048,2.903
-0.024913005726659297,2.904
-0.024822968096730916,2.905
-0.021715105508774844,2.906
-0.01616225491143661,2.907
-0.009106053558008786,2.908
-0.0016184462326276098,2.909
0.0052552852212626785,2.91
0.010658794990119983,2.911
0.014103698399249529,2.912
0.015554169957567983,2.913
0.01531860479412185,2.914
0.013831716244559204,2.915
0.011500191498192053,2.916
0.008686731671602617,2.917
0.005757010546653279,2.918
0.0030716532734664215,2.919
0.0009209898511021488,2.92
-0.0005262990932535735,2.921
-0.0012456070160912357,2.922
-0.0013638860681130778,2.923
-0.0011464474937520892,2.924
-0.0009557623895259563,2.925
-0.0011686246170214212,2.926
-0.0020428938712314516,2.927
-0.003590702982503947,2.928
-0.005554189911618746,2.929
-0.007502262395651355,2.93
-0.008974895457186256,2.931
-0.009593207362759752,2.932
-0.009097593348647681,2.933
-0.007336337697784344,2.934
-0.0042652716507709,2.935
6.263453080926859e-06,2.936
0.005139925220333373,2.937
0.010518458560535255,2.938
0.01528515351808789,2.939
0.018478714966922646,2.94
0.019227147770906443,2.941
0.016997524811077445,2.942
0.01185806013560947,2.943
0.004590656250585058,2.944
-0.003474803475638325,2.945
-0.010827902990365191,2.946
-0.01615457078313065,2.947
-0.0186223186644286,2.948
-0.018058655273133023,2.949
-0.014962562410593312,2.95
-0.01030692029844411,2.951
-0.005219655748021915,2.952
-0.0006811382322713567,2.953
0.0026675693827311535,2.954
0.004578991554790988,2.955
0.005152346630725919,2.956
0.004717508758189648,2.957
0.0036763479648159202,2.958
0.002359697068774548,2.959
0.0009499159430763204,2.96
-0.0005186926406930169,2.961
-0.002079173853799024,2.962
-0.0036628658216414614,2.963
-0.004926418186247022,2.964
-0.005271639291514425,2.965
-0.004107348910526776,2.966
-0.001160138774195171,2.967
0.0033528917085934346,2.968
0.008733416277454293,2.969
0.013935110291521509,2.97
0.01775054126581117,2.971
0.019044254020481915,2.972
0.01703330461773555,2.973
0.011572399328640105,2.974
0.003356796691222386,2.975
-0.006106192958372972,2.976
-0.01486923747897367,2.977
-0.021133796082690032,2.978
-0.023737260438609086,2.979
-0.022337597398956424,2.98
-0.01733893279432259,2.981
-0.009721858561816314,2.982
-0.0008958323416061952,2.983
0.007453112087687305,2.984
0.013629621020487297,2.985
0.01636074001299059,2.986
0.015241430239238492,2.987
0.010905056896949636,2.988
0.004785408732721661,2.989
-0.0014062321150789866,2.99
-0.006221560286063603,2.991
-0.008770277716803807,2.992
-0.008726447826771946,2.993
-0.006231487719788859,2.994
-0.0018424431900468268,2.995
0.003506087706421117,2.996
0.008655926143131107,2.997
0.012546781698255297,2.998
0.014525202692626868,2.999
0.01440481548442096,3.0
0.012317092637386529,3.001
0.00854108798545857,3.002
0.0033973675337873226,3.003
-0.0027456792959010446,3.004
-0.00936780855670709,3.005
-0.015737982056094092,3.006
-0.02098682010909511,3.007
-0.02427050580879912,3.008
-0.024989001430461687,3.009
-0.02299252491270976,3.01
-0.01862149921544908,3.011
-0.012528209619304245,3.012
-0.005434810470544084,3.013
0.002023797642321399,3.014
0.009363157338688408,3.015
0.016242867647255927,3.016
0.022358277986068723,3.017
0.027243987565605258,3.018
0.030176963011264546,3.019
0.030341153916532866,3.02
0.02714337904756057,3.021
0.02048358470670344,3.022
0.010902622297602714,3.023
-0.00043558796644477363,3.024
-0.011952346455346086,3.025
-0.02199294175356292,3.026
-0.02917390420985323,3.027
-0.032615268654516444,3.028
-0.03204218836126114,3.029
-0.027829250737602652,3.03
-0.020955954718506628,3.031
-0.012768916147196023,3.032
-0.0045965906652287265,3.033
0.0025902601424425,3.034
0.00829819937397599,3.035
0.012394429412444114,3.036
0.014913581965675014,3.037
0.015937879780871394,3.038
0.015597684917714657,3.039
0.014188246360819865,3.04
0.012266386299868799,3.041
0.010506761297590617,3.042
0.009330229696439114,3.043
0.008628500773780464,3.044
0.007851296737902488,3.045
0.006392453767750981,3.046
0.004000178207169364,3.047
0.0009303657833894537,3.048
-0.002239702984928952,3.049
-0.00494291648291515,3.05
-0.006842737272186552,3.051
-0.007844036286345193,3.052
-0.007984925413465183,3.053
-0.007364438472794614,3.054
-0.006131088781648742,3.055
-0.0044373217601074095,3.056
-0.0023439667991420536,3.057
0.00020318475874615464,3.058
0.0031825412000475906,3.059
0.006150704290936875,3.06
0.008100705985663464,3.061
0.007811645244255709,3.062
0.00450949035211064,3.063
-0.001617042667893611,3.064
-0.009347515056810458,3.065
-0.016822652535950316,3.066
-0.02220695408027643,3.067
-0.024270456979703786,3.068
-0.022579247609660832,3.069
-0.017358365705415876,3.07
-0.00937399532713563,3.071
6.571999938415757e-05,3.072
0.009261958689455362,3.073
0.01655194212957375,3.074
0.020765729532713256,3.075
0.021473994525515207,3.076
0.018999503514867188,3.077
0.01422801018035598,3.078
0.008279397276548221,3.079
0.0021971914633340237,3.08
-0.0031912708600252025,3.081
-0.007237136643408882,3.082
-0.009378179020881918,3.083
-0.009133440680296171,3.084
-0.006237273817442539,3.085
-0.0008662981546152172,3.086
0.006175180898505089,3.087
0.013453892399887916,3.088
0.01912737497329658,3.089
0.021396758070691184,3.09
0.019128150013016605,3.091
0.012320807501305115,3.092
0.0021527761106012763,3.093
-0.009294062700038777,3.094
-0.01945895001173488,3.095
-0.025860373118858568,3.096
-0.026717909189123545,3.097
-0.0214960571471596,3.098
-0.011266476262833584,3.099
0.0013289669998616275,3.1
0.01274012823804186,3.101
0.019626668903556438,3.102
0.01993345862421367,3.103
0.013486921533447905,3.104
0.001969311373314663,3.105
-0.011634489827359512,3.106
-0.023938117391187133,3.107
-0.032076872176596646,3.108
-0.034295491419142,3.109
-0.03016515574404368,3.11
-0.020606608979726358,3.111
-0.007719137119443995,3.112
0.00568177947432428,3.113
0.016727351417857035,3.114
0.02319789588179682,3.115
0.024143684144115777,3.116
0.02017448944681329,3.117
0.013163983086264736,3.118
0.005491531964911975,3.119
-0.000707681283701675,3.12
-0.003931311390346001,3.121
-0.003374245814075185,3.122
0.001097650299383947,3.123
0.008924918777206194,3.124
0.018820957700002486,3.125
0.028856737474571417,3.126
0.036740665463082585,3.127
0.04026465755933085,3.128
0.037854998847678976,3.129
0.029081419932666164,3.13
0.014871298556514157,3.131
-0.002649017700541302,3.132
-0.02056503456536041,3.133
-0.03579653011366481,3.134
-0.045849770694168436,3.135
-0.04940573869252432,3.136
-0.04651857249773952,3.137
-0.03843424511937264,3.138
-0.02712743567868325,3.139
-0.014724359370015741,3.14
-0.0030747749852763013,3.141
0.006375558617578327,3.142
0.012549963129739626,3.143
0.014804021385139502,3.144
0.013132485198806693,3.145
0.00829116099482269,3.146
0.0016456295467850584,3.147
-0.0051834208102192955,3.148
-0.010717442029513104,3.149
-0.013942433842387749,3.15
-0.014419124709711342,3.151
-0.012152706321218678,3.152
-0.0074178329367229024,3.153
-0.0007255526158520008,3.154
0.007107871174696403,3.155
0.014960061708705985,3.156
0.021536586115306778,3.157
0.025617140810359554,3.158
0.026379833661383065,3.159
0.023644231278854535,3.16
0.017894097677005047,3.161
0.010176550476705614,3.162
0.001983183225829161,3.163
-0.004968409134968754,3.164
-0.009105099689607052,3.165
-0.009376218451974488,3.166
-0.005506367414243082,3.167
0.0018248927437972237,3.168
0.010838921716151844,3.169
0.018819119302043195,3.17
0.02292203953282075,3.171
0.02134609061239156,3.172
0.013996648318096836,3.173
0.0022413304487473233,3.174
-0.011811339641191364,3.175
-0.025886083029145083,3.176
-0.03774540607974651,3.177
-0.045249536253215934,3.178
-0.04662346347315483,3.179
-0.04096749144635982,3.18
-0.028660136432677404,3.181
-0.011418379036907804,3.182
0.0078859249430771,3.183
0.025637309862331474,3.184
0.038228844601332176,3.185
0.04303618600435905,3.186
0.039244030481824746,3.187
0.02813815204511032,3.188
0.012684164526542337,3.189
-0.0034689596010190385,3.19
-0.017147142124597167,3.191
-0.02644050562002704,3.192
-0.030814732646216737,3.193
-0.030711002433094783,3.194
-0.027029367059942404,3.195
-0.020720558065544136,3.196
-0.012569668401276888,3.197
-0.0032545250363051974,3.198
0.006379940902930729,3.199
0.015141429482403778,3.2
0.021698297350354095,3.201
0.025103821954853806,3.202
0.02524788353419867,3.203
0.02285707675427914,3.204
0.01901774723836607,3.205
0.014627038392102875,3.206
0.010188684594363676,3.207
0.006012612313525985,3.208
0.0025609215165553188,3.209
0.0005878503691835566,3.21
0.0009020267192238028,3.211
0.0038469764610579308,3.212
0.008775199367591817,3.213
0.013885582720573577,3.214
0.01671836517562776,3.215
0.015233126576784516,3.216
0.008781590802023533,3.217
-0.0017900676373706344,3.218
-0.01473898117536778,3.219
-0.027945881884855504,3.22
-0.03915075414528937,3.221
-0.04621956784525682,3.222
-0.04762349709461997,3.223
-0.043018355688760654,3.224
-0.0334532016825513,3.225
-0.02084305910229252,3.226
-0.007148649558265382,3.227
0.00602465765791253,3.228
0.0173726321321731,3.229
0.025825047693103065,3.23
0.030654031166468684,3.231
0.03157247533239731,3.232
0.02868848150252545,3.233
0.022436730836407903,3.234
0.013601983593677758,3.235
0.003326312657333528,3.236
-0.007021137109397167,3.237
-0.016000826709558453,3.238
-0.022163407537631862,3.239
-0.024192786185435286,3.24
-0.021314144245864627,3.241
-0.013699947508771066,3.242
-0.0025297735810350976,3.243
0.010200055091896103,3.244
0.021930215020187376,3.245
0.029973050605339856,3.246
0.032215642577637815,3.247
0.027854779665783785,3.248
0.017830493980513205,3.249
0.00466921520132739,3.25
-0.008377027661537268,3.251
-0.01848040401648083,3.252
-0.023945542739327832,3.253
-0.02418848916107559,3.254
-0.019384998008733077,3.255
-0.010300823525651556,3.256
0.0016246440738962385,3.257
0.014203951554779727,3.258
0.024762317958523072,3.259
0.030918344078160208,3.26
0.031505351182966865,3.261
0.026840167526074266,3.262
0.018143714830364394,3.263
0.006819007711255373,3.264
-0.005749018328777605,3.265
-0.01799850586859927,3.266
-0.028176005691796322,3.267
-0.03468685481231141,3.268
-0.03642668253228664,3.269
-0.03288631069340835,3.27
-0.02435481413728352,3.271
-0.012325087204239946,3.272
0.0004694178178568516,3.273
0.010849002576089312,3.274
0.016455898856899517,3.275
0.0167734100281435,3.276
0.013386863250841992,3.277
0.00921761685830134,3.278
0.006943334191831804,3.279
0.007474684075975037,3.28
0.009463706073228714,3.281
0.010172127247519069,3.282
0.007096454270728894,3.283
-0.0006447729826852877,3.284
-0.011728718575218774,3.285
-0.022978022403292546,3.286
-0.030592365039534435,3.287
-0.03173909535559003,3.288
-0.025644468530328157,3.289
-0.01380139271157816,3.29
0.000529207461705238,3.291
0.013349728866228905,3.292
0.02129734963354559,3.293
0.022851594438388138,3.294
0.018802107870662242,3.295
0.011718664189073616,3.296
0.0046748121649911965,3.297
-8.572357847338037e-05,3.298
-0.0018646091926263822,3.299
-0.0013874550311288947,3.3
-0.00010255403199575379,3.301
0.0006248912242663665,3.302
2.9773309765028916e-05,3.303
-0.001915383907743186,3.304
-0.00461744108688288,3.305
