VaMe,time
-0.0004334057367486714,0.001
-0.015591927938082124,0.002
-0.027126497560339944,0.003
-0.032114757156940926,0.004
-0.029139822915474522,0.005
-0.019057713683087372,0.006
-0.005003799401295761,0.007
0.008827618606180962,0.008
0.018982731141583546,0.009
0.02377273031816862,0.01
0.023143682572809108,0.011
0.018179076310887093,0.012
0.010811094445315418,0.013
0.003569817515687815,0.014
-0.001083913728783566,0.015
-0.0018111909040468717,0.016
0.0009769725210978188,0.017
0.005460962544709149,0.018
0.009289640153772394,0.019
0.010429134504033322,0.02
0.007824855838235615,0.021
0.0017117702214034666,0.022
-0.006584367189423041,0.023
-0.015152952922987056,0.024
-0.022006622963904987,0.025
-0.025560788986011072,0.026
-0.025118820890942556,0.027
-0.02116206378886902,0.028
-0.015152804737820014,0.029
-0.008900169575281143,0.03
-0.0039003760949337125,0.031
-0.0009270552973807646,0.032
8.598724695701127e-05,0.033
-0.0001364279779761309,0.034
-0.000599566156035403,0.035
-0.00045789732573778676,0.036
0.000697068382205342,0.037
0.002783715505874443,0.038
0.005378473255231442,0.039
0.007930672058373311,0.04
0.009963735565805024,0.041
0.011232287369248297,0.042
0.01175218119061958,0.043
0.011654568822151509,0.044
0.011033466474980613,0.045
0.010029121002828713,0.046
0.009026359815220573,0.047
0.008546107343655218,0.048
0.008798018471601415,0.049
0.0094471929740891,0.05
0.009958653246210442,0.051
0.010147522484978083,0.052
0.010344052634943158,0.053
0.011049894142237587,0.054
0.01239445064889386,0.055
0.013718390624824862,0.056
0.013503836179985785,0.057
0.00986984962875995,0.058
0.001632693433711593,0.059
-0.010700475994185044,0.06
-0.02488986704559881,0.061
-0.037928533755679415,0.062
-0.047197891686549975,0.063
-0.05118305042060319,0.064
-0.04969386277197819,0.065
-0.04373012564814405,0.066
-0.03499018372857803,0.067
-0.025076963409324686,0.068
-0.014915211125873129,0.069
-0.0048254836829358,0.07
0.0050165732394110325,0.071
0.014248608173671413,0.072
0.022360569021287233,0.073
0.02904845514235706,0.074
0.034493935244256944,0.075
0.03914231378232281,0.076
0.04313115726022284,0.077
0.04605013184256686,0.078
0.047254377850120356,0.079
0.04617660375576735,0.08
0.04232062509583844,0.081
0.03531015678080254,0.082
0.025168031654388218,0.083
0.012463382512474872,0.084
-0.0017424901260423655,0.085
-0.01591170269090066,0.086
-0.028199919547998956,0.087
-0.037028052738253166,0.088
-0.04171036425576383,0.089
-0.042619928070964194,0.09
-0.04082740639878251,0.091
-0.037574946157245104,0.092
-0.03384360001381492,0.093
-0.030026078442557308,0.094
-0.02589863059169101,0.095
-0.021070115081762448,0.096
-0.015485875819765155,0.097
-0.00945888422885678,0.098
-0.003369613485583468,0.099
0.0025095070971742637,0.1
0.007930563734171734,0.101
0.012537641677224366,0.102
0.01593498142648884,0.103
0.017916404364100406,0.104
0.018608887136361496,0.105
0.018420785750787847,0.106
0.01786113980876414,0.107
0.017370566535752873,0.108
0.0172323862821323,0.109
0.01749066661643756,0.11
0.017880271763710227,0.111
0.0178801397062442,0.112
0.016871013965011294,0.113
0.014293067421254689,0.114
0.009824465645351948,0.115
0.003622696130501135,0.116
-0.0035546960883346725,0.117
-0.010575411256672208,0.118
-0.016386614253288648,0.119
-0.020320304895491748,0.12
-0.022052648652996987,0.121
-0.02141267663430175,0.122
-0.01832118396298025,0.123
-0.012881996244813886,0.124
-0.0055023927338872574,0.125
0.0030572617345676753,0.126
0.01173591266677066,0.127
0.019260001192460383,0.128
0.024240275631538896,0.129
0.025371011500715607,0.13
0.021825281159810743,0.131
0.013720052579487113,0.132
0.002297640310638992,0.133
-0.01031629051556133,0.134
-0.02157749109943293,0.135
-0.02906588633885294,0.136
-0.03107411179979364,0.137
-0.027167121915936714,0.138
-0.018568269185798347,0.139
-0.00801327436185124,0.14
0.0012424935830714081,0.141
0.00684006734824773,0.142
0.00819651593621376,0.143
0.006370796091204809,0.144
0.003245714970456319,0.145
0.0006354942296449673,0.146
-0.00031072026028873686,0.147
0.0006704222020026602,0.148
0.0031009713021644247,0.149
0.00614382738575148,0.15
0.008936277702798765,0.151
0.010726381167082874,0.152
0.010942542158612383,0.153
0.009312816028273291,0.154
0.0059920127534871265,0.155
0.00159029984804673,0.156
-0.0030070218447825828,0.157
-0.006968388607907101,0.158
-0.0097461553054871,0.159
-0.011086553836684984,0.16
-0.010915244425787216,0.161
-0.009206209483457255,0.162
-0.005893440705879607,0.163
-0.0008981704172538058,0.164
0.005687690939791848,0.165
0.013312403520234212,0.166
0.02072640218365701,0.167
0.026021867714963086,0.168
0.02712916557744537,0.169
0.022727465234030127,0.17
0.01309422232253624,0.171
0.0002440683495107109,0.172
-0.0127441601868801,0.173
-0.022730720749055012,0.174
-0.02741038641151428,0.175
-0.025932279267028246,0.176
-0.019174673740489864,0.177
-0.009514611306286416,0.178
2.716592155159178e-05,0.179
0.006896955738340224,0.18
0.009720122036399,0.181
0.008389508008583898,0.182
0.0037551754893847588,0.183
-0.002787629743477799,0.184
-0.009615226191209978,0.185
-0.015112392927931708,0.186
-0.017945748780150424,0.187
-0.017352421001173398,0.188
-0.013297811650385372,0.189
-0.00645719497636979,0.19
0.00183401417603939,0.191
0.009676427788424487,0.192
0.01510185901968679,0.193
0.016981217446333782,0.194
0.015593143991587219,0.195
0.012257920318342056,0.196
0.008435499696243307,0.197
0.005055609047611329,0.198
0.002389596083949167,0.199
0.00033953477189288756,0.2
-0.0011716495226635547,0.201
-0.0019842440356395595,0.202
-0.0017005080356713544,0.203
0.00015368211362083847,0.204
0.0038388872502979916,0.205
0.009090384098943883,0.206
0.014956758409183129,0.207
0.0199868749233186,0.208
0.022795096572778357,0.209
0.022599547464161363,0.21
0.019289850556274215,0.211
0.013189525109436122,0.212
0.004904452508230062,0.213
-0.004834285149387301,0.214
-0.015485336923187472,0.215
-0.02676334319176837,0.216
-0.038104372477132956,0.217
-0.048041905739914174,0.218
-0.05428259230571679,0.219
-0.05449928551367523,0.22
-0.04725958102878569,0.221
-0.03268455442688806,0.222
-0.01274314780377047,0.223
0.008964713384381508,0.224
0.028172850404487065,0.225
0.04138139373515611,0.226
0.0468684057179775,0.227
0.044809711610968646,0.228
0.03688129390007318,0.229
0.025713697351680605,0.23
0.014149030543154474,0.231
0.004403782351115587,0.232
-0.002422376815867415,0.233
-0.006273139080883166,0.234
-0.007735981871935552,0.235
-0.007637389975478965,0.236
-0.006744624470654797,0.237
-0.005553939420755701,0.238
-0.0041715133719318455,0.239
-0.0023406154468194507,0.24
0.00036338429373613813,0.241
0.004210792648840788,0.242
0.008963487990721063,0.243
0.013650777586853333,0.244
0.016664607560957976,0.245
0.016301313186061154,0.246
0.011593695874011547,0.247
0.0028960588006183025,0.248
-0.008207554452928431,0.249
-0.019512836247113696,0.25
-0.028829804728566506,0.251
-0.0343636226641703,0.252
-0.03496545510707954,0.253
-0.03044427257820968,0.254
-0.021748752842946927,0.255
-0.010671677971578546,0.256
0.0007939925468150609,0.257
0.010936576665816702,0.258
0.018435403969762777,0.259
0.022362559472343866,0.26
0.022349240062216093,0.261
0.01878602951969089,0.262
0.012732598568695044,0.263
0.005585352243174913,0.264
-0.0011726504110184935,0.265
-0.006101816832223514,0.266
-0.00801657578806993,0.267
-0.006297115818513491,0.268
-0.0011191345850254236,0.269
0.006497531824627554,0.27
0.014777415856284306,0.271
0.021453023423364956,0.272
0.02434054141451765,0.273
0.022161460457711803,0.274
0.015169548101258269,0.275
0.005133312101063959,0.276
-0.0053193332775189565,0.277
-0.013635388975571388,0.278
-0.01812360441521403,0.279
-0.018298650770665868,0.28
-0.014826410208245381,0.281
-0.00921717547959317,0.282
-0.003286057256616496,0.283
0.0014199643562521431,0.284
0.003920933041561166,0.285
0.003865777986676606,0.286
0.0015411625258685932,0.287
-0.002263426600348225,0.288
-0.006660063606714083,0.289
-0.011053844770159813,0.29
-0.015135495961248437,0.291
-0.0186088583354477,0.292
-0.02101768543441997,0.293
-0.021752738910948744,0.294
-0.020239884814850093,0.295
-0.016243666242655323,0.296
-0.010031731049733192,0.297
-0.002316588908591214,0.298
0.005879548728864472,0.299
0.013406697751996483,0.3
0.01926870728645109,0.301
0.022917257167164022,0.302
0.024387146868886492,0.303
0.024205017347847278,0.304
0.023171812268867394,0.305
0.022107134078309096,0.306
0.021509730926343718,0.307
0.021202992012235054,0.308
0.02023609922323817,0.309
0.017242264754036233,0.31
0.011193854310867472,0.311
0.0021279873752752445,0.312
-0.008720030865236738,0.313
-0.019437902153506728,0.314
-0.028111070904778025,0.315
-0.03323755885868477,0.316
-0.03392747204390539,0.317
-0.03013890729975055,0.318
-0.022887842409425728,0.319
-0.014030438611785746,0.32
-0.005549308385104442,0.321
0.001161130558609797,0.322
0.0055590922445130685,0.323
0.007802048860315789,0.324
0.008467455204552176,0.325
0.00830899009824531,0.326
0.008024525789580675,0.327
0.00804143655012038,0.328
0.008434549104872601,0.329
0.009013707831316144,0.33
0.009457993277392492,0.331
0.009403947573806208,0.332
0.008546493533589224,0.333
0.00681205553607114,0.334
0.004458579803980532,0.335
0.0019078426367576966,0.336
-0.0005900790278013928,0.337
-0.0031356965431226284,0.338
-0.005965111138452448,0.339
-0.008942460129726021,0.34
-0.01124964481895957,0.341
-0.011616962158619692,0.342
-0.008906011540134158,0.343
-0.0027237130751722313,0.344
0.006160157663957759,0.345
0.015811747626298358,0.346
0.023596283107430345,0.347
0.026936116412590683,0.348
0.024170749145557557,0.349
0.015275042423888175,0.35
0.0020117736455242848,0.351
-0.012699592630608384,0.352
-0.025803561821820555,0.353
-0.034929836079600415,0.354
-0.038752377616195495,0.355
-0.03698324108298081,0.356
-0.030283820539365715,0.357
-0.020182328534740945,0.358
-0.008771027945448599,0.359
0.001885330712231244,0.36
0.010297948569211426,0.361
0.01574621001494293,0.362
0.018180675119329543,0.363
0.01806863089316466,0.364
0.016227885689370357,0.365
0.013583668118356403,0.366
0.010916037415615814,0.367
0.008720122838415292,0.368
0.007178598627810061,0.369
0.0061829196928026115,0.37
0.0053935690578691,0.371
0.004360911431461748,0.372
0.002692388204160787,0.373
0.000207802331787127,0.374
-0.002973486730532438,0.375
-0.0064196350846576,0.376
-0.009430200885246839,0.377
-0.011146211620121981,0.378
-0.010742486089125047,0.379
-0.0076838446263764165,0.38
-0.001997573336326882,0.381
0.005510380893799445,0.382
0.01327106396749658,0.383
0.01940921823705067,0.384
0.022508167917622536,0.385
0.022149014002131137,0.386
0.018881692906423227,0.387
0.013802855112608852,0.388
0.008050202437306843,0.389
0.002415463129177994,0.39
-0.002794006963319069,0.391
-0.007689864219436456,0.392
-0.012635241489297368,0.393
-0.0179387985868745,0.394
-0.02347011298055961,0.395
-0.028470605517243893,0.396
-0.03169812909213439,0.397
-0.03181462766521633,0.398
-0.027958607496080944,0.399
-0.020338903908714928,0.4
-0.01039053479201706,0.401
-0.00022819984460080645,0.402
0.008223935364685214,0.403
0.013831133277655202,0.404
0.016347324107162806,0.405
0.016141673437589654,0.406
0.013863300876075235,0.407
0.010322424639180684,0.408
0.006518729408802716,0.409
0.0035579233599046913,0.41
0.0024125534833515164,0.411
0.0036489938958798656,0.412
0.00718916579866974,0.413
0.012176900670611534,0.414
0.017066625444453212,0.415
0.020010286067374615,0.416
0.019517175218479222,0.417
0.01511314755120513,0.418
0.007540939833048923,0.419
-0.0016234237959884502,0.42
-0.01057679492332525,0.421
-0.017749943487948918,0.422
-0.02203504348504434,0.423
-0.0228906428383154,0.424
-0.02045238782872091,0.425
-0.015545278238073326,0.426
-0.009385883328943594,0.427
-0.00310158537590885,0.428
0.002573140298398325,0.429
0.007293679248372563,0.43
0.010909570020825494,0.431
0.013227921793860203,0.432
0.013897595796327603,0.433
0.012559658555120123,0.434
0.009205623967567758,0.435
0.00440632491357439,0.436
-0.0008462778756116336,0.437
-0.0055303091273984075,0.438
-0.00888792859533187,0.439
-0.010501642734552738,0.44
-0.010249280471872938,0.441
-0.008263805308089872,0.442
-0.004943603554386895,0.443
-0.0009424484759962931,0.444
0.0029431544479207386,0.445
0.005970483934295485,0.446
0.007672834128054703,0.447
0.00801242773529655,0.448
0.007336034934847915,0.449
0.006146568652616553,0.45
0.004853469293300926,0.451
0.0036357912891080355,0.452
0.0024488405415947307,0.453
0.0011306886790754867,0.454
-0.0004586013302151321,0.455
-0.0023191390947851,0.456
-0.0042585036148480825,0.457
-0.005937723027081328,0.458
-0.00700480744346623,0.459
-0.007244233401256071,0.46
-0.006653137266488039,0.461
-0.005423813111059265,0.462
-0.00389331006101121,0.463
-0.002499067924529343,0.464
-0.0017293649577525085,0.465
-0.002046168322437067,0.466
-0.003749337188524672,0.467
-0.006798607316651552,0.468
-0.010698522499877277,0.469
-0.014537450666031619,0.47
-0.017176261920495612,0.471
-0.017531503552064183,0.472
-0.014865418773502932,0.473
-0.008988019583607319,0.474
-0.0003254272937293015,0.475
0.010176341841012576,0.476
0.02128070716703101,0.477
0.031647161221085574,0.478
0.039839784275311395,0.479
0.044288413284009356,0.48
0.0435064248718105,0.481
0.036692258530715144,0.482
0.024395579912456677,0.483
0.008682025627846634,0.484
-0.007423266817241908,0.485
-0.020878661542525462,0.486
-0.029468507890270584,0.487
-0.032218414826660206,0.488
-0.029353479727110658,0.489
-0.022082307192498086,0.49
-0.01236173636093891,0.491
-0.0024862657493937143,0.492
0.005460774655066275,0.493
0.010020330208301629,0.494
0.0105655894228871,0.495
0.007361120661200986,0.496
0.0014436641645830123,0.497
-0.005676266786580836,0.498
-0.012381664779782428,0.499
-0.01725282463611867,0.5
-0.019274247327024978,0.501
-0.018006382359745183,0.502
-0.013743864567509286,0.503
-0.007508874439315216,0.504
-0.0007289712666235628,0.505
0.005251796924394247,0.506
0.009545657160958367,0.507
0.011858442526156912,0.508
0.012414615640092948,0.509
0.011748430811789968,0.51
0.01045591795654927,0.511
0.00898728371454162,0.512
0.0075495281780475565,0.513
0.006151286290581317,0.514
0.004725028566460897,0.515
0.003218174676890641,0.516
0.001612615254316492,0.517
-8.908327283251061e-05,0.518
-0.0018582760683391942,0.519
-0.0036119946619831526,0.52
-0.005191610863671638,0.521
-0.00636783013859647,0.522
-0.006898401479301187,0.523
-0.0066432274273332485,0.524
-0.005664832297790638,0.525
-0.004225005541457944,0.526
-0.0026763792227821872,0.527
-0.00133243733590119,0.528
-0.0003817448481063481,0.529
0.00015109176941583932,0.53
0.0004050658177394554,0.531
0.0006292806068368821,0.532
0.0010776485400772803,0.533
0.001894966311013973,0.534
0.003054083273946419,0.535
0.0043709382060894775,0.536
0.0055693805736427,0.537
0.006358244821535636,0.538
0.006513976605771754,0.539
0.0059587900666257885,0.54
0.004801958355220703,0.541
0.0033195734214501223,0.542
0.0018737917930482086,0.543
0.0007935090940320803,0.544
0.00024797988802430844,0.545
0.00015773716735016383,0.546
0.00020735130842698755,0.547
-7.543387692456569e-06,0.548
-0.0007798171733193615,0.549
-0.0021777127634162573,0.55
-0.004080451277083402,0.551
-0.0062993678924813815,0.552
-0.008629637411706349,0.553
-0.010723333585415053,0.554
-0.011915896159145137,0.555
-0.011318276674692268,0.556
-0.008280962856977242,0.557
-0.002918314366221023,0.558
0.003718430330155049,0.559
0.009956523575339835,0.56
0.014184304987371022,0.561
0.015586721569995696,0.562
0.014450260732427174,0.563
0.011811153321127657,0.564
0.008762221005377732,0.565
0.005848931078317289,0.566
0.0028508858319115133,0.567
-0.0008535619500019189,0.568
-0.0056007742143458,0.569
-0.011096824979060747,0.57
-0.016607547540534007,0.571
-0.02124645909062969,0.572
-0.0241095358939641,0.573
-0.02440135979410578,0.574
-0.02162245099967661,0.575
-0.01573947261713559,0.576
-0.007325170768889368,0.577
0.00237708164661163,0.578
0.01165773236837957,0.579
0.01884001314751303,0.58
0.022782963083561182,0.581
0.02315382238533983,0.582
0.020458693488429554,0.583
0.015879931308515855,0.584
0.010961606382163657,0.585
0.007191772651592972,0.586
0.005569935218973359,0.587
0.00628507732230287,0.588
0.008601138903966627,0.589
0.011033726928609478,0.59
0.011882867523303878,0.591
0.009967023256610398,0.592
0.005127423295499721,0.593
-0.0017975972547426286,0.594
-0.00940947747660087,0.595
-0.016281986850657744,0.596
-0.02133206085875458,0.597
-0.023940499546273867,0.598
-0.023916081600381268,0.599
-0.021462400934030748,0.6
-0.017190777910562588,0.601
-0.012020463924810591,0.602
-0.006880018804515489,0.603
-0.0024205029608397543,0.604
0.0010587549918401544,0.605
0.003528849409600019,0.606
0.005125017469942128,0.607
0.006063288918957702,0.608
0.006571951736934619,0.609
0.006831622145115833,0.61
0.006948906743836191,0.611
0.006963270211139759,0.612
0.006855577296232568,0.613
0.006568642777722479,0.614
0.006066989691131436,0.615
0.00541658415602877,0.616
0.004821136492015901,0.617
0.004559332128118855,0.618
0.004830614894678897,0.619
0.005580977680605651,0.62
0.006406015231546701,0.621
0.006634530271465668,0.622
0.0056369564339676095,0.623
0.003197937666540466,0.624
-0.0003455295220202587,0.625
-0.004298166311755925,0.626
-0.007922455114418539,0.627
-0.010633901320050683,0.628
-0.012035496450344102,0.629
-0.011889049571369718,0.63
-0.010108608742867124,0.631
-0.006830407023699888,0.632
-0.002521012107805617,0.633
0.0020428023628586427,0.634
0.005992110765462351,0.635
0.008645308452740984,0.636
0.009687433075623112,0.637
0.009181016200537831,0.638
0.007448533834062199,0.639
0.004927647647454444,0.64
0.002071749964961047,0.641
-0.0006780299925976674,0.642
-0.002890066265792053,0.643
-0.004186259680225409,0.644
-0.004335821882888445,0.645
-0.003342951679122478,0.646
-0.0014951506211218506,0.647
0.0006585669170425756,0.648
0.002440487581128757,0.649
0.0032502449289608447,0.65
0.0027230766500753547,0.651
0.0007877473190559311,0.652
-0.0023342610896128738,0.653
-0.006180924551644654,0.654
-0.010172705673408531,0.655
-0.013773916521651863,0.656
-0.016630175278832014,0.657
-0.018587206375112717,0.658
-0.019516843239111934,0.659
-0.019084116552571424,0.66
-0.01672344339521956,0.661
-0.011914017039442502,0.662
-0.004581362799365735,0.663
0.004671127916581598,0.664
0.014664834886588136,0.665
0.023955157525965817,0.666
0.03114166805216078,0.667
0.035114783181502886,0.668
0.035261521193556064,0.669
0.03161896959922493,0.67
0.024875212449949308,0.671
0.01615434438750414,0.672
0.0066986468813775395,0.673
-0.002381529309508008,0.674
-0.010217193825062835,0.675
-0.01617359884867524,0.676
-0.019811431074107853,0.677
-0.02089958169853034,0.678
-0.019478122872735665,0.679
-0.015902420963950573,0.68
-0.010824028035912444,0.681
-0.0051195087767950155,0.682
0.00021848287581440482,0.683
0.004260431754708298,0.684
0.00639587395260721,0.685
0.00652755277527558,0.686
0.005049457926522465,0.687
0.002655116266300425,0.688
0.00011927280342410359,0.689
-0.0018968945641656945,0.69
-0.0029995342623578354,0.691
-0.003122669055293381,0.692
-0.002489140515492263,0.693
-0.001505323365379707,0.694
-0.0005980778109521447,0.695
-3.7301411675310934e-05,0.696
0.00015311309065267717,0.697
0.00014361679561462434,0.698
0.00016276815027988623,0.699
0.00036967554140468473,0.7
0.0007940071593090861,0.701
0.0013507580860471296,0.702
0.001887068954612014,0.703
0.0022258086144012522,0.704
0.0022195347510512555,0.705
0.00181377883949585,0.706
0.001074542510389395,0.707
0.0001571672594897643,0.708
-0.0007591786908811948,0.709
-0.0015382556769636146,0.71
-0.0021274099613056,0.711
-0.0025517526470340128,0.712
-0.002864188413401557,0.713
-0.003085549139980329,0.714
-0.003186527752356035,0.715
-0.0031302529383392783,0.716
-0.002929065746465389,0.717
-0.002651144117688477,0.718
-0.002375207997739515,0.719
-0.00215343367245912,0.72
-0.002010843699588147,0.721
-0.0019452813811314355,0.722
-0.001902392030100134,0.723
-0.0017654683062074616,0.724
-0.0014069542208623655,0.725
-0.0007633601917653915,0.726
0.00013986271084346762,0.727
0.001220574770876791,0.728
0.002393435012372839,0.729
0.003618570920125233,0.73
0.004924798436121006,0.731
0.006387190947675639,0.732
0.008051273412590777,0.733
0.00983737460552798,0.734
0.011484905507401649,0.735
0.012556872255723415,0.736
0.012524848968191303,0.737
0.010966552269227712,0.738
0.007779564808267563,0.739
0.0032480690637573576,0.74
-0.002044966625025641,0.741
-0.007360405317781083,0.742
-0.011943261478292593,0.743
-0.015138235153321822,0.744
-0.016476809347994836,0.745
-0.01576444549619538,0.746
-0.013189641155499527,0.747
-0.00938042120306595,0.748
-0.00525547855792827,0.749
-0.0016743765525443267,0.75
0.0008715483523395583,0.751
0.002332864899031984,0.752
0.002968439942876471,0.753
0.0031302742743705035,0.754
0.0030838352636268444,0.755
0.0029444663827657455,0.756
0.00272783704215781,0.757
0.0024389853065002434,0.758
0.0021289968115977436,0.759
0.0018969184614032958,0.76
0.0018522199088088715,0.761
0.0020672586315400635,0.762
0.002531188487539573,0.763
0.0031128786412460354,0.764
0.0035782102673727473,0.765
0.00368783020990834,0.766
0.003314849590046778,0.767
0.0024949077464366813,0.768
0.0013827841508352976,0.769
0.0001607903527012016,0.77
-0.0010302251541800418,0.771
-0.002096351824407715,0.772
-0.0029566294656578705,0.773
-0.0035281281999762983,0.774
-0.003746415299425081,0.775
-0.0035789632147641094,0.776
-0.0030056956036189487,0.777
-0.0020046412403928212,0.778
-0.0005928847804926151,0.779
0.0010928566343641902,0.78
0.002769054711250463,0.781
0.004089012643612365,0.782
0.004771925252269149,0.783
0.004690783555504605,0.784
0.0039007201862612654,0.785
0.0026165264758602575,0.786
0.001151771237288578,0.787
-0.00015768327746739318,0.788
-0.0010282841858632109,0.789
-0.001302415976625356,0.79
-0.001013093073749236,0.791
-0.00040033662158066915,0.792
0.0001499953100582116,0.793
0.0002348468981982481,0.794
-0.0004104903487198153,0.795
-0.0018063018868555557,0.796
-0.0037356840441873525,0.797
-0.0058384499389710146,0.798
-0.007712077861932509,0.799
-0.008974351731632756,0.8
-0.009298803345845616,0.801
-0.00846629898201435,0.802
-0.006446507602801863,0.803
-0.003450365230827089,0.804
0.00010212319603424196,0.805
0.0036735172792114103,0.806
0.0067251004412112805,0.807
0.00884487559298938,0.808
0.009836775886723326,0.809
0.009726306047962601,0.81
0.008705895800871284,0.811
0.0070713922207842166,0.812
0.005163516699007404,0.813
0.0032982029253630107,0.814
0.0016982840811206113,0.815
0.0004569880590088023,0.816
-0.0004560997524022215,0.817
-0.0011512324672825179,0.818
-0.0017563660284044286,0.819
-0.002367627669500448,0.82
-0.0030268166032186065,0.821
-0.003716007244538832,0.822
-0.004360609361229503,0.823
-0.004849176324686433,0.824
-0.005076006281754212,0.825
-0.004982521079936548,0.826
-0.004570751758953372,0.827
-0.00389935815834244,0.828
-0.0030787468195116454,0.829
-0.002256548356020937,0.83
-0.0015827791574107009,0.831
-0.0011631617412551888,0.832
-0.00101469959360675,0.833
-0.0010307992811713711,0.834
-0.0009616798279389455,0.835
-0.00042416330398632886,0.836
0.0010270266452116845,0.837
0.003744644907792595,0.838
0.007783012856675612,0.839
0.012705466672037797,0.84
0.017481439652296683,0.841
0.02061242173800823,0.842
0.020622780973310755,0.843
0.016759684752455917,0.844
0.009417182269035197,0.845
-2.106754820432035e-05,0.846
-0.009726278557913753,0.847
-0.017992916030073264,0.848
-0.023628160937878395,0.849
-0.026098744517835195,0.85
-0.025446014435448968,0.851
-0.02207911004793531,0.852
-0.01662886270097913,0.853
-0.00993063919963138,0.854
-0.0029886430447897006,0.855
0.003212426599437939,0.856
0.007957713465910838,0.857
0.010938180054982607,0.858
0.012223314258846105,0.859
0.012144669648097831,0.86
0.011168792444847616,0.861
0.009785432489465482,0.862
0.008405971323839257,0.863
0.007275932627855864,0.864
0.006435359739642576,0.865
0.005765856359710911,0.866
0.00510664049830309,0.867
0.004364331678664725,0.868
0.003561622194656997,0.869
0.0028151530381002794,0.87
0.0022565985644943704,0.871
0.0019523263080375643,0.872
0.0018789338516345163,0.873
0.0019313749771149161,0.874
0.0019059324704938255,0.875
0.0014788736673390054,0.876
0.0002697015933029507,0.877
-0.0019880164875476385,0.878
-0.005278754568625644,0.879
-0.009260363363396654,0.88
-0.013351178970890583,0.881
-0.016882555170293325,0.882
-0.01924146484122196,0.883
-0.01996822709128875,0.884
-0.01881409103894057,0.885
-0.015759177758913973,0.886
-0.011026026406973146,0.887
-0.005121863983893292,0.888
0.0011780306243934528,0.889
0.006996751709088662,0.89
0.011598018294865911,0.891
0.014569217229192428,0.892
0.01588308045630142,0.893
0.015826868518202957,0.894
0.014825051336074733,0.895
0.013244735778036934,0.896
0.011302401579363304,0.897
0.009110211487729796,0.898
0.006767901110663519,0.899
0.004392375857981529,0.9
0.002084583386432053,0.901
-9.848231928524753e-05,0.902
-0.0021309891081479036,0.903
-0.00398495537966488,0.904
-0.005606489849078207,0.905
-0.006914654887054628,0.906
-0.007812954391144888,0.907
-0.008190024702256353,0.908
-0.007929178507294554,0.909
-0.00697160820035443,0.91
-0.005398056363566526,0.911
-0.0034401610519423273,0.912
-0.0014044514049499804,0.913
0.0004282072368913064,0.914
0.0018714808630743436,0.915
0.0028592352499754053,0.916
0.003434590098211145,0.917
0.003708742197506193,0.918
0.0038018384620334103,0.919
0.003787119766040036,0.92
0.0036674890852606084,0.921
0.003401231113272414,0.922
0.00295220477551729,0.923
0.0023225913037649,0.924
0.001558992114407697,0.925
0.0007395129804673042,0.926
-5.86118228303388e-05,0.927
-0.0007887534742442943,0.928
-0.001435356005772023,0.929
-0.001998985063393988,0.93
-0.002487661826699355,0.931
-0.002916289404754351,0.932
-0.003307578354952775,0.933
-0.0036762819340893506,0.934
-0.003994342388509467,0.935
-0.004177544886794671,0.936
-0.004117708833985504,0.937
-0.0037281230812707977,0.938
-0.0029708983274942097,0.939
-0.0018693124521883138,0.94
-0.0005087529838821227,0.941
0.0009782450261848993,0.942
0.002428774969906086,0.943
0.0036587434697668416,0.944
0.00449198051407062,0.945
0.0048220021446835236,0.946
0.004663029455285884,0.947
0.004146717999533312,0.948
0.0034686241551939987,0.949
0.0028120653497310235,0.95
0.002283330573757556,0.951
0.0018919552342526568,0.952
0.0015848529574663066,0.953
0.0013110088706948409,0.954
0.0010600992038093937,0.955
0.0008295565271878467,0.956
0.0005607923018160228,0.957
0.00012749058093970039,0.958
-0.0005962463829936144,0.959
-0.0016355450132572093,0.96
-0.002865163285280482,0.961
-0.004047157778400557,0.962
-0.004920450991223178,0.963
-0.0052934461299858765,0.964
-0.005096762109559469,0.965
-0.004370031273505161,0.966
-0.0032209192848700378,0.967
-0.0018164516125638841,0.968
-0.0003914110378209192,0.969
0.0007817252694150785,0.97
0.0014704584143072146,0.971
0.001573417628478131,0.972
0.0011675969459067235,0.973
0.00047386014560481737,0.974
-0.00022831369169509276,0.975
-0.0006880761371280875,0.976
-0.0007539615988720659,0.977
-0.0004116941934977464,0.978
0.00022672090376741567,0.979
0.0009711848235624949,0.98
0.0016179822241734342,0.981
0.0020181294208141596,0.982
0.002126578632408028,0.983
0.002008141277022094,0.984
0.0017976675150092806,0.985
0.0016333382355653895,0.986
0.0016021757341090487,0.987
0.0017260100804743265,0.988
0.001973625534430281,0.989
0.002276676187060188,0.99
0.0025497035394142302,0.991
0.002712491086153738,0.992
0.0027063779993339414,0.993
0.0025011046801415495,0.994
0.0020820177366017625,0.995
0.0014288320135633977,0.996
0.0005292337624338319,0.997
-0.0005752777978571538,0.998
-0.0017708801066620124,0.999
-0.002904790145297225,1.0
-0.0038374060009149355,1.001
-0.0044794733673060765,1.002
-0.004806386751483621,1.003
-0.004849635436160008,1.004
-0.004668164147022001,1.005
-0.004319645748601446,1.006
-0.003844562279901276,1.007
-0.003256422014110208,1.008
-0.0025440964142259778,1.009
-0.0016907756010020832,1.01
-0.0006978066668337542,1.011
0.0003955829723013033,1.012
0.0015080472128110455,1.013
0.002529039233057631,1.014
0.0033347011366398538,1.015
0.003806604869892392,1.016
0.0038623512627237724,1.017
0.003488824582508477,1.018
0.002750006444981771,1.019
0.0017606009747914227,1.02
0.000664364168774172,1.021
-0.0003587597569208572,1.022
-0.0011006992100329946,1.023
-0.0013855767985690855,1.024
-0.0011471855270294984,1.025
-0.0004659476198527892,1.026
0.0004638499174181916,1.027
0.0014221408003263262,1.028
0.00224371225871842,1.029
0.0028378411823869252,1.03
0.0031589472561954273,1.031
0.0031711012237599845,1.032
0.002837984412944203,1.033
0.00215203106585234,1.034
0.0011777359730284975,1.035
5.400774049476776e-05,1.036
-0.001054796909784707,1.037
-0.0020044035932275297,1.038
-0.0026865215084409346,1.039
-0.0030436685536893325,1.04
-0.003087552585969693,1.041
-0.0028986405030573805,1.042
-0.002600022291370307,1.043
-0.0023130311457565085,1.044
-0.0021091528047672624,1.045
-0.001978087946922594,1.046
-0.0018300710141066054,1.047
-0.0015366855667654977,1.048
-0.0010030947882880149,1.049
-0.00024000456576614142,1.05
0.0006278336324836447,1.051
0.0014273835322972841,1.052
0.002009896310744869,1.053
0.0022869301693420343,1.054
0.0022361124708447084,1.055
0.0018862378633929166,1.056
0.0012936034423756918,1.057
0.0005321791045015074,1.058
-0.0002920644598515149,1.059
-0.0010268377717530359,1.06
-0.0014919110296846675,1.061
-0.0015373764662342073,1.062
-0.001109974633888825,1.063
-0.00027847214642619955,1.064
0.0007862782463640614,1.065
0.0018493989732512885,1.066
0.0026659772743036336,1.067
0.003047351772215566,1.068
0.0029120701118274814,1.069
0.0023028956062971714,1.07
0.0013648461859452283,1.071
0.0002903110917000632,1.072
-0.0007432907714735247,1.073
-0.0016199800817424186,1.074
-0.0023013522936979267,1.075
-0.0028031852795200704,1.076
-0.0031485926400150123,1.077
-0.0033308445117467126,1.078
-0.0033030009963649952,1.079
-0.002991609155800716,1.08
-0.0023308277149154968,1.081
-0.0013081846695765492,1.082
3.2983707279956617e-06,1.083
0.0014478030653363747,1.084
0.0028218949954036208,1.085
0.003916433474927481,1.086
0.004540812888091001,1.087
0.004543144293419102,1.088
0.0038492223753220384,1.089
0.002506831963687246,1.09
0.0007138753656865595,1.091
-0.0011919652148453292,1.092
-0.0028097577464989833,1.093
-0.0037954265327014842,1.094
-0.003967642690261132,1.095
-0.00336534694932802,1.096
-0.0022286694649343657,1.097
-0.0008962133488493317,1.098
0.0003230972553794803,1.099
0.0012316699454322612,1.1
0.0017564825792056045,1.101
0.00191241833795222,1.102
0.0017538425627043996,1.103
0.0013477496222846896,1.104
0.0007665096631553623,1.105
8.27957611793302e-05,1.106
-0.0006305394397189978,1.107
-0.001295677652252899,1.108
-0.001838498752536345,1.109
-0.0021980989730766027,1.11
-0.002314885470446869,1.111
-0.0021303004565776857,1.112
-0.0016218173596744588,1.113
-0.0008324827129590332,1.114
0.00014023844570947084,1.115
0.0011782275522491806,1.116
0.00216285706477643,1.117
0.002982792130781262,1.118
0.0035546153729680463,1.119
0.0038506476061354383,1.12
0.0039079093088501635,1.121
0.0038040048964874543,1.122
0.0036082703043320446,1.123
0.0033379206275732025,1.124
0.00294612935740385,1.125
0.0023519493699892292,1.126
0.0014992641330544094,1.127
0.0004121185359346189,1.128
-0.0007836583473629944,1.129
-0.0018881828158242126,1.13
-0.0026985629586586887,1.131
-0.0030933514985315865,1.132
-0.0030815232252379156,1.133
-0.0027830504041804777,1.134
-0.002367494947411954,1.135
-0.0019970145599513423,1.136
-0.0017932515735166355,1.137
-0.0018311660938047116,1.138
-0.002145650156187007,1.139
-0.0027273778466755474,1.14
-0.0035094963154357487,1.141
-0.004367926373220682,1.142
-0.005142047486663863,1.143
-0.005664534300220426,1.144
-0.005790677483488817,1.145
-0.005420652625016074,1.146
-0.004512733371623053,1.147
-0.003095442462266261,1.148
-0.0012777041367018698,1.149
0.0007628321667015048,1.15
0.002814307616927114,1.151
0.00466719673237686,1.152
0.0061450216883642125,1.153
0.007125706603890471,1.154
0.007549296411941029,1.155
0.007420729013477696,1.156
0.00681329759973974,1.157
0.005861574643204201,1.158
0.00473382206752544,1.159
0.0035953014349280462,1.16
0.0025768735987099314,1.161
0.001746783065876839,1.162
0.0010953277977562418,1.163
0.0005550211336960041,1.164
5.297101312704611e-05,1.165
-0.0004373027289646964,1.166
-0.0008805173375910322,1.167
-0.0012091529802350088,1.168
-0.001374737884026496,1.169
-0.0013874684464464937,1.17
-0.0013190899525385264,1.171
-0.0012771798941798988,1.172
-0.0013777704293791986,1.173
-0.0017116718283223806,1.174
-0.0022904091907586842,1.175
-0.003003072163665926,1.176
-0.003633942025194201,1.177
-0.003946519998850476,1.178
-0.0037815623524321217,1.179
-0.003107969824973891,1.18
-0.0020100975584335917,1.181
-0.0006424310312778058,1.182
0.0008052268289981062,1.183
0.002123689911384686,1.184
0.0031036742285624644,1.185
0.003576175035022052,1.186
0.003472690180961415,1.187
0.002862937439865425,1.188
0.0019254323187121033,1.189
0.000871139273595835,1.19
-0.0001270971063716004,1.191
-0.0009684697386664572,1.192
-0.001616200482162188,1.193
-0.0020653800987547833,1.194
-0.0023209803401282895,1.195
-0.002403548218557514,1.196
-0.0023585406696442625,1.197
-0.0022402841116963244,1.198
-0.002084108361676593,1.199
-0.0018960254865235686,1.2
-0.0016606839576444412,1.201
-0.0013588215687696864,1.202
-0.0009929969745389158,1.203
-0.0006002096432435785,1.204
-0.0002278156834142345,1.205
9.56653325765124e-05,1.206
0.0003522008980497678,1.207
0.0005179254474846651,1.208
0.0005841458344693651,1.209
0.0005912718689721837,1.21
0.0006266905992105188,1.211
0.0007854049241717896,1.212
0.001126066131661376,1.213
0.0016404062358865842,1.214
0.002239392440933794,1.215
0.0027701986632554768,1.216
0.0030760621122534002,1.217
0.003071913708994932,1.218
0.0027795045953261533,1.219
0.0023039813849162947,1.22
0.0017897003808985319,1.221
0.0013859121688469366,1.222
0.0012102444325311542,1.223
0.0012947493799688415,1.224
0.0015492319444837784,1.225
0.0017951347270653286,1.226
0.0018578175996013591,1.227
0.001645327126934846,1.228
0.0011637637219955367,1.229
0.00048495484420784513,1.23
-0.00028665976459426006,1.231
-0.0010347096699730464,1.232
-0.0016526934613155183,1.233
-0.0020609029889147464,1.234
-0.0022175352049634144,1.235
-0.0021368021467404953,1.236
-0.0019023699020667855,1.237
-0.0016502924488869548,1.238
-0.001510793654377111,1.239
-0.0015426874407812436,1.24
-0.0017155461108536371,1.241
-0.0019430995368642102,1.242
-0.0021342741170784453,1.243
-0.002235040898235136,1.244
-0.002241007040078928,1.245
-0.0021829697949305106,1.246
-0.002105453493286426,1.247
-0.002045541997755688,1.248
-0.0020202853209488497,1.249
-0.0020358013311067642,1.25
-0.002099733342602598,1.251
-0.002203671416744393,1.252
-0.0022879818679531374,1.253
-0.0022434989995709967,1.254
-0.0019623800928023115,1.255
-0.001390274116044853,1.256
-0.0005452841605671459,1.257
0.0004944800952280887,1.258
0.0016196172354859585,1.259
0.0027216516131937994,1.26
0.0037178507607050146,1.261
0.00455457338353386,1.262
0.005189540036975678,1.263
0.0055706043722925595,1.264
0.00563125000590187,1.265
0.005313309554402824,1.266
0.004608361656028759,1.267
0.0035977955492698154,1.268
0.002459869271435471,1.269
0.0014140411615050728,1.27
0.000625149336572268,1.271
0.00013909085791087428,1.272
-0.0001074980059135823,1.273
-0.000233763279562338,1.274
-0.00036816204745100255,1.275
-0.0006129823210722504,1.276
-0.0010052944705150016,1.277
-0.001496317590370433,1.278
-0.001975208957880483,1.279
-0.002321890845105548,1.28
-0.002456146805435112,1.281
-0.0023651917846152044,1.282
-0.002101319440504157,1.283
-0.0017585835873365051,1.284
-0.001454502542311816,1.285
-0.0013108352162445993,1.286
-0.001405495453984256,1.287
-0.0017152071916015762,1.288
-0.002106287885195467,1.289
-0.002391093353126408,1.29
-0.002404188506023107,1.291
-0.0020521547174010323,1.292
-0.0013331633358613234,1.293
-0.0003359199643129437,1.294
0.0007795651748388038,1.295
0.0018227482863089168,1.296
0.0026250910856194546,1.297
0.0030705699103223748,1.298
0.00309431391234257,1.299
0.002672038724126764,1.3
0.0018188681421292367,1.301
0.0006109318765220006,1.302
-0.0007847372345898494,1.303
-0.0021151853687687893,1.304
-0.0030994219737985463,1.305
-0.0035152070215836977,1.306
-0.0032685044095019174,1.307
-0.002411685445603577,1.308
-0.001110857553937325,1.309
0.0004154953754037135,1.31
0.001952102830593415,1.311
0.0033131250626797105,1.312
0.004348019478399428,1.313
0.00494792602616347,1.314
0.005061531941926788,1.315
0.00470673627341457,1.316
0.003958943044648602,1.317
0.0029240709829354344,1.318
0.0017214801109999664,1.319
0.0004785987530699556,1.32
-0.0006865975107512834,1.321
-0.0016933695714954635,1.322
-0.0025053980914151158,1.323
-0.0031107298996435047,1.324
-0.003496679868333142,1.325
-0.0036424444534652947,1.326
-0.0035363387913138864,1.327
-0.003198416289312109,1.328
-0.0026794781392660266,1.329
-0.0020373990550072835,1.33
-0.0013213738022016485,1.331
-0.000575509242241807,1.332
0.00015666950822876795,1.333
0.000829158168559446,1.334
0.0013805259874536142,1.335
0.0017301335669162286,1.336
0.0018046689934486688,1.337
0.0015752609642515913,1.338
0.001076202613013055,1.339
0.0003958572611355871,1.34
-0.00035551170039380543,1.341
-0.001075955754074575,1.342
-0.00167722714583877,1.343
-0.0020787717521076146,1.344
-0.0022140431092903114,1.345
-0.002050750596480779,1.346
-0.0016064551847396254,1.347
-0.000941762147460022,1.348
-0.00014098834206779988,1.349
0.000695962934162613,1.35
0.0014532787846514164,1.351
0.0020126763531164984,1.352
0.0022814959870687927,1.353
0.0022199205089976602,1.354
0.001859716952788935,1.355
0.0013038935089326777,1.356
0.0006958866772974992,1.357
0.00017000292690842774,1.358
-0.00018659639241730717,1.359
-0.0003381565248442384,1.36
-0.0002826700133909839,1.361
-5.01271525559632e-05,1.362
0.0002845797292242844,1.363
0.0006251389175489665,1.364
0.0009064479142549895,1.365
0.0011053027725902351,1.366
0.0012114438660255859,1.367
0.0012150842770577482,1.368
0.001118596849749753,1.369
0.0009525371301859549,1.37
0.0007726163538254981,1.371
0.0006274126881460683,1.372
0.0005230049774405613,1.373
0.00041389888769780936,1.374
0.0002225782620765902,1.375
-0.00012589513816789688,1.376
-0.0006684212002338446,1.377
-0.0013790753001135967,1.378
-0.002160245267685697,1.379
-0.002864920770645847,1.38
-0.003360123068292288,1.381
-0.0035876343998013953,1.382
-0.0035676185552067567,1.383
-0.0033494884740540034,1.384
-0.0029604173509949804,1.385
-0.0023935928048214117,1.386
-0.0016340396395933075,1.387
-0.0006944563981753718,1.388
0.00035734140917566,1.389
0.0013959459501550029,1.39
0.0022806693972314577,1.391
0.0029163078598788716,1.392
0.0032738162255306073,1.393
0.003374403700860402,1.394
0.003279023725094086,1.395
0.003081014558522345,1.396
0.0028774878254498202,1.397
0.0027256316229873046,1.398
0.002620662079870889,1.399
0.0025095964917114188,1.4
0.002314656159429086,1.401
0.0019571068010409546,1.402
0.0013888440761268216,1.403
0.0006166129296801751,1.404
-0.00029423699238813886,1.405
-0.0012342056549361918,1.406
-0.00208183789176557,1.407
-0.0027429681658892343,1.408
-0.003168024407195062,1.409
-0.003340729100830941,1.41
-0.003266004777952621,1.411
-0.0029668706386646944,1.412
-0.002480712746826099,1.413
-0.0018586937325094732,1.414
-0.0011685919445437861,1.415
-0.0004918131416733338,1.416
8.646584209320958e-05,1.417
0.00048664820079208484,1.418
0.000638654023553182,1.419
0.0004953843757800451,1.42
7.055999277981803e-05,1.421
-0.0005335478776655725,1.422
-0.0011559623983358718,1.423
-0.0016448232501967315,1.424
-0.0019032166292815484,1.425
-0.00189595160179476,1.426
-0.0016410912425428355,1.427
-0.0011959591931978823,1.428
-0.0006296747419743617,1.429
7.627643977109927e-06,1.43
0.0006901405060216506,1.431
0.001390273913069609,1.432
0.0020488080167579237,1.433
0.002570474781664618,1.434
0.002848365565949343,1.435
0.002806333203105535,1.436
0.002447500616061907,1.437
0.0018790399120958198,1.438
0.0012944143343661956,1.439
0.0009242525561386286,1.44
0.0009603214789173406,1.441
0.0014661394204161806,1.442
0.0023199105211955335,1.443
0.003237984439798887,1.444
0.00388312829871804,1.445
0.003994755488189823,1.446
0.0034639539859318063,1.447
0.0023362791539857752,1.448
0.000778459823268263,1.449
-0.0009673008576303055,1.45
-0.002645879147335873,1.451
-0.004053262941700571,1.452
-0.005068711498356013,1.453
-0.0056545628503003485,1.454
-0.005836032084549334,1.455
-0.005664609796672992,1.456
-0.005195149880402573,1.457
-0.004493660353004257,1.458
-0.003642941695152819,1.459
-0.002724584013146673,1.46
-0.0017932234154298917,1.461
-0.0008689872616992021,1.462
4.1559351927778125e-05,1.463
0.0009164038324086866,1.464
0.0017099934863343614,1.465
0.002368849023239401,1.466
0.0028516899226440837,1.467
0.0031456059611413008,1.468
0.0032757903699544627,1.469
0.003290079050533974,1.47
0.003225189161033798,1.471
0.003098586104907841,1.472
0.002926070685662962,1.473
0.002721833190063143,1.474
0.0024815658183657244,1.475
0.002186140992076977,1.476
0.0018294522943297167,1.477
0.0014320301404115105,1.478
0.00101570796790966,1.479
0.0005737554643929486,1.48
8.440580697303576e-05,1.481
-0.00045061641429238684,1.482
-0.000994689509027628,1.483
-0.001499080614786434,1.484
-0.0019337669086975523,1.485
-0.0023032359455543152,1.486
-0.002631754302765174,1.487
-0.002930987982990967,1.488
-0.0031873319185020143,1.489
-0.003372270829350949,1.49
-0.0034493928144582377,1.491
-0.003377150265047342,1.492
-0.003118056732688099,1.493
-0.002650769252549541,1.494
-0.0019764791957607997,1.495
-0.001115808062262842,1.496
-0.0001066456706129554,1.497
0.0009845725307002936,1.498
0.002048697581807155,1.499
0.002941526123801649,1.5
0.0035197743482710555,1.501
0.003688488537962007,1.502
0.0034319237475352177,1.503
0.0028096771125776777,1.504
0.001939535924792706,1.505
0.000989269251283405,1.506
0.00015309453278778784,1.507
-0.000400283868063849,1.508
-0.0005779026197405221,1.509
-0.00038751407176877657,1.51
7.170345883602044e-05,1.511
0.000650815398304078,1.512
0.0011934121401247862,1.513
0.0015564003821623609,1.514
0.0016292491588566268,1.515
0.0013642313611097183,1.516
0.0007988659304898061,1.517
5.358912900465508e-05,1.518
-0.0007025779540837657,1.519
-0.0013170135360320912,1.52
-0.001710200661688415,1.521
-0.0018706491877844916,1.522
-0.0018079983784104472,1.523
-0.001532652747285981,1.524
-0.001069182242987196,1.525
-0.00046971949721913783,1.526
0.0001780122637270914,1.527
0.0007502360079806492,1.528
0.0011166141234449053,1.529
0.0011947323557835174,1.53
0.000979920026768979,1.531
0.0005256249726091666,1.532
-9.158016930197328e-05,1.533
-0.0007925118763728354,1.534
-0.0015032033352869341,1.535
-0.0021521980373577143,1.536
-0.002666178818049719,1.537
-0.0029808185017707886,1.538
-0.003053359027575007,1.539
-0.0028489560137354977,1.54
-0.002324137556267847,1.541
-0.001448262644215159,1.542
-0.0002443512950110845,1.543
0.0011832572104741891,1.544
0.002639866438105697,1.545
0.003858786579128886,1.546
0.004557035537994753,1.547
0.004529895890771658,1.548
0.0037514674786055615,1.549
0.002406540075894368,1.55
0.0008180966321992886,1.551
-0.0006784390319591017,1.552
-0.0018348932692450696,1.553
-0.0025340638859098524,1.554
-0.0027925685008310156,1.555
-0.0027234871236359315,1.556
-0.002455729892496263,1.557
-0.0020544258388426597,1.558
-0.0015077690268766257,1.559
-0.0007858001354215659,1.56
9.614733700458106e-05,1.561
0.0010636437360333525,1.562
0.0020085392634832727,1.563
0.0028163369579620222,1.564
0.0033784508859732456,1.565
0.003607205384688699,1.566
0.0034668363957035637,1.567
0.002994044992225181,1.568
0.002283828438538349,1.569
0.0014484268950663562,1.57
0.0005834038616655396,1.571
-0.0002262629858456693,1.572
-0.0008824856053414718,1.573
-0.0012844627050036701,1.574
-0.001380085600825012,1.575
-0.0012135210734855394,1.576
-0.0009184852034670296,1.577
-0.0006563199785877277,1.578
-0.000548262201367569,1.579
-0.0006420644956701755,1.58
-0.0009132413075276848,1.581
-0.0012875848836181353,1.582
-0.0016758497542756902,1.583
-0.00200428842736896,1.584
-0.002221151327572975,1.585
-0.0022839058685334953,1.586
-0.0021550025604051004,1.587
-0.0018094414924903122,1.588
-0.0012443794570637411,1.589
-0.0005036338292180292,1.59
0.0002988385978318505,1.591
0.0010022612779153224,1.592
0.0014654791405074642,1.593
0.0016232697325499347,1.594
0.0014923336467924566,1.595
0.0011367464129026913,1.596
0.0006403253023381866,1.597
0.0001073621512837871,1.598
-0.00034244137348983126,1.599
-0.0006070379462426548,1.6
-0.0006394241887488773,1.601
-0.00046746719167083995,1.602
-0.00018624366931715056,1.603
8.432353529504329e-05,1.604
0.00025566668198758917,1.605
0.00030167556661628796,1.606
0.0002554139865356375,1.607
0.00018536130728271787,1.608
0.0001578960418498044,1.609
0.00020404116375692118,1.61
0.0003170737018606435,1.611
0.00047019543389077066,1.612
0.0006246800673703941,1.613
0.0007320317628758661,1.614
0.0007472573978287147,1.615
0.0006536807449107502,1.616
0.00048703090663521087,1.617
0.00033416660782796347,1.618
0.0002877488647364348,1.619
0.0003835090327879275,1.62
0.0005740604802321187,1.621
0.000753989069134793,1.622
0.0008127647591704045,1.623
0.000689685430545145,1.624
0.00040704467890116094,1.625
6.451023158703056e-05,1.626
-0.00021080607099391665,1.627
-0.00033361930040361963,1.628
-0.00030486213171147537,1.629
-0.00021564719933236427,1.63
-0.00021147673706660447,1.631
-0.00041791677963975304,1.632
-0.0008628948302070625,1.633
-0.001457496517838025,1.634
-0.002048196313675247,1.635
-0.0024829389258395145,1.636
-0.002652493489976981,1.637
-0.002516034637884519,1.638
-0.002103458552082976,1.639
-0.0014848290643278911,1.64
-0.0007361708902701352,1.641
7.154840876998242e-05,1.642
0.0008653372241003904,1.643
0.0015648363123096074,1.644
0.0020936103066081734,1.645
0.0024027220686637677,1.646
0.0024893482557840885,1.647
0.002394474625629215,1.648
0.002178583463140317,1.649
0.0018933468380861868,1.65
0.0015726163823002262,1.651
0.0012473787082095576,1.652
0.0009554166442417572,1.653
0.0007242199232814494,1.654
0.0005527151853000986,1.655
0.0004218787105261479,1.656
0.0003214908318950604,1.657
0.00026007142786575624,1.658
0.00025215302917344136,1.659
0.0003010385176389011,1.66
0.0003833828344379351,1.661
0.00043611077894175384,1.662
0.0003669331120130525,1.663
0.0001005125108045451,1.664
-0.00036911513701667133,1.665
-0.0009626640972396958,1.666
-0.0015548117152733927,1.667
-0.0020407835776449215,1.668
-0.0023758526685204963,1.669
-0.002562529273476879,1.67
-0.0026137030667815015,1.671
-0.0025354023537154913,1.672
-0.002332629266669623,1.673
-0.002016101758900029,1.674
-0.0016078204196062643,1.675
-0.0011484311123217358,1.676
-0.0006914283647145387,1.677
-0.0002757757216338327,1.678
9.710576120976726e-05,1.679
0.00044840620571802935,1.68
0.0007843725286527834,1.681
0.0010837487116067584,1.682
0.00131963013214662,1.683
0.0014769676323854886,1.684
0.0015376872821869292,1.685
0.0014628513646840838,1.686
0.0012139424925841724,1.687
0.0007986260039042108,1.688
0.00029058690938888897,1.689
-0.0001961671907180834,1.69
-0.0005510456254388794,1.691
-0.0006998656783270155,1.692
-0.0006215657658871199,1.693
-0.0003496990056431936,1.694
3.8289946973226965e-05,1.695
0.0004385617017163347,1.696
0.0007447009695662492,1.697
0.0008799117475322607,1.698
0.0008203062208208302,1.699
0.0005937631959657475,1.7
0.0002726921704208524,1.701
-3.69319926494124e-05,1.702
-0.00023209125089682412,1.703
-0.0002594236610445349,1.704
-0.0001310049363626635,1.705
0.00010707509488631289,1.706
0.00041846079086070744,1.707
0.0007737168382788251,1.708
0.0011115151691849995,1.709
0.00133710986837193,1.71
0.001371589803916938,1.711
0.001199913673238983,1.712
0.0008823043512216159,1.713
0.0005209574696315538,1.714
0.00020108588170353846,1.715
-4.4945313101644164e-05,1.716
-0.0002226620096109417,1.717
-0.00033895506767864236,1.718
-0.00038998206318586765,1.719
-0.0003711729368867115,1.72
-0.0002789236809049603,1.721
-0.00010961650717793842,1.722
0.00012485138640986034,1.723
0.00037346793333101446,1.724
0.0005390362366711276,1.725
0.0005038661991197563,1.726
0.00017923447943718089,1.727
-0.00044905075844660727,1.728
-0.0013039787445515752,1.729
-0.0022373608102155885,1.73
-0.0030791524208512843,1.731
-0.0036956668506159,1.732
-0.004018011713313922,1.733
-0.004018669881837469,1.734
-0.003679244835147031,1.735
-0.002999232622279025,1.736
-0.002019335447318039,1.737
-0.0008143088903827516,1.738
0.0005305436636749974,1.739
0.001918492438651496,1.74
0.0032201747759596677,1.741
0.004278080337409912,1.742
0.0049447322617859205,1.743
0.005122186792347927,1.744
0.004797774431503222,1.745
0.004077337507203138,1.746
0.0031734528134464398,1.747
0.002319120453698894,1.748
0.001659886956027234,1.749
0.0012053584396602172,1.75
0.0008630678158085745,1.751
0.0005088948771582924,1.752
3.3698220994275724e-05,1.753
-0.0006372902723653376,1.754
-0.0015200879127763626,1.755
-0.002546793393846697,1.756
-0.003568099485060586,1.757
-0.004399366804553585,1.758
-0.004896878401571734,1.759
-0.005008226719618271,1.76
-0.00475397216522732,1.761
-0.004182666942581975,1.762
-0.003360967028949922,1.763
-0.0023762653819196125,1.764
-0.0013088169120826331,1.765
-0.0002066979623175801,1.766
0.0008915653072977469,1.767
0.0019148980637260914,1.768
0.002754240967731936,1.769
0.003295169674696284,1.77
0.0034514406015641852,1.771
0.0031972640625601814,1.772
0.0026075712219316995,1.773
0.0018617360044170933,1.774
0.001178524429129949,1.775
0.0007356119224731382,1.776
0.0006306083668369186,1.777
0.0008742970475432857,1.778
0.0013912404887095181,1.779
0.0020329138922612674,1.78
0.0026142365814487262,1.781
0.002960527194180246,1.782
0.0029433581782049023,1.783
0.002498688509220591,1.784
0.001635791459942078,1.785
0.0004452171407227532,1.786
-0.0009044986363299106,1.787
-0.0022023787322334636,1.788
-0.003255086101221798,1.789
-0.0039326888626783334,1.79
-0.004179637931785625,1.791
-0.00399962718755957,1.792
-0.003433439344356376,1.793
-0.002555341959677265,1.794
-0.001488629357590109,1.795
-0.00040200929053503114,1.796
0.0005272782742449244,1.797
0.0011539232155042482,1.798
0.0013980897548019262,1.799
0.0012748482829245465,1.8
0.0008942127170760197,1.801
0.00041381534008906205,1.802
-2.7592345827872838e-05,1.803
-0.00034509673052559057,1.804
-0.0004966666687418424,1.805
-0.00045910026583571574,1.806
-0.0002193740323475517,1.807
0.00021260447999256474,1.808
0.0007788197692943175,1.809
0.0013700877312748116,1.81
0.0018695236696092362,1.811
0.0021985846676999704,1.812
0.0023129633397487317,1.813
0.0021770940389178694,1.814
0.001766802951008291,1.815
0.0010940840646848865,1.816
0.00022551613539511256,1.817
-0.0007212271405243427,1.818
-0.0016054155725225398,1.819
-0.002305356767590857,1.82
-0.0027520534645236517,1.821
-0.002934737708037273,1.822
-0.002878658147099398,1.823
-0.0026171281780734326,1.824
-0.0021813639842535007,1.825
-0.0016109539953412615,1.826
-0.0009758785045237105,1.827
-0.0003933198217373743,1.828
-1.1135082862059268e-05,1.829
5.000754046441617e-05,1.83
-0.00023669672691127,1.831
-0.0007799887740063838,1.832
-0.0014085977559864292,1.833
-0.0019322724588830326,1.834
-0.0021830056699657123,1.835
-0.002039776625066333,1.836
-0.0014531945861838106,1.837
-0.00046256927646542794,1.838
0.000808519097229806,1.839
0.002179206880911142,1.84
0.003457696355765741,1.841
0.004490779985758896,1.842
0.005189773943547046,1.843
0.005525366078797214,1.844
0.00550505476735958,1.845
0.005154342802284882,1.846
0.004514267206554393,1.847
0.0036522348885624388,1.848
0.0026730714111471193,1.849
0.001706337565361655,1.85
0.0008649970691192768,1.851
0.00020576367889086044,1.852
-0.00027747636771032445,1.853
-0.0006213334316080612,1.854
-0.0008574806168711381,1.855
-0.0010137139721800156,1.856
-0.0011334044424364596,1.857
-0.001274083281872431,1.858
-0.001485157166985179,1.859
-0.0017846132266314486,1.86
-0.002148424492885157,1.861
-0.0025248072915689734,1.862
-0.002862738189528288,1.863
-0.0031263986220357192,1.864
-0.0032928136091419325,1.865
-0.0033469643671587266,1.866
-0.003280834803613253,1.867
-0.003094421205774517,1.868
-0.0027957163003515563,1.869
-0.002406725352027092,1.87
-0.001974521557343262,1.871
-0.001564224490608595,1.872
-0.001233536751395889,1.873
-0.0010184978738357997,1.874
-0.0009254916505474977,1.875
-0.0009127935126584247,1.876
-0.0008961113160212501,1.877
-0.0007957149795598428,1.878
-0.0005736068232208399,1.879
-0.0002283305043661102,1.88
0.00022280905181112855,1.881
0.0007501312524236268,1.882
0.0013166228744638736,1.883
0.0018838617838338215,1.884
0.0024089727799886758,1.885
0.0028439641875898495,1.886
0.003151082377199947,1.887
0.0033223697230571475,1.888
0.003381202310081596,1.889
0.0033590651884700265,1.89
0.0032664828820744654,1.891
0.003077820450717068,1.892
0.0027409556956745095,1.893
0.0022197658884477913,1.894
0.0015421024945628204,1.895
0.0008028323658778531,1.896
0.00012305299277541528,1.897
-0.00039317101111719196,1.898
-0.0006844184061021325,1.899
-0.0007312725939290897,1.9
-0.000540802627170437,1.901
-0.00014587985998068035,1.902
0.0003903979601202658,1.903
0.0009846849306126523,1.904
0.001546325441021619,1.905
0.001982628330033994,1.906
0.00219883124889828,1.907
0.0021098517560640398,1.908
0.0016711261527529479,1.909
0.0008977020774237486,1.91
-0.0001464181798955351,1.911
-0.001363474015436768,1.912
-0.00263328302202651,1.913
-0.0038369271841793553,1.914
-0.004876159693588087,1.915
-0.005666536592793557,1.916
-0.006127243906855304,1.917
-0.006195002036361775,1.918
-0.00584891369084959,1.919
-0.005119402689923373,1.92
-0.0040803440752818255,1.921
-0.002838653021989712,1.922
-0.001520021904495647,1.923
-0.00024617048555964017,1.924
0.0008771500242975403,1.925
0.0017570871063428784,1.926
0.0023242174590051355,1.927
0.0025570859242370673,1.928
0.0025013542205377976,1.929
0.002275536655784236,1.93
0.0020379145860934204,1.931
0.001915499050513587,1.932
0.001956958362123935,1.933
0.002143093397784778,1.934
0.002418601151728697,1.935
0.0027090906576335352,1.936
0.0029237544725040396,1.937
0.0029556313676058123,1.938
0.0027011769631440415,1.939
0.002111642763916466,1.94
0.0012408685533028083,1.941
0.0002501685479680792,1.942
-0.0006323105054128278,1.943
-0.0011876932080950619,1.944
-0.001288641041706788,1.945
-0.000940164977686023,1.946
-0.00026620621516782264,1.947
0.0005302723525947722,1.948
0.0012173072369761973,1.949
0.00158819030247017,1.95
0.0015081861600411235,1.951
0.0009580487878466399,1.952
6.280029146481358e-05,1.953
-0.0009389218504840821,1.954
-0.0017821303497336082,1.955
-0.0022614275588058955,1.956
-0.002288181708823166,1.957
-0.0019194713107668023,1.958
-0.0013350637315458949,1.959
-0.0007556316100039521,1.96
-0.0003585557832259184,1.961
-0.0002385570788314203,1.962
-0.000400126316548196,1.963
-0.0007660272070341822,1.964
-0.001206854819466068,1.965
-0.0015845795518259138,1.966
-0.0017881519666320116,1.967
-0.0017536101426591435,1.968
-0.0014774805669464078,1.969
-0.0010160145134072026,1.97
-0.00045968356622223415,1.971
0.00010181060616010975,1.972
0.0006045490905825857,1.973
0.0010198144923189451,1.974
0.0013492432180225557,1.975
0.001606764513940801,1.976
0.0017956248044600153,1.977
0.0019014853989886226,1.978
0.0019075254383118725,1.979
0.0018128668842475795,1.98
0.0016381081851203892,1.981
0.0014178712262679263,1.982
0.0011873076173382915,1.983
0.0009649616947594744,1.984
0.0007407196768887485,1.985
0.00048239715342428247,1.986
0.00015559840845427212,1.987
-0.0002562773690676824,1.988
-0.0007371462875426147,1.989
-0.0012335806671561129,1.99
-0.0016643003523407422,1.991
-0.0019416963756216268,1.992
-0.0019962792497542434,1.993
-0.0017990421467191616,1.994
-0.0013817478399176318,1.995
-0.0008377607932641662,1.996
-0.00029176491823741554,1.997
0.0001396973624472151,1.998
0.00037791571299840575,1.999
0.0003983695323037019,2.0
0.00022629922222300287,2.001
-8.5173958266906e-05,2.002
-0.0004781957454720989,2.003
-0.0009004666658771143,2.004
-0.0012956054086262691,2.005
-0.0015902914499908265,2.006
-0.0017078140690894978,2.007
-0.0016066225622200746,2.008
-0.0013050341540542325,2.009
-0.0008664371324979007,2.01
-0.0003596000962019938,2.011
0.0001791365441015381,2.012
0.0007580412283289146,2.013
0.001409486593751819,2.014
0.0021512179704462,2.015
0.0029494133477139905,2.016
0.0037098875830478403,2.017
0.004307937121005396,2.018
0.004629477440908017,2.019
0.004592061166628026,2.02
0.0041512968094059004,2.021
0.0033166562659799107,2.022
0.002170099356515823,2.023
0.0008570739309774165,2.024
-0.00045482487657509435,2.025
-0.001617580399738804,2.026
-0.002525125658536185,2.027
-0.0031283342584067474,2.028
-0.003441409028027092,2.029
-0.003521453460934735,2.03
-0.0034292960830283646,2.031
-0.003200375101191977,2.032
-0.0028399427817841294,2.033
-0.0023471198576163975,2.034
-0.0017530354653024706,2.035
-0.0011211464179685512,2.036
-0.0004969088714886369,2.037
0.00012596658538135922,2.038
0.0007756800497977244,2.039
0.0014460268339049687,2.04
0.0020724708859277165,2.041
0.0025481142702368,2.042
0.0027567554764734176,2.043
0.002619430234528149,2.044
0.0021378111192093736,2.045
0.0013930911106602077,2.046
0.0005049554190940555,2.047
-0.00040633116933182163,2.048
-0.0012396911253792875,2.049
-0.0019206902380616662,2.05
-0.0024103912007130595,2.051
-0.0027183897825954866,2.052
-0.0028903333771478556,2.053
-0.0029702409593313417,2.054
-0.002978431990527168,2.055
-0.0029149369883026193,2.056
-0.0027707737548329867,2.057
-0.002535746248733193,2.058
-0.0022003742269244516,2.059
-0.001757215286480099,2.06
-0.0012023058631514898,2.061
-0.0005373481795151563,2.062
0.00022062903518360586,2.063
0.001036656848028632,2.064
0.0018765699530533585,2.065
0.0027204098068990927,2.066
0.0035457749501800295,2.067
0.004294928134316612,2.068
0.004859256290241172,2.069
0.005107333294573338,2.07
0.004945449380917545,2.071
0.004371124317994058,2.072
0.0034889078187342157,2.073
0.0024805289119060113,2.074
0.0015435453834135187,2.075
0.0008313728413238082,2.076
0.00042189168751146765,2.077
0.00030290370992598387,2.078
0.0003669967332451261,2.079
0.00045048840956645397,2.08
0.0004117816670978735,2.081
0.00018379390168862095,2.082
-0.00022890036458177838,2.083
-0.0007791661085417452,2.084
-0.0014093185428364933,2.085
-0.002079014011052904,2.086
-0.002772829176217251,2.087
-0.0034789349233884676,2.088
-0.004149970667520038,2.089
-0.004678271121324634,2.09
-0.004923339761460541,2.091
-0.004777087104312891,2.092
-0.004210082662280722,2.093
-0.003279507828948005,2.094
-0.0021164989113240853,2.095
-0.000895816849887626,2.096
0.0002088567117783394,2.097
0.0010596974552530179,2.098
0.0015721720982272056,2.099
0.0017281152704777824,2.1
0.0015844169562941137,2.101
0.001268186959977869,2.102
0.0009441027144946325,2.103
0.0007500769170476779,2.104
0.0007442395725647362,2.105
0.0009036363140196255,2.106
0.0011545689516214567,2.107
0.0014075041904221314,2.108
0.0015985435850426808,2.109
0.0017281879559046262,2.11
0.001865696939198279,2.111
0.002103099319997154,2.112
0.0024861460641710355,2.113
0.00297207815475766,2.114
0.0034375241100245944,2.115
0.0037198390633463854,2.116
0.00366395724682757,2.117
0.0031595723144900037,2.118
0.002167771040315671,2.119
0.0007384571457568615,2.12
-0.0009820070833000823,2.121
-0.0027598947175342353,2.122
-0.004313229160099537,2.123
-0.0053778239924759065,2.124
-0.005777509596749077,2.125
-0.005475020430792951,2.126
-0.0045825686210005856,2.127
-0.0033222208378685726,2.128
-0.0019610275631939318,2.129
-0.0007580045246217641,2.13
7.944356849589599e-05,2.131
0.00044578607822064127,2.132
0.0003716646699697013,2.133
6.8677721978856165e-06,2.134
-0.0004509359780596454,2.135
-0.0008444108044243649,2.136
-0.0011027683401720252,2.137
-0.0012228167684808597,2.138
-0.0012209308563895691,2.139
-0.001089364984606522,2.14
-0.0007745942002258336,2.141
-0.000208401012459213,2.142
0.0006222150325028285,2.143
0.0016371608653724277,2.144
0.002686141257820495,2.145
0.003599821634464897,2.146
0.004242489463324622,2.147
0.004555424756370051,2.148
0.004569333762910177,2.149
0.004368789938374699,2.15
0.004032507517053794,2.151
0.003601096601552771,2.152
0.0030897418437147647,2.153
0.0025114211113776235,2.154
0.0018801115269992358,2.155
0.0011991252789339583,2.156
0.0004506948778911042,2.157
-0.00039967784996843247,2.158
-0.0013763438802660067,2.159
-0.002461161981358306,2.16
-0.0035802316923610384,2.161
-0.004610542076432371,2.162
-0.005399290025999474,2.163
-0.005795566565544371,2.164
-0.005695948595237019,2.165
-0.00509191061487822,2.166
-0.004087804406636964,2.167
-0.0028707543430453583,2.168
-0.0016385946529776177,2.169
-0.0005178627929323927,2.17
0.0004669959928766132,2.171
0.0013491588055201899,2.172
0.0021492116665544755,2.173
0.002826766546916948,2.174
0.003268680145802996,2.175
0.003335024859815471,2.176
0.0029575890423744404,2.177
0.002217717616550186,2.178
0.0013325303403591805,2.179
0.0005596246496957363,2.18
9.277168914319795e-05,2.181
1.0709253533155987e-05,2.182
0.0002843536749188951,2.183
0.0008053948191475335,2.184
0.0014014815244714333,2.185
0.0018475009443048463,2.186
0.0019144518890250348,2.187
0.001456620487829125,2.188
0.00048639752693543627,2.189
-0.0008085412891251926,2.19
-0.0021243401705792176,2.191
-0.003160640022032759,2.192
-0.0037369482403850044,2.193
-0.0038318285893638748,2.194
-0.0035376180504483002,2.195
-0.002990158558298615,2.196
-0.0023195595423347675,2.197
-0.0016258408784162982,2.198
-0.0009656598995464172,2.199
-0.00034810870808510945,2.2
0.00024200234196673548,2.201
0.0008082502461684957,2.202
0.0013371033268073358,2.203
0.0018177951745579684,2.204
0.0022503559171283827,2.205
0.0026289728524577097,2.206
0.002921827355166069,2.207
0.003073556939184405,2.208
0.003026266417169741,2.209
0.002747812701647835,2.21
0.002262635778294628,2.211
0.0016548612505904222,2.212
0.0010261256416944863,2.213
0.0004495187120353143,2.214
-4.088220472882894e-05,2.215
-0.00043739166483001984,2.216
-0.0007531331447118516,2.217
-0.0010273226290697486,2.218
-0.0013196668978386222,2.219
-0.0016869210305291292,2.22
-0.002153899156315247,2.221
-0.0026851180563848445,2.222
-0.0031728914439611896,2.223
-0.0034649406168240715,2.224
-0.0034227786498278578,2.225
-0.0029766670277300553,2.226
-0.0021509433420113773,2.227
-0.0010458582366657558,2.228
0.00021805936081247345,2.229
0.0015511088555019213,2.23
0.002897477829053484,2.231
0.00419194275186564,2.232
0.005316968039702629,2.233
0.0061079414886365995,2.234
0.006398658383454923,2.235
0.006067640560249675,2.236
0.005072481946097661,2.237
0.0034684643874285694,2.238
0.001403681408871561,2.239
-0.0008980511521760984,2.24
-0.0031577713363050153,2.241
-0.005080574800930825,2.242
-0.006414014151082485,2.243
-0.007004612171889392,2.244
-0.006836120950110946,2.245
-0.006028506535504987,2.246
-0.004789111816405464,2.247
-0.0033482714198210307,2.248
-0.0019214606245435296,2.249
-0.0006971647423726011,2.25
0.0001821554956926335,2.251
0.0006430874515591554,2.252
0.0006890359023391398,2.253
0.0004101723879315448,2.254
-4.190835607500715e-06,2.255
-0.0002939428612271307,2.256
-0.00021178384975447423,2.257
0.0003812840617408184,2.258
0.0014578275785706554,2.259
0.0028172465634322776,2.26
0.004130768857574069,2.261
0.005043144986478015,2.262
0.005308318327171006,2.263
0.004893934246515877,2.264
0.0039886257651995174,2.265
0.0028991193768112275,2.266
0.001902222037844421,2.267
0.0011474744891618188,2.268
0.0006449522013593369,2.269
0.000302347846555036,2.27
-2.470085242656227e-05,2.271
-0.0004739089859506331,2.272
-0.0011132781643002014,2.273
-0.0019108907802585196,2.274
-0.0027619976603434383,2.275
-0.003535500294458788,2.276
-0.0041008719481440865,2.277
-0.004337408448799835,2.278
-0.004144320642199754,2.279
-0.003471683002147527,2.28
-0.0023738744420742594,2.281
-0.001050035951602944,2.282
0.00019187886927478313,2.283
0.0010620591532855858,2.284
0.0014140258005688883,2.285
0.0012719502156880718,2.286
0.0007780292123358051,2.287
0.0001355852040008863,2.288
-0.00043109114331753924,2.289
-0.0007274492825993417,2.29
-0.0006511275065016168,2.291
-0.00023510179578223697,2.292
0.0003597215433202112,2.293
0.0009170620575008548,2.294
0.0012742859821096384,2.295
0.001402805198566095,2.296
0.001411494851133008,2.297
0.001470030942221118,2.298
0.0016950506097452769,2.299
0.0020721803965194348,2.3
0.002461945842100584,2.301
0.002672043175227962,2.302
0.0025432868557759046,2.303
0.002009464702746435,2.304
0.0011148664279255589,2.305
-7.222703457189973e-06,2.306
-0.0011763842714748623,2.307
-0.0022079322582884515,2.308
-0.0029493609842245728,2.309
-0.003309386380763199,2.31
-0.0032692952465523326,2.311
-0.002874503348825863,2.312
-0.0022210811169332606,2.313
-0.0014313386250494008,2.314
-0.0006157581256528748,2.315
0.00014917038234380992,2.316
0.0008159924109796734,2.317
0.001350813462470286,2.318
0.0017271607403895619,2.319
0.0019406279974845777,2.32
0.0020266181427488973,2.321
0.0020564558701929112,2.322
0.0021060917485251985,2.323
0.0022040892276698094,2.324
0.002292304752516587,2.325
0.002244748310073385,2.326
0.0019386933389282728,2.327
0.0013175184535748256,2.328
0.0004061314275642531,2.329
-0.0007061686273648994,2.33
-0.0018919232884672668,2.331
-0.003018418069851731,2.332
-0.003977980019881877,2.333
-0.004689755186412069,2.334
-0.005082445507424036,2.335
-0.005092756020596656,2.336
-0.004678444989839484,2.337
-0.0038359428383376534,2.338
-0.0026274787654769504,2.339
-0.0012045497076877063,2.34
0.0002096231021267002,2.341
0.0013993495934427037,2.342
0.002243540723005493,2.343
0.00273214847386365,2.344
0.0029277504389680136,2.345
0.002934588461661042,2.346
0.0028723964897466392,2.347
0.002833358914569008,2.348
0.0028459037968760893,2.349
0.0028743914083523936,2.35
0.002845531482710917,2.351
0.002666637107497025,2.352
0.0022297932503879078,2.353
0.0014437979271718995,2.354
0.0003100195210766978,2.355
-0.0010205099303869278,2.356
-0.0022827410078448103,2.357
-0.003214920241758646,2.358
-0.0036679940115932758,2.359
-0.003632739845631055,2.36
-0.003196908779227624,2.361
-0.0024941972366331745,2.362
-0.0016732561985385987,2.363
-0.0008816489106631369,2.364
-0.00024686954175621106,2.365
0.00016561611788790207,2.366
0.00039361422705036855,2.367
0.000575188820879685,2.368
0.000895819366488696,2.369
0.0014988170061451286,2.37
0.002395240623848197,2.371
0.003445089294518039,2.372
0.0044277778866484855,2.373
0.005131283290754856,2.374
0.005397999653660097,2.375
0.005132294615578669,2.376
0.004303610147930773,2.377
0.0029577679902857367,2.378
0.0012297193166886458,2.379
-0.0006579040378582766,2.38
-0.00243161380042557,2.381
-0.0038311604163444304,2.382
-0.004673885791910208,2.383
-0.0049076424348340735,2.384
-0.004623156486060401,2.385
-0.00399615053940024,2.386
-0.003204989983264092,2.387
-0.002397142611523379,2.388
-0.0017004769239842646,2.389
-0.0012264044408204244,2.39
-0.0010415937500830124,2.391
-0.0011244359226539468,2.392
-0.0013548046084903768,2.393
-0.0015767512444120107,2.394
-0.0016869992440922202,2.395
-0.001660871032004928,2.396
-0.0015184076096745973,2.397
-0.0012978793410155713,2.398
-0.0010455759082546735,2.399
-0.000791494677714677,2.4
-0.0005160011269293188,2.401
-0.00014360870012385671,2.402
0.00041202200934432236,2.403
0.0011810859770270072,2.404
0.002102130790858633,2.405
0.003037453564474268,2.406
0.003823462162939973,2.407
0.004323280890575596,2.408
0.004459658349314078,2.409
0.0042309416078242035,2.41
0.003718906855792499,2.411
0.0030858447764686246,2.412
0.002538433671876339,2.413
0.0022442102925907467,2.414
0.002243734514748593,2.415
0.002425592982270592,2.416
0.00257260738701769,2.417
0.0024394402703730917,2.418
0.0018360036358402363,2.419
0.000700240300173042,2.42
-0.0008713973612412818,2.421
-0.0026502063140937584,2.422
-0.004339850209376836,2.423
-0.005662658584486498,2.424
-0.006444008871536535,2.425
-0.006652840998885253,2.426
-0.0063813646576477735,2.427
-0.005785037505346097,2.428
-0.005015994362219183,2.429
-0.004182171684574251,2.43
-0.003344592824992097,2.431
-0.0025279269170443413,2.432
-0.0017241248229431982,2.433
-0.0009039020492537034,2.434
-3.742966552581737e-05,2.435
0.0008927452216554188,2.436
0.0018856907220055692,2.437
0.002920847237499446,2.438
0.003963633206365056,2.439
0.0049642139820400295,2.44
0.005841959471303465,2.441
0.0064778948608146154,2.442
0.006737383074087512,2.443
0.006517857384412457,2.444
0.005800344790999685,2.445
0.0046789820698563455,2.446
0.0033425945175702904,2.447
0.0020043541070358713,2.448
0.0008185597898603403,2.449
-0.0001585599205388201,2.45
-0.0009459187780709911,2.451
-0.0015906239582730696,2.452
-0.0021382361505999665,2.453
-0.0026235996050538598,2.454
-0.0030716265988368547,2.455
-0.0034979687062332847,2.456
-0.003898536210739879,2.457
-0.004235576479975552,2.458
-0.00444362077528044,2.459
-0.004457414932350018,2.46
-0.004238245558381468,2.461
-0.003787580991539512,2.462
-0.0031505807356934055,2.463
-0.0024028048358755785,2.464
-0.0016217194752654992,2.465
-0.0008644615193261315,2.466
-0.00017234830213425778,2.467
0.00040880627936556324,2.468
0.0008324622710234225,2.469
0.001086013295974539,2.47
0.0012080733152363442,2.471
0.0012577176245522632,2.472
0.0012738584128387936,2.473
0.0012748867308305476,2.474
0.001292802588003137,2.475
0.0013980680774916287,2.476
0.0016792638952015898,2.477
0.0021810886334312778,2.478
0.0028471856984741387,2.479
0.003514114858447019,2.48
0.003969484337173258,2.481
0.004049719135542204,2.482
0.0037240098214411364,2.483
0.003112984611206461,2.484
0.0024181468651277367,2.485
0.00179907579738761,2.486
0.0012948068650598013,2.487
0.0008426548724405049,2.488
0.0003510277206282198,2.489
-0.0002464628667439767,2.49
-0.0009805319869373586,2.491
-0.0018451429078478747,2.492
-0.0027812758090089867,2.493
-0.0036716119384145847,2.494
-0.0043721345900399385,2.495
-0.004764938985683622,2.496
-0.004799972960895989,2.497
-0.00450561780465734,2.498
-0.003961574460410093,2.499
-0.003257335110321425,2.5
-0.0024773522573909683,2.501
-0.0017194960793287973,2.502
-0.0011075709777719433,2.503
-0.0007520888766339338,2.504
-0.000670749007605881,2.505
-0.0007436498466200668,2.506
-0.0007516074034161783,2.507
-0.00047326527346767207,2.508
0.00021721983681179954,2.509
0.0013036054584105367,2.51
0.002643103663545161,2.511
0.004012829869718815,2.512
0.005157829318816852,2.513
0.005846999724277607,2.514
0.005948938184613151,2.515
0.005487849210351206,2.516
0.004624555986788643,2.517
0.0035706192193017175,2.518
0.0024921835093476377,2.519
0.0014601803095067982,2.52
0.00047002141337402267,2.521
-0.0005037831158270164,2.522
-0.0014691022654278582,2.523
-0.002406343842830559,2.524
-0.0032734521737840744,2.525
-0.004009542343537481,2.526
-0.004536425055057617,2.527
-0.004778467975094929,2.528
-0.004698025562458622,2.529
-0.004305801340608786,2.53
-0.0036299768448850955,2.531
-0.0026820816760182334,2.532
-0.0014624092693668238,2.533
-6.26930300552497e-06,2.534
0.0015641961247802906,2.535
0.003025241807189864,2.536
0.004100671005408373,2.537
0.0045705376425848945,2.538
0.00438051678587637,2.539
0.0036669570933802946,2.54
0.0026878041001000543,2.541
0.001718092640840097,2.542
0.0009489627705476452,2.543
0.00042890392582968425,2.544
8.307225176176415e-05,2.545
-0.00022144124325293522,2.546
-0.000614220342428068,2.547
-0.0011624974778426651,2.548
-0.001817781466858916,2.549
-0.0024150564802673477,2.55
-0.0027463633881936247,2.551
-0.002661297038174494,2.552
-0.0021323164363109474,2.553
-0.0012636729503943272,2.554
-0.0002510680331469678,2.555
0.0006830285776354308,2.556
0.0013428178752017419,2.557
0.0015918614236814462,2.558
0.001373308482586808,2.559
0.0007127579153766148,2.56
-0.0002894274875347362,2.561
-0.0014565442051421927,2.562
-0.002546272667096844,2.563
-0.0033113507050077816,2.564
-0.003584880820822781,2.565
-0.0033204804386693784,2.566
-0.002566890401523708,2.567
-0.0014323575963890755,2.568
-7.602509044515231e-05,2.569
0.0013063062756415711,2.57
0.002528340360092609,2.571
0.0034593879965588055,2.572
0.004031758460932213,2.573
0.004218515825012338,2.574
0.00401334566569456,2.575
0.0034334681176565744,2.576
0.0025445312763987954,2.577
0.001472838125939046,2.578
0.00038286848819845174,2.579
-0.000554890129904899,2.58
-0.0011897787514575477,2.581
-0.0014244645668035362,2.582
-0.0012498956051734465,2.583
-0.0007545417826560931,2.584
-0.000104862511009734,2.585
0.0004916174996431346,2.586
0.0008394454918520109,2.587
0.0008159102932814173,2.588
0.00042051101516152084,2.589
-0.0002140864549464218,2.59
-0.0008734787199848242,2.591
-0.0013556162442521014,2.592
-0.0015555446751516155,2.593
-0.001490982224198717,2.594
-0.0012550747567934644,2.595
-0.0009504800657092324,2.596
-0.0006594214897566885,2.597
-0.0004370903386057574,2.598
-0.00030689783980079703,2.599
-0.0002667608076781425,2.6
-0.00030787766979087296,2.601
-0.0004293417864690148,2.602
-0.0006345443906205121,2.603
-0.0009104238693214893,2.604
-0.001205653267834263,2.605
-0.001429942715117658,2.606
-0.00148253790238036,2.607
-0.0012920791062847046,2.608
-0.0008483129411224935,2.609
-0.00021898489008426034,2.61
0.00045745628174625503,2.611
0.0010169486787094807,2.612
0.001341047388219696,2.613
0.0014079892243642682,2.614
0.0012985796437825212,2.615
0.0011725864307833233,2.616
0.0012155252349666688,2.617
0.0015522133849504786,2.618
0.0021724108761699535,2.619
0.0029201509576794716,2.62
0.0035525690826415956,2.621
0.003837435760410656,2.622
0.003645166556503561,2.623
0.002994855007950476,2.624
0.0020248597040812186,2.625
0.0009048054828499597,2.626
-0.00024295371661280427,2.627
-0.0013620286620803265,2.628
-0.0024226432295964364,2.629
-0.0033707659881926874,2.63
-0.004117672126025961,2.631
-0.004570669443120325,2.632
-0.004671508799549883,2.633
-0.00442132720269403,2.634
-0.003889423377177667,2.635
-0.0032010827322463027,2.636
-0.002488714775182712,2.637
-0.0018260383427261965,2.638
-0.001200497993624022,2.639
-0.0005378627839204055,2.64
0.00024072738354036688,2.641
0.0011492094286231387,2.642
0.0021011209329233264,2.643
0.0029390622177296213,2.644
0.0034936706662487683,2.645
0.0036290727129507,2.646
0.00327199245357053,2.647
0.002436131459859078,2.648
0.0012395294363520188,2.649
-0.00010046364284974015,2.65
-0.0013058850132850576,2.651
-0.0021048453940474823,2.652
-0.0023083338507609436,2.653
-0.0018776804181013667,2.654
-0.0009535629691632161,2.655
0.00018580653235313914,2.656
0.0012276617779686913,2.657
0.00193062870477597,2.658
0.0021831555272986093,2.659
0.0020032275057927525,2.66
0.0014971210403510928,2.661
0.0008106624386583284,2.662
9.985491392304352e-05,2.663
-0.0004782451002639879,2.664
-0.000773416662583175,2.665
-0.0006673847113884076,2.666
-0.00011609822815209696,2.667
0.0008119365521890643,2.668
0.0019263453641639738,2.669
0.0029496333121139715,2.67
0.00359164373528447,2.671
0.0036321586900777162,2.672
0.0029775591420640292,2.673
0.0016793791764145337,2.674
-7.944941322954171e-05,2.675
-0.002016577894964559,2.676
-0.0037926822809182855,2.677
-0.005070745757778055,2.678
-0.0055939268546095775,2.679
-0.00524870040657666,2.68
-0.004084169061203154,2.681
-0.0023162603001187576,2.682
-0.00033331743038482106,2.683
0.0013450966461106115,2.684
0.002196703258786143,2.685
0.0018960125689124181,2.686
0.0005058311016954304,2.687
-0.001484282731647865,2.688
-0.003360971750908359,2.689
-0.0045046087316800605,2.69
-0.004603439502023786,2.691
-0.003689345421551681,2.692
-0.002043762424186361,2.693
-5.190843923198262e-05,2.694
0.0019152161200745729,2.695
0.0035635586516342024,2.696
0.0046990931599459745,2.697
0.005223900997142322,2.698
0.005118033723494654,2.699
0.004426380713416925,2.7
0.003263246687436267,2.701
0.0018189524156862029,2.702
0.00033900917491928027,2.703
-0.0009293053373104809,2.704
-0.001797820631052763,2.705
-0.002172757961938314,2.706
-0.0020537981046686365,2.707
-0.0015047414288162624,2.708
-0.0006123241083383865,2.709
0.00053030735695366,2.71
0.001802747649015252,2.711
0.0030406636199399864,2.712
0.0040524514392613255,2.713
0.004659180464320069,2.714
0.004743576378493898,2.715
0.004279675992008869,2.716
0.0033141011338403137,2.717
0.0019229923417708298,2.718
0.00020053983314977322,2.719
-0.00170746837240395,2.72
-0.0035777374987618973,2.721
-0.005144472268910761,2.722
-0.0061810829637486036,2.723
-0.006571705273417106,2.724
-0.006325813496336149,2.725
-0.005534822664458492,2.726
-0.004326095007997576,2.727
-0.0028655342859337358,2.728
-0.0013891223963253215,2.729
-0.00019154164591545314,2.73
0.0004641295659924777,2.731
0.00046444329621892286,2.732
-9.679866196199138e-05,2.733
-0.0009576456310553818,2.734
-0.0017824355669197281,2.735
-0.002262806660502456,2.736
-0.002201684003926443,2.737
-0.001553980225537796,2.738
-0.00041854708115120063,2.739
0.0010022199828472141,2.74
0.0024693849741306267,2.741
0.0037843684973338154,2.742
0.00482828428096062,2.743
0.005542003568416726,2.744
0.005892208847049098,2.745
0.005863090225943999,2.746
0.0054532155167897585,2.747
0.004664134754103232,2.748
0.003523735363888781,2.749
0.002152757431110691,2.75
0.000787774034243163,2.751
-0.00028950380837033647,2.752
-0.000854586816856137,2.753
-0.0008179776391673216,2.754
-0.0002778282628858304,2.755
0.00047555439956577684,2.756
0.001045704758805865,2.757
0.0010806887886015927,2.758
0.0004019944316159189,2.759
-0.0009434410706986855,2.76
-0.0027045098020585926,2.761
-0.004492977074301782,2.762
-0.005873914837444891,2.763
-0.006476967164995068,2.764
-0.006116719701963319,2.765
-0.004870453449571403,2.766
-0.0030647804145950185,2.767
-0.0011686178616036962,2.768
0.00036993393135332034,2.769
0.0012675382908932174,2.77
0.0014539941093533785,2.771
0.001022859248986559,2.772
0.0001592299974581038,2.773
-0.0008951858070545775,2.774
-0.0018561051822822093,2.775
-0.0024346873348360283,2.776
-0.002407664210500101,2.777
-0.0016939093775222133,2.778
-0.0004046810797543329,2.779
0.0011696147395385797,2.78
0.0026562857457035037,2.781
0.003735673173651176,2.782
0.004239980023770058,2.783
0.004181307166830948,2.784
0.003705755783056639,2.785
0.00300554439597921,2.786
0.002252342155367017,2.787
0.0015666675431549027,2.788
0.0009937254996172007,2.789
0.0005057587799412963,2.79
6.894784899809741e-05,2.791
-0.00028137164235227753,2.792
-0.0004520334190350647,2.793
-0.0003745765812984306,2.794
-6.355669999741314e-05,2.795
0.0003855801755175658,2.796
0.000831468918131199,2.797
0.0011293426203853952,2.798
0.0011637498130814387,2.799
0.000868818468860462,2.8
0.00024307308959685455,2.801
-0.0006491128560994759,2.802
-0.0016876371968800007,2.803
-0.002711237443670348,2.804
-0.0035509961086403943,2.805
-0.004075718458682322,2.806
-0.004216089053907421,2.807
-0.003962454381264601,2.808
-0.0033578172728717915,2.809
-0.0024926375637364467,2.81
-0.001481317621449827,2.811
-0.00042134897911681756,2.812
0.0006236309705108027,2.813
0.0016035179626819182,2.814
0.0024618777480984394,2.815
0.0031297915290105695,2.816
0.0035158441780420895,2.817
0.003520718414267614,2.818
0.003101864276432296,2.819
0.002329287179394283,2.82
0.0013741697516704923,2.821
0.0004477020002917193,2.822
-0.0002692696456409507,2.823
-0.0006751810480198266,2.824
-0.000748928875237725,2.825
-0.0005096991688281003,2.826
1.5598169142794127e-05,2.827
0.000774035438337499,2.828
0.0016320320776386703,2.829
0.002355289975065353,2.83
0.0026750301211811655,2.831
0.0023990611909881503,2.832
0.0014767181620956161,2.833
4.58748258899814e-07,2.834
-0.0018098414571328229,2.835
-0.0036403627120125326,2.836
-0.005143314430505127,2.837
-0.00598883012068211,2.838
-0.005906397265752788,2.839
-0.004757099352898063,2.84
-0.0026335190059016086,2.841
9.741043248537788e-05,2.842
0.002878332856743574,2.843
0.005132241657255677,2.844
0.006421611933309877,2.845
0.0065299289616589425,2.846
0.005470547188087137,2.847
0.0034653775023557685,2.848
0.0009040721919892434,2.849
-0.0017255403685166029,2.85
-0.003929634685100296,2.851
-0.005314583312509378,2.852
-0.005674452528689232,2.853
-0.005020832982570325,2.854
-0.0035718468793433317,2.855
-0.00171517842932346,2.856
7.719567682437589e-05,2.857
0.0013629455771239048,2.858
0.0018318520024466327,2.859
0.0013960608102657369,2.86
0.00023490071470488438,2.861
-0.001273458200609206,2.862
-0.002698493468837377,2.863
-0.0036740273612135073,2.864
-0.0039545100327364885,2.865
-0.0034339123796921583,2.866
-0.0021336026516342245,2.867
-0.00017710666746044077,2.868
0.002223301149140193,2.869
0.004769450910078835,2.87
0.007073469345713583,2.871
0.008672115418116568,2.872
0.009133380184469093,2.873
0.008246746756265126,2.874
0.006160914234029489,2.875
0.003370536726950377,2.876
0.0005486092948644562,2.877
-0.0017064170626980473,2.878
-0.003076504653145756,2.879
-0.003579696143360136,2.88
-0.0034801258945447943,2.881
-0.003132095090152826,2.882
-0.0028416852090516246,2.883
-0.0027917860550890263,2.884
-0.0030118595809618095,2.885
-0.0033685945079335736,2.886
-0.0036233632200191246,2.887
-0.003565566373338534,2.888
-0.0031212305376535146,2.889
-0.0023535905581602325,2.89
-0.0013788661513398227,2.891
-0.00028750552135117595,2.892
0.0008558105137291379,2.893
0.001962113259437397,2.894
0.002913916117859525,2.895
0.0036163340789619365,2.896
0.004028689076201861,2.897
0.004157593181552418,2.898
0.004033385518279753,2.899
0.0036767062544313086,2.9
0.003092533785944004,2.901
0.002313825925733324,2.902
0.0014368112511556955,2.903
0.0006005074415012948,2.904
-6.910161072620607e-05,2.905
-0.0005164320153890989,2.906
-0.0007865898707662563,2.907
-0.0010055390034424694,2.908
-0.0013133466459861536,2.909
-0.0017865219806845378,2.91
-0.002404297492128195,2.911
-0.0030806681885010576,2.912
-0.003725380542521828,2.913
-0.004284824126307999,2.914
-0.004744739928119434,2.915
-0.005110386498964315,2.916
-0.005381965158289747,2.917
-0.005529764636650665,2.918
-0.005481413040719857,2.919
-0.00513402556773026,2.92
-0.004388258345838784,2.921
-0.003191388372586768,2.922
-0.0015738198121243937,2.923
0.00033591850046602023,2.924
0.002346297192552996,2.925
0.0042962327932330405,2.926
0.006126545000217283,2.927
0.007828888096621084,2.928
0.009306573936429793,2.929
0.010303034796256143,2.93
0.010494397578728347,2.931
0.009680020212396298,2.932
0.007912811589927718,2.933
0.005489295345088431,2.934
0.002853958796920702,2.935
0.00047838651962079536,2.936
-0.0012599145794568252,2.937
-0.002158065287804089,2.938
-0.0022249363887765434,2.939
-0.0017123040945694725,2.94
-0.0010958394046032061,2.941
-0.0009098031209694976,2.942
-0.0014824161433211389,2.943
-0.002778250930117498,2.944
-0.0044683622655455986,2.945
-0.006126605619569901,2.946
-0.0073897346247369395,2.947
-0.008019355977867373,2.948
-0.007891877684935222,2.949
-0.006966454196240825,2.95
-0.00526635234340405,2.951
-0.0028903934842119186,2.952
-5.386586924408524e-05,2.953
0.002874036362361618,2.954
0.005403641517999413,2.955
0.007069862582813736,2.956
0.00761867350119651,2.957
0.007087114976996364,2.958
0.005716259575049912,2.959
0.003801610344410501,2.96
0.0016077334606103555,2.961
-0.0006439274604525115,2.962
-0.002773251347827876,2.963
-0.0046466789211263675,2.964
-0.006163808832444615,2.965
-0.0072186878187669975,2.966
-0.00767493832225667,2.967
-0.007390920661327513,2.968
-0.006276381670177423,2.969
-0.004330548918687921,2.97
-0.0016452011914347272,2.971
0.0016064434229974768,2.972
0.005175316697330786,2.973
0.00873005753254898,2.974
0.011852237537204775,2.975
0.014060466495545246,2.976
0.014871842157664407,2.977
0.013892166013044749,2.978
0.010928884856158196,2.979
0.006106434440156153,2.98
-6.825396151753371e-05,2.981
-0.006723494024402864,2.982
-0.012707511862547293,2.983
-0.01678294598676463,2.984
-0.01800110771375227,2.985
-0.01610688614713962,2.986
-0.011675596764723782,2.987
-0.005887787359152467,2.988
-0.00011079572664054157,2.989
0.004499749080844331,2.99
0.007256622587271355,2.991
0.00803814590822055,2.992
0.007247433372081403,2.993
0.005621946552453762,2.994
0.003915706114837915,2.995
0.0025980932333802462,2.996
0.0017318650729241777,2.997
0.0010667993809080078,2.998
0.00027292522513158875,2.999
-0.0008045017778143046,3.0
-0.0019984458959845697,3.001
-0.0028804223720485305,3.002
-0.0030163928617452313,3.003
-0.0022487313836220334,3.004
-0.0007937124103208141,3.005
0.0008850413689007015,3.006
0.002288276710783526,3.007
0.003045989234645205,3.008
0.0030066810593072316,3.009
0.002263524354786582,3.01
0.0011100829977804204,3.011
-7.114326651561282e-05,3.012
-0.0009470780485086656,3.013
-0.0013455981159103906,3.014
-0.0012889748381108175,3.015
-0.0009348711859082709,3.016
-0.00048207916555805143,3.017
-0.00011324906636833911,3.018
1.9767492054596493e-05,3.019
-0.00018477788719386005,3.02
-0.0007359324676272415,3.021
-0.0015243923847998847,3.022
-0.0023427026323642208,3.023
-0.002929187065479387,3.024
-0.003021253093244485,3.025
-0.0024309881073910585,3.026
-0.0011430048169968877,3.027
0.0006058381012269164,3.028
0.002347784511495225,3.029
0.0035520338080053033,3.03
0.0038527208872656013,3.031
0.003193841995915976,3.032
0.0018334358109988538,3.033
0.00022856492517985984,3.034
-0.0011525065053558919,3.035
-0.002004476105947539,3.036
-0.002257484019740431,3.037
-0.002035390858498725,3.038
-0.0015393017016909784,3.039
-0.0009190241786795902,3.04
-0.00021569125373794188,3.041
0.0006056155862861453,3.042
0.0015921799442882158,3.043
0.0027387616493290885,3.044
0.0039168252607497305,3.045
0.0048405457963919775,3.046
0.005140797292251972,3.047
0.004537475143885439,3.048
0.0029988396671915773,3.049
0.0007797753798723278,3.05
-0.0016647281778693972,3.051
-0.0038078532689612803,3.052
-0.005170517751135945,3.053
-0.00544272992182901,3.054
-0.0045868217494202945,3.055
-0.0028644272298393642,3.056
-0.0007667820274381776,3.057
0.0011307178998015233,3.058
0.0023509156985980235,3.059
0.002652013514224716,3.06
0.0020414318599863506,3.061
0.0007093873849142454,3.062
-0.0010052982968855656,3.063
-0.002639473001382679,3.064
-0.0037467473107434773,3.065
-0.004109413284259152,3.066
-0.0038246535008872864,3.067
-0.0032128374319972926,3.068
-0.0026564525878906326,3.069
-0.002447187528021051,3.07
-0.002663368187595903,3.071
-0.0031359967028514457,3.072
-0.003542021875747091,3.073
-0.0035446578776651316,3.074
-0.0028883759970436606,3.075
-0.0014505063228562852,3.076
0.0007139163657147837,3.077
0.003342220880087907,3.078
0.006024169923671203,3.079
0.008396752334334475,3.08
0.010342683338463839,3.081
0.011975028702310311,3.082
0.013388488053844617,3.083
0.014390545748301856,3.084
0.014429867617996936,3.085
0.012821003060731037,3.086
0.009166304968834214,3.087
0.0036632138659375437,3.088
-0.002925154534941571,3.089
-0.009543888165229738,3.09
-0.015162278148107765,3.091
-0.01900827551081457,3.092
-0.020650277878570236,3.093
-0.019939869590624104,3.094
-0.016944020108306295,3.095
-0.011983945277340879,3.096
-0.005721619648492091,3.097
0.0008854437834595603,3.098
0.00679480513898963,3.099
0.011119662276437917,3.1
0.013293518616733791,3.101
0.013131606674820946,3.102
0.010825911134048231,3.103
0.006912354057238583,3.104
0.0021716904557783348,3.105
-0.0025451430049720633,3.106
-0.006483142909103972,3.107
-0.009077218445333119,3.108
-0.009997318159438082,3.109
-0.009203233841187704,3.11
-0.00699182068852513,3.111
-0.003922256563073036,3.112
-0.000579040701512474,3.113
0.0026525126564368737,3.114
0.0055897179698249705,3.115
0.008080395082133235,3.116
0.009869566019837206,3.117
0.010617020980446912,3.118
0.010044477202845237,3.119
0.008129307129007167,3.12
0.005215555462587966,3.121
0.0019353490693830436,3.122
-0.0010324482821034264,3.123
-0.0032225612682042428,3.124
-0.004520152235826977,3.125
-0.005102049531153985,3.126
-0.005239629609600731,3.127
-0.00511634449174003,3.128
-0.004756582839184337,3.129
-0.004079146796322254,3.13
-0.0030233369905974137,3.131
-0.0016250391974640674,3.132
8.348879099240091e-07,3.133
0.001686552668381621,3.134
0.0032169646525594675,3.135
0.004353742261288724,3.136
0.004859049876922444,3.137
0.004498260117055554,3.138
0.0030926215330403153,3.139
0.0006738390649279122,3.14
-0.002374226885280405,3.141
-0.00536707424264819,3.142
-0.007563469978696868,3.143
-0.008416158243796483,3.144
-0.007699003121396527,3.145
-0.005523918355579809,3.146
-0.0022859902140428758,3.147
0.0014387961851964554,3.148
0.004988996033962273,3.149
0.007677242477252119,3.15
0.008885368329100215,3.151
0.008255256285814977,3.152
0.005866513731473161,3.153
0.0022381165189970446,3.154
-0.0018459043594846226,3.155
-0.0055590812318390475,3.156
-0.008213155443884904,3.157
-0.009382480635070235,3.158
-0.008973096387909425,3.159
-0.007204567680718754,3.16
-0.004474454283542716,3.161
-0.0011760704826494803,3.162
0.0023830948954241477,3.163
0.005925422580878547,3.164
0.00913788870174502,3.165
0.011693457972210787,3.166
0.013306778093309471,3.167
0.01376162358803273,3.168
0.012925941222593317,3.169
0.01077880934768462,3.17
0.007456913686956808,3.171
0.0033073797884414164,3.172
-0.0011197779800849095,3.173
-0.0051927906339397254,3.174
-0.008379154142334264,3.175
-0.010391058303399727,3.176
-0.011244968887429117,3.177
-0.011209477877368874,3.178
-0.010648947632055816,3.179
-0.009842043915263896,3.18
-0.008894540693823975,3.181
-0.007799105129202345,3.182
-0.0065509769248666425,3.183
-0.005195117855900424,3.184
-0.0038105258887286652,3.185
-0.0025156690810199047,3.186
-0.0014864317180138548,3.187
-0.0009047572907836649,3.188
-0.0008219231503047663,3.189
-0.000999938290523927,3.19
-0.0008337023275380589,3.191
0.0005283217486093564,3.192
0.003780456127244948,3.193
0.008899457339276275,3.194
0.014846453898731985,3.195
0.01985571158277408,3.196
0.02219893062873821,3.197
0.020986661157624712,3.198
0.016523520079699164,3.199
0.010026136169244892,3.2
0.0029629432508478607,3.201
-0.0035020804466572974,3.202
-0.00865769894002573,3.203
-0.012075471242628498,3.204
-0.013477986083066044,3.205
-0.012863768570696892,3.206
-0.010666753773949003,3.207
-0.007638772684162698,3.208
-0.0045513238802016385,3.209
-0.002001194910295034,3.21
-0.0003784936636739649,3.211
0.00012531226676899208,3.212
-0.00043957085870301345,3.213
-0.0017281866415137053,3.214
-0.0031806617682642252,3.215
-0.004267290380254707,3.216
-0.004687755054744492,3.217
-0.004354635571411843,3.218
-0.0032887190359732693,3.219
-0.001611790731187571,3.22
0.00038527081215020614,3.221
0.002246640128068184,3.222
0.003512436915322754,3.223
0.003950596729689139,3.224
0.003667765732371711,3.225
0.0030229274840623357,3.226
0.0024485329701337297,3.227
0.0022876477601289115,3.228
0.0026847070289088854,3.229
0.003576352863176197,3.23
0.004768199824349257,3.231
0.0059655161450001245,3.232
0.006730815913176984,3.233
0.0065219618285059225,3.234
0.004904345292074453,3.235
0.0018380795575904186,3.236
-0.0021788279640686282,3.237
-0.006266407449974636,3.238
-0.009527711844164108,3.239
-0.011349717134168949,3.24
-0.01147657372674853,3.241
-0.009944584084928586,3.242
-0.007024624779172556,3.243
-0.003190417807282584,3.244
0.0009411066028193725,3.245
0.0047197558188311695,3.246
0.007579008190696603,3.247
0.009123441484626627,3.248
0.00923023427991133,3.249
0.008143587613021988,3.25
0.00641175017739064,3.251
0.004651554584395266,3.252
0.0033014331106897155,3.253
0.00247000948965513,3.254
0.001940181938045903,3.255
0.0013406465954890537,3.256
0.0003501425197321344,3.257
-0.001207406501630135,3.258
-0.003371445938200902,3.259
-0.006058113237516878,3.26
-0.008998974317422062,3.261
-0.011639386261403257,3.262
-0.013142663050460787,3.263
-0.012610590632839824,3.264
-0.009487324408557863,3.265
-0.003954909227156478,3.266
0.0029834516139511076,3.267
0.009858016439943898,3.268
0.015244014893436564,3.269
0.01806549882633012,3.27
0.01765913079007371,3.271
0.013800863674321344,3.272
0.006825279651467987,3.273
-0.0022337292744800978,3.274
-0.011696007154424901,3.275
-0.019589185105642292,3.276
-0.024159623808017804,3.277
-0.024335941221382832,3.278
-0.019994683330675285,3.279
-0.01191763373250024,3.28
-0.001491820460904007,3.281
0.009638145277403908,3.282
0.019795146371975686,3.283
0.02736822161941436,3.284
0.030931328969939092,3.285
0.02953202121483308,3.286
0.02310178654973122,3.287
0.012671041758022491,3.288
0.00014137985138381714,3.289
-0.012218832757498414,3.29
-0.022286981646997127,3.291
-0.02852136243654269,3.292
-0.030203807980587704,3.293
-0.02741054780575334,3.294
-0.02088779568795988,3.295
-0.011948461800271197,3.296
-0.0022481835174808793,3.297
0.006587875240792377,3.298
0.013305726512985427,3.299
0.017222517470362193,3.3
0.018308775654203694,3.301
0.017150957161837732,3.302
0.014712374713870947,3.303
0.011910483024804654,3.304
0.009232529244160043,3.305
0.006623425280572977,3.306
0.0036983546267376688,3.307
0.00012753239330687958,3.308
-0.004062459215776056,3.309
-0.008422945772962674,3.31
-0.012203980979551518,3.311
-0.014580184867668235,3.312
-0.014934155045349758,3.313
-0.013054411186894493,3.314
-0.009147203812506102,3.315
-0.003757056364277405,3.316
0.0023204550518031923,3.317
0.008182123226193523,3.318
0.01305030525440193,3.319
0.01646322310000718,3.32
0.018201588955448933,3.321
0.017997422407380902,3.322
0.015439326620089958,3.323
0.010352343499509052,3.324
0.003304808064806713,3.325
-0.004394327403058431,3.326
-0.011270913829002171,3.327
-0.016263727365505094,3.328
-0.01890684005891829,3.329
-0.019177012475254798,3.33
-0.01724670957147736,3.331
-0.013448746024549941,3.332
-0.008523267673666074,3.333
-0.0036980919045909483,3.334
-0.0002698821204214206,3.335
0.0009525978776533905,3.336
-9.09738146904145e-05,3.337
-0.002743332519296823,3.338
-0.005818784596317447,3.339
-0.00786354180345785,3.34
-0.007436685891262187,3.341
-0.003516088958756984,3.342
0.003897491088394691,3.343
0.013379283675219468,3.344
0.022460476067539044,3.345
0.028645708991537108,3.346
0.030321219358516515,3.347
0.02713845683627116,3.348
0.019914928477494237,3.349
0.010190528408379917,3.35
-0.0002875589004692979,3.351
-0.009857157995696473,3.352
-0.017088486343357596,3.353
-0.02105744343275008,3.354
-0.02160610265224235,3.355
-0.019236052407810088,3.356
-0.014745345299974648,3.357
-0.00897712232838235,3.358
-0.0027589745772419894,3.359
0.0030915850397931276,3.36
0.00777831336573653,3.361
0.01059600677095572,3.362
0.01109661943980505,3.363
0.009279477002495198,3.364
0.005627897482567229,3.365
0.0009239989565002536,3.366
-0.00402504729353461,3.367
-0.00853039057908641,3.368
-0.011952756451889307,3.369
-0.0135873786294666,3.37
-0.012732182456804467,3.371
-0.00899862104674769,3.372
-0.0027089118518678545,3.373
0.00490955626000115,3.374
0.01198813305914034,3.375
0.01668504998357824,3.376
0.01782397478261552,3.377
0.015128785416100068,3.378
0.009094681221362913,3.379
0.0007646545444342299,3.38
-0.008354937469158996,3.381
-0.016266308089926216,3.382
-0.020688103833776204,3.383
-0.019735959435685024,3.384
-0.012802555039929102,3.385
-0.0010367183490325397,3.386
0.012925515441474942,3.387
0.02573548580002838,3.388
0.034134595215593096,3.389
0.03563149705386876,3.39
0.02923568331969536,3.391
0.016108186231221955,3.392
-0.0005781065523860329,3.393
-0.016816899257440156,3.394
-0.02917604064054892,3.395
-0.03560617466042177,3.396
-0.03556120279934419,3.397
-0.02971590380737183,3.398
-0.01962730522517753,3.399
-0.007517617997890319,3.4
0.004050461882249998,3.401
0.012823927389411528,3.402
0.017496962391818964,3.403
0.01787104281065718,3.404
0.014587296932762967,3.405
0.008745967742079402,3.406
0.0016140603346403277,3.407
-0.005460930645008678,3.408
-0.01102705295163397,3.409
-0.01375119103199723,3.41
-0.012946787483522256,3.411
-0.00894943961136918,3.412
-0.003037041761068122,3.413
0.0029826120066687774,3.414
0.007329051928355981,3.415
0.008789077437431785,3.416
0.007023576566522786,3.417
0.0025352927680216955,3.418
-0.0035465756059506323,3.419
-0.009673555673924082,3.42
-0.014108237640044837,3.421
-0.015267257965857052,3.422
-0.01211237012882107,3.423
-0.0044212293181935276,3.424
0.007196075110195252,3.425
0.02148936930271431,3.426
0.03674040448517249,3.427
0.05070496107191328,3.428
0.060432270511052225,3.429
0.0624911445442429,3.43
0.0540392854202763,3.431
0.03434541135310624,3.432
0.00571584320048437,3.433
-0.026811136049694304,3.434
-0.05677455845133137,3.435
-0.07802455906735105,3.436
-0.08626470780410966,3.437
-0.07996636326783337,3.438
-0.06070713767751079,3.439
-0.033026817970284526,3.44
-0.0034411001723028984,3.441
0.021490598380811268,3.442
0.03722102150835951,3.443
0.04231678686752006,3.444
0.03817272078130841,3.445
0.02779245509774401,3.446
0.014540672026808239,3.447
0.001379537814439486,3.448
-0.009495621361698904,3.449
-0.016838553775067832,3.45
-0.02036902578655811,3.451
-0.02048230998668382,3.452
-0.017749604344017886,3.453
-0.012575039181554764,3.454
-0.005126525963144145,3.455
0.0045272755281871475,3.456
0.01598321003778235,3.457
0.027902285522415186,3.458
0.03785841271020562,3.459
0.04311438124795093,3.46
0.04191179692826115,3.461
0.03420991808816006,3.462
0.021356935579753163,3.463
0.005279813494922322,3.464
-0.011963667681413073,3.465
-0.028061298032813483,3.466
-0.04026568522361048,3.467
-0.0458638282529387,3.468
-0.0432952440980412,3.469
-0.033033181934310055,3.47
-0.017534507442074382,3.471
-0.0004630827796313973,3.472
0.014288592119291949,3.473
0.023558738988983034,3.474
0.025779066974487976,3.475
0.021444513599592024,3.476
0.0128290818650262,3.477
0.003007536816689251,3.478
-0.005316221256153318,3.479
-0.010654204058107812,3.48
-0.012945255630955428,3.481
-0.013076622726866547,3.482
-0.012037040941951233,3.483
-0.01031930427592191,3.484
-0.00794142467429244,3.485
-0.0048402104237949125,3.486
-0.0011785005403900247,3.487
0.00258613628418574,3.488
0.005798868008784891,3.489
0.007796969496773297,3.49
0.008112212196266719,3.491
0.006641558948179634,3.492
0.003793088116197152,3.493
0.0005552902576193752,3.494
-0.0016694699445360054,3.495
-0.001541152672998416,3.496
0.0016203468973841342,3.497
0.007424957448921444,3.498
0.01445850381568694,3.499
0.020844991603054773,3.5
0.024954627236041693,3.501
0.02574632873946024,3.502
0.022715621086361475,3.503
0.015891625056054796,3.504
0.0060392977688117815,3.505
-0.00531781636896463,3.506
-0.016248309950999795,3.507
-0.02488474265973424,3.508
-0.02978973123589594,3.509
-0.03015054739533541,3.51
-0.025839265933049357,3.511
-0.017478244290778575,3.512
-0.006519431699171569,3.513
0.004927299502413771,3.514
0.01460939545906021,3.515
0.020690696907110374,3.516
0.022129907765500435,3.517
0.018859444313035264,3.518
0.011763771601621342,3.519
0.002474166230586396,3.52
