VaMe,time
0.00983687192074434,0.001
0.011157606820095927,0.002
0.01248253300447836,0.003
0.013809931848277722,0.004
0.015138224228264871,0.005
0.016466018767942698,0.006
0.017792133560892612,0.007
0.019115590446142746,0.008
0.0204355861905643,0.009
0.02175144826186613,0.01
0.02306258428663449,0.011
0.02436843598299652,0.012
0.025668449870098305,0.013
0.02696206847225267,0.014
0.02824873020216617,0.015
0.02952786568590094,0.016
0.030798893338352486,0.017
0.03206122292547507,0.018
0.03331426599080197,0.019
0.03455744376187451,0.02
0.03579018524998221,0.021
0.037011916425994405,0.022
0.03822205176560612,0.023
0.03942000018944217,0.024
0.040605182826388184,0.025
0.04177704856657729,0.026
0.042935075850145145,0.027
0.0440787589191732,0.028
0.0452075918261553,0.029
0.04632107171603399,0.03
0.04741872582783761,0.031
0.04850014213295195,0.032
0.04956498115583254,0.033
0.05061295925160692,0.034
0.051643813772557154,0.035
0.05265728576160405,0.036
0.053653146122833686,0.037
0.05463124645905632,0.038
0.05559156065893031,0.039
0.056534203270318516,0.04
0.05745942491474726,0.041
0.05836758904390827,0.042
0.05925913611611814,0.043
0.060134540910026096,0.044
0.06099427242339437,0.045
0.06183877446314893,0.046
0.06266847725355056,0.047
0.06348382630517789,0.048
0.06428530786040801,0.049
0.06507346167693653,0.05
0.0658488799118613,0.051
0.06661219417094756,0.052
0.06736405537526059,0.053
0.06810511179955984,0.054
0.06883598941285247,0.055
0.06955727672153166,0.056
0.07026951490623369,0.057
0.07097319327213304,0.058
0.07166874918713352,0.059
0.07235657037210617,0.06
0.07303699616832539,0.061
0.07371031474500295,0.062
0.07437675780467731,0.063
0.07503650062263134,0.064
0.07568967286881367,0.065
0.07633637607691708,0.066
0.07697670063275863,0.067
0.07761073861540475,0.068
0.0782385900778085,0.069
0.07886035962566511,0.07
0.079476140909617,0.071
0.0800859937020624,0.072
0.08068993002787124,0.073
0.08128792233337631,0.074
0.08187992581390083,0.075
0.08246589811096044,0.076
0.0830458083022444,0.077
0.0836196347753256,0.078
0.08418735382292485,0.079
0.084748921373889,0.08
0.08530425175046139,0.081
0.08585320208137134,0.082
0.08639557243771158,0.083
0.08693112217008299,0.084
0.08745959240149712,0.085
0.08798072510061748,0.086
0.08849427466108664,0.087
0.08900001063873934,0.088
0.08949771097486069,0.089
0.08998714543711521,0.09
0.09046805168328961,0.091
0.09094011385361855,0.092
0.09140295653561917,0.093
0.09185615314587395,0.094
0.09229923154408941,0.095
0.09273166706362546,0.096
0.09315287697800463,0.097
0.09356223315419723,0.098
0.09395908409494633,0.099
0.09434276166947124,0.1
0.09471256657430928,0.101
0.09506776185690666,0.102
0.09540760549313607,0.103
0.09573141156201288,0.104
0.09603860414485872,0.105
0.09632873947116592,0.106
0.0966014883411119,0.107
0.09685658384099553,0.108
0.09709376050560936,0.109
0.09731272648478986,0.11
0.09751318187078854,0.111
0.09769484861897103,0.112
0.09785747663828712,0.113
0.09800082319315503,0.114
0.09812462137687604,0.115
0.09822855547041229,0.116
0.09831225507674347,0.117
0.09837530848873992,0.118
0.09841728431412596,0.119
0.09843774470665895,0.12
0.0984362373866159,0.121
0.09841227305832903,0.122
0.09836531897005803,0.123
0.09829482773854196,0.124
0.09820027881031834,0.125
0.09808119638959399,0.126
0.09793713074426283,0.127
0.09776762575110443,0.128
0.09757222063679402,0.129
0.09735050620179997,0.13
0.09710219938733082,0.131
0.09682718791980076,0.132
0.0965255226744599,0.133
0.09619736078151475,0.134
0.0958428964582631,0.135
0.09546234259173196,0.136
0.0950559863294525,0.137
0.09462427101027623,0.138
0.09416784772822313,0.139
0.09368757713940146,0.14
0.09318448593467162,0.141
0.0926596918398381,0.142
0.09211432397442099,0.143
0.09154947650191268,0.144
0.09096620995670258,0.145
0.09036557179349654,0.146
0.08974860654137755,0.147
0.08911635518369514,0.148
0.08846985614613584,0.149
0.08781015598700741,0.15
0.08713832905580421,0.151
0.08645549662275233,0.152
0.08576283210606286,0.153
0.08506154240781297,0.154
0.0843528313699278,0.155
0.08363787483245265,0.156
0.08291783125550302,0.157
0.0821938731034885,0.158
0.08146720660625986,0.159
0.08073906521972483,0.16
0.08001068165492072,0.161
0.0792832549301941,0.162
0.07855793148835111,0.163
0.07783580340777145,0.164
0.07711790895934853,0.165
0.07640522705567258,0.166
0.07569867164319193,0.167
0.07499909080294424,0.168
0.0743072706310333,0.169
0.07362394575517145,0.17
0.07294981408354766,0.171
0.07228554564594228,0.172
0.07163177841078129,0.173
0.07098910667458459,0.174
0.07035807663093702,0.175
0.06973919601762167,0.176
0.06913294950289262,0.177
0.06853980941691612,0.178
0.06796023856677813,0.179
0.06739468516971203,0.18
0.0668435706446201,0.181
0.06630727514197349,0.182
0.06578613171024492,0.183
0.06528043549305511,0.184
0.06479046099642533,0.185
0.06431647711178513,0.186
0.06385875602076546,0.187
0.06341757600691059,0.188
0.06299321892430605,0.189
0.06258596331630967,0.19
0.06219607420454658,0.191
0.06182379074355657,0.192
0.061469313482102904,0.193
0.061132794116111805,0.194
0.06081433109737367,0.195
0.06051397205513609,0.196
0.06023172131936782,0.197
0.0599675517674005,0.198
0.05972142157760058,0.199
0.0594932946904011,0.2
0.05928316076332215,0.201
0.059091048773156636,0.202
0.05891702906523144,0.203
0.05876120130479425,0.204
0.05862367074180659,0.205
0.058504524109894394,0.206
0.05840382128089856,0.207
0.05832160552854375,0.208
0.05825791679633433,0.209
0.058212793343409897,0.21
0.05818626050621251,0.211
0.05817831361007974,0.212
0.05818890417495607,0.213
0.05821793660834263,0.214
0.05826527706719321,0.215
0.058330769870324685,0.216
0.05841425321762834,0.217
0.05851556670239423,0.218
0.05863454711345604,0.219
0.05877101427024854,0.22
0.05892475458844173,0.221
0.059095512852535614,0.222
0.05928299515110191,0.223
0.05948687547762325,0.224
0.05970679915405569,0.225
0.059942382782880804,0.226
0.06019321239770414,0.227
0.06045884048981704,0.228
0.060738782079733565,0.229
0.06103250994105749,0.23
0.06133944935097268,0.231
0.06165897440928965,0.232
0.06199040978860072,0.233
0.06233303961275941,0.234
0.06268612038166631,0.235
0.06304889303442003,0.236
0.06342059043544224,0.237
0.06380043814324006,0.238
0.0641876479643375,0.239
0.06458140532611108,0.24
0.06498085513701782,0.241
0.06538509666154357,0.242
0.06579319519975982,0.243
0.06620420630937851,0.244
0.06661720296369718,0.245
0.06703129894370456,0.246
0.06744566402762237,0.247
0.0678595285159899,0.248
0.0682721774735243,0.249
0.06868293663860825,0.25
0.06909115153662188,0.251
0.0694961614673537,0.252
0.06989727629582272,0.253
0.07029377152467671,0.254
0.07068490873025321,0.255
0.0710699704213101,0.256
0.07144829519153598,0.257
0.07181930701811005,0.258
0.07218253594126481,0.259
0.072537627070654,0.26
0.07288433519755613,0.261
0.07322250368531102,0.262
0.07355202885766868,0.263
0.07387281670627723,0.264
0.074184747924719,0.265
0.07448766724542882,0.266
0.07478139458405277,0.267
0.075065740291831,0.268
0.07534051318304577,0.269
0.07560552229779874,0.27
0.0758605770726752,0.271
0.07610548949755358,0.272
0.07634008006599839,0.273
0.07656418734127833,0.274
0.07677767924948331,0.275
0.07698046324566142,0.276
0.07717249236665578,0.277
0.07735376445774278,0.278
0.07752431195534251,0.279
0.07768417949094981,0.28
0.07783339455005563,0.281
0.0779719546741499,0.282
0.07809985225138588,0.283
0.07821712592040454,0.284
0.07832390976373026,0.285
0.07842046075775594,0.286
0.078507156353435,0.287
0.07858446127999136,0.288
0.07865287515996856,0.289
0.07871289165581377,0.29
0.07876499873623707,0.291
0.07880971405074412,0.292
0.07884762205462799,0.293
0.07887938838983295,0.294
0.07890574585594583,0.295
0.07892745720961569,0.296
0.07894527279134127,0.297
0.07895991063449598,0.298
0.07897206789700048,0.299
0.07898244048418737,0.3
0.07899172638226239,0.301
0.07900060912476603,0.302
0.079009733188283,0.303
0.07901968968255829,0.304
0.0790310201005322,0.305
0.07904422563767331,0.306
0.0790597671259226,0.307
0.07907805531894532,0.308
0.07909944419897207,0.309
0.07912423761649173,0.31
0.07915270426562811,0.311
0.07918508919061339,0.312
0.0792216170296099,0.313
0.07926248908314436,0.314
0.0793078783187552,0.315
0.07935792583762047,0.316
0.07941274008720443,0.317
0.07947239720069227,0.318
0.079536938728862,0.319
0.07960636350585562,0.32
0.07968061664597932,0.321
0.07975958705814964,0.322
0.07984312079109347,0.323
0.07993104343097021,0.324
0.08002318099401659,0.325
0.08011937496890424,0.326
0.08021949058702552,0.327
0.080323417598544,0.328
0.08043106298842778,0.329
0.08054233561047355,0.33
0.080657123815477,0.331
0.0807752716113475,0.332
0.08089656548124137,0.333
0.08102073917115636,0.334
0.08114748911009137,0.335
0.0812764899868025,0.336
0.08140740773145473,0.337
0.0815399105992086,0.338
0.08167367772738907,0.339
0.08180840290792635,0.34
0.08194379053015825,0.341
0.08207954130955196,0.342
0.08221532986933844,0.343
0.08235078607015198,0.344
0.08248549586154015,0.345
0.08261902387237102,0.346
0.08275094448167977,0.347
0.0828808682553475,0.348
0.08300845706362284,0.349
0.08313342313410695,0.35
0.08325550781830461,0.351
0.08337444688753931,0.352
0.08348995163191732,0.353
0.0836017312866803,0.354
0.0837095422080559,0.355
0.08381322737838513,0.356
0.08391272442375082,0.357
0.08400803892188348,0.358
0.08409919649655481,0.359
0.08418620750953403,0.36
0.08426907375835718,0.361
0.08434782788361564,0.362
0.0844225712721972,0.363
0.08449348752869029,0.364
0.08456082623524187,0.365
0.08462486380428445,0.366
0.08468586596950901,0.367
0.08474408457792562,0.368
0.08479979359382037,0.369
0.08485333385934717,0.37
0.08490513703429055,0.371
0.08495572098364775,0.372
0.08500566199692525,0.373
0.08505555338610217,0.374
0.08510596345692506,0.375
0.08515740951000515,0.376
0.08521035683188528,0.377
0.08526523377871499,0.378
0.0853224487188478,0.379
0.08538240353780563,0.38
0.08544550435444996,0.381
0.08551216973040782,0.382
0.08558283489716105,0.383
0.08565794929180715,0.384
0.08573796476167843,0.385
0.08582331369174703,0.386
0.08591438347546465,0.387
0.08601150279890347,0.388
0.08611494707283332,0.389
0.08622494938900778,0.39
0.08634170028910242,0.391
0.08646533606997797,0.392
0.08659592935065473,0.393
0.08673349131681495,0.394
0.08687797738509978,0.395
0.08702928535014892,0.396
0.08718725299741055,0.397
0.08735166891030363,0.398
0.08752229324036156,0.399
0.08769887086560431,0.4
0.08788112526711007,0.401
0.08806874185165986,0.402
0.08826136664286278,0.403
0.08845863312430174,0.404
0.08866019762239087,0.405
0.08886575511016569,0.406
0.0890750233499825,0.407
0.08928770861532605,0.408
0.08950349175978091,0.409
0.08972205813596866,0.41
0.08994314573080736,0.411
0.09016657313502278,0.412
0.0903922344387945,0.413
0.09062006659002646,0.414
0.09085000344609868,0.415
0.09108193918639299,0.416
0.09131571896232438,0.417
0.0915511512956115,0.418
0.09178802137232224,0.419
0.09202609266914438,0.42
0.09226509742014681,0.421
0.09250472078767223,0.422
0.09274458416441314,0.423
0.0929842344527166,0.424
0.09322314513716723,0.425
0.09346072826164387,0.426
0.09369634991405996,0.427
0.09392934080804045,0.428
0.0941589954530709,0.429
0.09438455985364037,0.43
0.09460522102141888,0.431
0.09482011545847366,0.432
0.09502835677162455,0.433
0.09522906671413281,0.434
0.09542139591686793,0.435
0.09560452816193331,0.436
0.09577766575687241,0.437
0.0959399995922408,0.438
0.09609068203468334,0.439
0.09622882796615397,0.44
0.09635354832596643,0.441
0.09646399371529897,0.442
0.09655938503787016,0.443
0.09663902186852064,0.444
0.09670226717443875,0.445
0.09674851050631322,0.446
0.09677712271396975,0.447
0.09678743363903447,0.448
0.09677875584504896,0.449
0.0967504395984246,0.45
0.09670192911289173,0.451
0.09663280353363425,0.452
0.09654279495583447,0.453
0.09643177697823628,0.454
0.09629971997060839,0.455
0.0961466267739484,0.456
0.09597249469297654,0.457
0.09577734149492982,0.458
0.09556127388012338,0.459
0.09532454843608026,0.46
0.09506759882139336,0.461
0.0947910264872937,0.462
0.09449556009609829,0.463
0.09418199254295126,0.464
0.0938511164972129,0.465
0.09350369512881557,0.466
0.09314048497713273,0.467
0.0927622822082606,0.468
0.09236995495923815,0.469
0.0919644486414181,0.47
0.0915467656433159,0.471
0.09111792544754418,0.472
0.0906789204440938,0.473
0.09023069312455684,0.474
0.08977414657497555,0.475
0.0893101696373527,0.476
0.08883965323027279,0.477
0.08836349104001921,0.478
0.08788256725153544,0.479
0.08739773642418647,0.48
0.08690980201814846,0.481
0.08641949926667139,0.482
0.08592748509917517,0.483
0.08543433424315135,0.484
0.08494053872657538,0.485
0.08444650893343876,0.486
0.08395257642206921,0.487
0.08345899938355283,0.488
0.08296597130249923,0.489
0.08247363342896794,0.49
0.08198209126779003,0.491
0.08149143345188618,0.492
0.08100174888652906,0.493
0.0805131364914491,0.494
0.08002570219306647,0.495
0.07953954154109352,0.496
0.07905471805348234,0.497
0.07857125925162163,0.498
0.07808918006339441,0.499
0.07760851563175203,0.5
0.07712933939146664,0.501
0.07665175573691677,0.502
0.07617587267299801,0.503
0.0757017793892261,0.504
0.07522955561317489,0.505
0.07475930856673438,0.506
0.07429120734189469,0.507
0.07382549081561346,0.508
0.073362443295405,0.509
0.07290235339246608,0.51
0.07244549351961374,0.511
0.07199214151702456,0.512
0.07154261972169575,0.513
0.07109731643138073,0.514
0.07065668005906793,0.515
0.07022119339627808,0.516
0.0697913393609595,0.517
0.06936756977941443,0.518
0.06895028697392365,0.519
0.06853984171427518,0.52
0.06813654231601111,0.521
0.06774066756551281,0.522
0.06735248015417046,0.523
0.06697223930430325,0.524
0.06660021013984471,0.525
0.06623666579516908,0.526
0.06588187780571206,0.527
0.06553609747560465,0.528
0.06519954587678961,0.529
0.06487242784126036,0.53
0.0645549600706168,0.531
0.06424739134634722,0.532
0.0639500040690151,0.533
0.06366309865147561,0.534
0.06338696792098884,0.535
0.06312187219567676,0.536
0.06286802595159713,0.537
0.06262559773961562,0.538
0.06239471370964417,0.539
0.062175456481215106,0.54
0.06196785974086882,0.541
0.06177190278731824,0.542
0.06158750797026932,0.543
0.06141454231230953,0.544
0.06125282494542526,0.545
0.06110214114042605,0.546
0.06096226036269207,0.547
0.060832953846555626,0.548
0.06071400777364666,0.549
0.060605229557907196,0.55
0.06050644615798546,0.551
0.060417494529098954,0.552
0.060338205334494015,0.553
0.06026838380322039,0.554
0.06020779630701355,0.555
0.06015616946639689,0.556
0.06011319794468256,0.557
0.06007855122290949,0.558
0.06005187428452821,0.559
0.06003278312247606,0.56
0.060020858637646814,0.561
0.06001564336310833,0.562
0.06001664500753661,0.563
0.060023348849383866,0.564
0.060035237943919066,0.565
0.06005181685706638,0.566
0.060072632270830234,0.567
0.06009728322169991,0.568
0.060125415441537655,0.569
0.06015669840790503,0.57
0.06019079510118657,0.571
0.060227348734524254,0.572
0.06026600074519081,0.573
0.060306424574050874,0.574
0.06034835227780352,0.575
0.060391585565710615,0.576
0.06043599217630636,0.577
0.06048149074447727,0.578
0.06052802776618842,0.579
0.060575550259582805,0.58
0.060623982128322186,0.581
0.060673217783091954,0.582
0.06072313799633664,0.583
0.060773635864953775,0.584
0.060824638392756765,0.585
0.0608761186389812,0.586
0.060928098845917614,0.587
0.06098064570500226,0.588
0.06103385837300794,0.589
0.06108784920070343,0.59
0.06114271984732154,0.591
0.06119854306406751,0.592
0.06125536173885255,0.593
0.061313203347500955,0.594
0.06137209612741272,0.595
0.061432077045402635,0.596
0.06149319068105776,0.597
0.06155548248378777,0.598
0.06161899069949109,0.599
0.06168374044788532,0.6
0.06174974159002183,0.601
0.061816990099451456,0.602
0.061885471251199094,0.603
0.06195516223361395,0.604
0.0620260317380015,0.605
0.062098034559688146,0.606
0.06217110058975874,0.607
0.06224512264725108,0.608
0.06231995412258228,0.609
0.06239542259420812,0.61
0.06247135140976304,0.611
0.06254757666430916,0.612
0.06262395306859149,0.613
0.06270034768604735,0.614
0.06277662370622543,0.615
0.06285261990348864,0.616
0.06292813548413934,0.617
0.06300292807258004,0.618
0.06307672169856055,0.619
0.06314921410841431,0.62
0.06322007577616337,0.621
0.06328894155576628,0.622
0.06335540580969716,0.623
0.06341903284327773,0.624
0.0634793816823875,0.625
0.06353603379733115,0.626
0.06358861314486965,0.627
0.06363679174345212,0.628
0.0636802772214219,0.629
0.06371878606245925,0.63
0.06375202014767904,0.631
0.06377966887844588,0.632
0.06380143921022052,0.633
0.06381709362211296,0.634
0.06382647644443488,0.635
0.0638295198128544,0.636
0.06382622655937192,0.637
0.06381663444819813,0.638
0.063800781789836,0.639
0.06377870174059372,0.64
0.06375044831141835,0.641
0.06371612627730927,0.642
0.06367589863732853,0.643
0.06362996575167577,0.644
0.06357852938244972,0.645
0.06352177008211586,0.646
0.06345985491490481,0.647
0.06339295909992336,0.648
0.06332127661750721,0.649
0.06324501257700144,0.65
0.06316436271643733,0.651
0.06307948990055373,0.652
0.06299050833860802,0.653
0.06289747858124668,0.654
0.06280040893306392,0.655
0.06269926241118942,0.656
0.06259397026037017,0.657
0.06248444636577475,0.658
0.06237059355443641,0.659
0.06225229782166191,0.66
0.062129419491858795,0.661
0.062001801209820843,0.662
0.0618693014270629,0.663
0.06173183832526906,0.664
0.061589422246895995,0.665
0.06144216383050324,0.666
0.061290254570329626,0.667
0.06113392679676323,0.668
0.06097341528410687,0.669
0.060808947385070256,0.67
0.060640764620637694,0.671
0.06046915123988225,0.672
0.06029444784675571,0.673
0.060117045395608686,0.674
0.05993736334082817,0.675
0.059755819809904284,0.676
0.05957280737812536,0.677
0.05938868616441602,0.678
0.05920379127325965,0.679
0.05901844118177143,0.68
0.05883293939800458,0.681
0.05864757093113039,0.682
0.05846259748997341,0.683
0.05827825373185799,0.684
0.05809474475176547,0.685
0.05791224335085843,0.686
0.057730885246167936,0.687
0.05755076355128158,0.688
0.05737192943535505,0.689
0.05719440443706099,0.69
0.0570182008240391,0.691
0.05684334186002307,0.692
0.056669875638916956,0.693
0.05649787782943697,0.694
0.05632744015038182,0.695
0.056158648852203355,0.696
0.05599157110008613,0.697
0.05582626559413972,0.698
0.0556628103230152,0.699
0.05550132624564661,0.7
0.055341983294391286,0.701
0.05518498597393057,0.702
0.05503054573116479,0.703
0.05487885937658681,0.704
0.05473011040445406,0.705
0.05458448748691865,0.706
0.054442200647195724,0.707
0.05430348386898713,0.708
0.05416858442444151,0.709
0.05403774366033773,0.71
0.05391117665853577,0.711
0.05378906065418868,0.712
0.05367153677967486,0.713
0.053558719510766024,0.714
0.05345070706002497,0.715
0.05334759120019815,0.716
0.05324946581377571,0.717
0.053156430991626674,0.718
0.05306858834636945,0.719
0.052986027626975685,0.72
0.052908815491055514,0.721
0.052836999401187634,0.722
0.052770623814588496,0.723
0.05270974263995276,0.724
0.05265441668911656,0.725
0.052604698088877244,0.726
0.0525606151158504,0.727
0.052522170376068815,0.728
0.05248935015639275,0.729
0.05246213289578084,0.73
0.05244049056262302,0.731
0.05242438467955836,0.732
0.05241375984495864,0.733
0.052408535307964514,0.734
0.05240859622762599,0.735
0.05241379231771927,0.736
0.05242395064773304,0.737
0.05243889784852064,0.738
0.05245848045853692,0.739
0.0524825747259838,0.74
0.052511080754952436,0.741
0.05254390320045334,0.742
0.052580934556180625,0.743
0.05262205918709119,0.744
0.05266717534030688,0.745
0.05271621483139214,0.746
0.05276914569565465,0.747
0.05282595623756635,0.748
0.05288662957839558,0.749
0.05295112724776778,0.75
0.05301939416231437,0.751
0.05309137560550494,0.752
0.05316702814942553,0.753
0.0532463158505935,0.754
0.053329194576874336,0.755
0.05341559749703889,0.756
0.053505435276496455,0.757
0.053598608907855165,0.758
0.05369502047278613,0.759
0.05379457148042143,0.76
0.053897149937802445,0.761
0.05400261719784286,0.762
0.05411080688839953,0.763
0.05422153543175802,0.764
0.05433461102374964,0.765
0.05444983061171898,0.766
0.05456696904138527,0.767
0.05468577729029416,0.768
0.05480599888173019,0.769
0.05492739159429376,0.77
0.05504973561841146,0.771
0.05517282194606427,0.772
0.05529643232329422,0.773
0.05542033406882609,0.774
0.055544300110901036,0.775
0.055668137482026474,0.776
0.05579170213400376,0.777
0.05591489134053975,0.778
0.0560376182318162,0.779
0.056159786542282306,0.78
0.05628128545785828,0.781
0.05640200261660103,0.782
0.05652183412218947,0.783
0.05664067710691645,0.784
0.05675841050590853,0.785
0.056874883810570945,0.786
0.056989924773980544,0.787
0.057103353487174394,0.788
0.057214984737318425,0.789
0.05732461677444149,0.79
0.057432022235725494,0.791
0.05753695721800906,0.792
0.05763918477872424,0.793
0.05773849542270493,0.794
0.05783471228580274,0.795
0.05792767788403702,0.796
0.05801722952541808,0.797
0.058103183991853054,0.798
0.05818534723705254,0.799
0.0582635383745713,0.8
0.058337604879355326,0.801
0.05840741680317537,0.802
0.05847284475036001,0.803
0.05853374324842504,0.804
0.05858995949163616,0.805
0.058641361267881775,0.806
0.05868786184436755,0.807
0.05872942779901233,0.808
0.05876606703428889,0.809
0.058797802048213416,0.81
0.058824645722721475,0.811
0.0588466016809,0.812
0.058863692175485906,0.813
0.05887599378634183,0.814
0.058883661636713346,0.815
0.058886935101772446,0.816
0.058886124884880826,0.817
0.058881584217785325,0.818
0.05887367302466245,0.819
0.05886273387543579,0.82
0.058849094704432614,0.821
0.05883309065808109,0.822
0.05881508512012343,0.823
0.058795478780154085,0.824
0.05877470600656469,0.825
0.05875322113392556,0.826
0.0587314779774349,0.827
0.05870990769449929,0.828
0.05868890309250743,0.829
0.05866881460258696,0.83
0.05864995341465431,0.831
0.05863259309917303,0.832
0.05861696616383395,0.833
0.05860325819377526,0.834
0.058591605287888114,0.835
0.05858209806500081,0.836
0.05857478940415378,0.837
0.05856970093818496,0.838
0.05856682524274778,0.839
0.05856612214292152,0.84
0.05856751137056155,0.841
0.05857087062705773,0.842
0.05857604618267312,0.843
0.05858287120480492,0.844
0.058591181621328176,0.845
0.058600823273346,0.846
0.058611648035357934,0.847
0.0586234993316886,0.848
0.05863619302946791,0.849
0.05864950595763357,0.85
0.058663178568260525,0.851
0.05867692354383181,0.852
0.05869042977722178,0.853
0.05870336013489531,0.854
0.05871534669916995,0.855
0.0587259875323065,0.856
0.058734847693616116,0.857
0.05874146469699701,0.858
0.05874535541539674,0.859
0.058746018734561846,0.86
0.05874293054066682,0.861
0.05873553933670967,0.862
0.0587232792043736,0.863
0.0587056045350167,0.864
0.05868203132081008,0.865
0.05865216540761072,0.866
0.058615704936931926,0.867
0.05857241314688781,0.868
0.05852207831449949,0.869
0.05846450148746448,0.87
0.05839953397809338,0.871
0.05832713595460238,0.872
0.05824741479524366,0.873
0.058160627206226556,0.874
0.058067148490392156,0.875
0.057967420366500336,0.876
0.057861896687341006,0.877
0.05775101240962569,0.878
0.057635185788221605,0.879
0.057514835768480065,0.88
0.05739039385479866,0.881
0.057262306542522616,0.882
0.05713103255258087,0.883
0.05699703876817738,0.884
0.056860797183069384,0.885
0.05672278322096912,0.886
0.056583474191843494,0.887
0.05644334591523674,0.888
0.056302865848238424,0.889
0.056162482241892235,0.89
0.05602261139759774,0.891
0.05588362872253173,0.892
0.05574586905313784,0.893
0.055609635649196944,0.894
0.05547521298449428,0.895
0.05534287965282657,0.896
0.05521291912131714,0.897
0.05508562550977455,0.898
0.05496130141544155,0.899
0.05484024625695508,0.9
0.05472273895406981,0.901
0.05460902666502931,0.902
0.05449932831853712,0.903
0.05439384666263725,0.904
0.0542927763363088,0.905
0.0541963025758223,0.906
0.05410459215230674,0.907
0.05401778103000784,0.908
0.05393596419274155,0.909
0.05385919216334077,0.91
0.05378747589957091,0.911
0.05372079788974312,0.912
0.05365912399259596,0.913
0.053602409364899004,0.914
0.053550594207483246,0.915
0.053503594130680426,0.916
0.05346130019623096,0.917
0.05342359744393248,0.918
0.05339039198267552,0.919
0.05336163076625081,0.92
0.05333730577186489,0.921
0.05331744107461555,0.922
0.05330206780119715,0.923
0.05329120130316959,0.924
0.05328483568371832,0.925
0.05328295470067178,0.926
0.053285543922869806,0.927
0.05329259358163486,0.928
0.053304092298812826,0.929
0.05332001584578331,0.93
0.05334031449247673,0.931
0.05336490176091446,0.932
0.0533936478078529,0.933
0.053426379195856445,0.934
0.053462882131024965,0.935
0.053502903660071786,0.936
0.053546149275893316,0.937
0.053592282676672175,0.938
0.05364093332934038,0.939
0.05369170824372187,0.94
0.05374419893939028,0.941
0.05379797869321231,0.942
0.053852596269260894,0.943
0.05390758197168525,0.944
0.05396247296877878,0.945
0.05401684384098385,0.946
0.054070321547039286,0.947
0.05412257355844556,0.948
0.05417327837041595,0.949
0.054222111398909596,0.95
0.05426876808111232,0.951
0.05431300340017492,0.952
0.05435465406196113,0.953
0.05439362978215176,0.954
0.054429880330105526,0.955
0.05446336390309906,0.956
0.05449404554482358,0.957
0.054521924931793024,0.958
0.054547065706105013,0.959
0.054569604460321254,0.96
0.05458973547876392,0.961
0.05460767877223604,0.962
0.05462364994750957,0.963
0.05463785264023607,0.964
0.05465049387886942,0.965
0.0546618016894617,0.966
0.05467202806849074,0.967
0.05468143557445032,0.968
0.05469027510512937,0.969
0.05469876692800501,0.97
0.054707092737816175,0.971
0.05471539439580721,0.972
0.0547237728019341,0.973
0.05473228950146155,0.974
0.054740973858190906,0.975
0.05474982939492783,0.976
0.054758832401108536,0.977
0.05476792713752404,0.978
0.05477703029354139,0.979
0.05478604994568374,0.98
0.05479490988505071,0.981
0.05480356680682686,0.982
0.054812013841971596,0.983
0.054820269321558784,0.984
0.05482835448564194,0.985
0.054836271188310845,0.986
0.05484399426924979,0.987
0.05485148228482561,0.988
0.054858695352916126,0.989
0.05486560926567914,0.99
0.05487222379049278,0.991
0.05487856636109346,0.992
0.054884691555744436,0.993
0.05489067572831377,0.994
0.054896605561098134,0.995
0.05490256075472049,0.996
0.05490859771874778,0.997
0.05491474731254534,0.998
0.054921031307743014,0.999
0.054927486134976056,1.0
0.05493417947844924,1.001
0.05494121291786151,1.002
0.05494870972763747,1.003
0.05495679216915318,1.004
0.05496555974200937,1.005
0.054975080463915124,1.006
0.054985394460956585,1.007
0.054996517776848226,1.008
0.05500843914994307,1.009
0.05502111288116923,1.01
0.05503445417637009,1.011
0.05504834114224998,1.012
0.05506262388137344,1.013
0.055077137497733276,1.014
0.055091713380302415,1.015
0.05510618248435616,1.016
0.055120367366979166,1.017
0.05513407030212706,1.018
0.05514707508819426,1.019
0.05515917080301584,1.02
0.05517018460100116,1.021
0.05518000565030315,1.022
0.055188591949110896,1.023
0.05519595945440797,1.024
0.05520215691131387,1.025
0.05520723456567054,1.026
0.05521122112815004,1.027
0.055214120415919395,1.028
0.055215923240256794,1.029
0.055216620560567316,1.03
0.05521621019704026,1.031
0.05521469784137814,1.032
0.055212095515755004,1.033
0.055208419942011276,1.034
0.05520369184398822,1.035
0.05519793571397484,1.036
0.05519117860546082,1.037
0.055183446283622026,1.038
0.05517475541162353,1.039
0.0551651016430358,1.04
0.05515444776572217,1.041
0.05514272097565122,1.042
0.05512982369315143,1.043
0.05511565083275816,1.044
0.05510010339958147,1.045
0.0550830931778724,1.046
0.05506453675619117,1.047
0.0550443407569631,1.048
0.055022388428967596,1.049
0.054998542195778835,1.05
0.05497266494539167,1.051
0.05494464635596783,1.052
0.0549144186035838,1.053
0.05488195351655378,1.054
0.054847241991091755,1.055
0.054810270498022354,1.056
0.05477101844044509,1.057
0.054729483104310986,1.058
0.05468571330498988,1.059
0.05463983160538287,1.06
0.054592039014700555,1.061
0.054542603724445665,1.062
0.05449183752366972,1.063
0.05444006492498101,1.064
0.05438759369721955,1.065
0.05433469972762538,1.066
0.05428163126952109,1.067
0.05422862225373172,1.068
0.0541759028553776,1.069
0.05412370405693328,1.07
0.05407225637806673,1.071
0.05402178302958253,1.072
0.053972489046586636,1.073
0.05392454994847301,1.074
0.053878104774724704,1.075
0.05383325757975299,1.076
0.05379008821766304,1.077
0.05374866864937321,1.078
0.05370907733394994,1.079
0.05367140351702646,1.08
0.053635737460695714,1.081
0.05360215483775471,1.082
0.05357071419213995,1.083
0.05354147502180402,1.084
0.053514521192412914,1.085
0.05348997135149234,1.086
0.05346797103507894,1.087
0.05344867113902591,1.088
0.053432204957731974,1.089
0.05341867897402695,1.09
0.05340818074514355,1.091
0.0534007918750927,1.092
0.05339659480859489,1.093
0.05339567152944854,1.094
0.053398095872216784,1.095
0.05340392134381359,1.096
0.05341316936319966,1.097
0.05342582641205965,1.098
0.05344185361307349,1.099
0.05346120210817971,1.1
0.05348382580764011,1.101
0.053509687880116626,1.102
0.0535387600528184,1.103
0.05357101462264934,1.104
0.05360641029114094,1.105
0.05364487681854436,1.106
0.05368630854770232,1.107
0.053730572439676716,1.108
0.05377752431537189,1.109
0.053827023844616434,1.11
0.0538789437376547,1.111
0.05393317125336357,1.112
0.05398960109223658,1.113
0.054048120489258,1.114
0.05410859158428519,1.115
0.05417084200041763,1.116
0.05423467114180576,1.117
0.05429986706063507,1.118
0.05436622365398431,1.119
0.054433551911949526,1.12
0.05450168156644014,1.121
0.05457045055278247,1.122
0.054639686028134266,1.123
0.054709192325071744,1.124
0.05477875957964794,1.125
0.05484818665304019,1.126
0.05491730038524689,1.127
0.0549859599135276,1.128
0.05505404350957807,1.129
0.05512142487402758,1.13
0.05518795901088438,1.131
0.05525349343551348,1.132
0.05531789507177938,1.133
0.055381070971548596,1.134
0.05544297069721912,1.135
0.05550356901627164,1.136
0.05556283795875164,1.137
0.05562072960589899,1.138
0.05567718425290366,1.139
0.055732153083675504,1.14
0.0557856150416482,1.141
0.05583757865231497,1.142
0.0558880686454875,1.143
0.05593710336944876,1.144
0.0559846776782692,1.145
0.05603076405128415,1.146
0.056075326900857446,1.147
0.05611833379296027,1.148
0.056159754118886476,1.149
0.05619954629612391,1.15
0.05623764027021507,1.151
0.056273923558004674,1.152
0.05630823491492226,1.153
0.05634036468190522,1.154
0.05637006110233431,1.155
0.05639704178647752,1.156
0.0564210057886057,1.157
0.05644164038293487,1.158
0.0564586186620183,1.159
0.056471589464671464,1.16
0.05648017079114298,1.161
0.056483959776558464,1.162
0.056482559067853294,1.163
0.0564756079447151,1.164
0.05646280751569122,1.165
0.056443933667760515,1.166
0.05641883371214097,1.167
0.05638740502777902,1.168
0.05634956192461209,1.169
0.056305211384259056,1.17
0.05625425805235276,1.171
0.05619663359119647,1.172
0.05613232734667789,1.173
0.056061402823064516,1.174
0.0559839977113024,1.175
0.05590031087991466,1.176
0.055810580771280885,1.177
0.05571505873373279,1.178
0.05561398255815802,1.179
0.05550756156648932,1.18
0.05539598156532309,1.181
0.055279422564530216,1.182
0.055158075057687814,1.183
0.0550321472922512,1.184
0.05490186261955166,1.185
0.05476744853407587,1.186
0.05462912001166353,1.187
0.05448706236452782,1.188
0.05434142304712619,1.189
0.05419231764850089,1.19
0.054039843428256434,1.191
0.053884090417884944,1.192
0.05372514559699959,1.193
0.05356308951713194,1.194
0.05339798640750153,1.195
0.05322987150796447,1.196
0.05305874337188361,1.197
0.05288456825671107,1.198
0.05270729612735625,1.199
0.05252688228198946,1.2
0.052343308828269756,1.201
0.05215660056946795,1.202
0.05196682911657892,1.203
0.05177410016917817,1.204
0.05157852816214989,1.205
0.05138021908388699,1.206
0.05117928044616551,1.207
0.05097585002927642,1.208
0.050770119660386914,1.209
0.05056234077569303,1.21
0.05035281184742138,1.211
0.050141853953501576,1.212
0.04992978300687542,1.213
0.04971688684079613,1.214
0.04950341236672593,1.215
0.04928956185099995,1.216
0.04907549304298744,1.217
0.048861320419606176,1.218
0.04864711861760667,1.219
0.04843292893470019,1.22
0.04821876816388793,1.221
0.04800463826667534,1.222
0.04779053534142745,1.223
0.047576456707636466,1.224
0.047362405330741625,1.225
0.04714839083106062,1.226
0.046934425908385535,1.227
0.046720516747120536,1.228
0.046506649874624995,1.229
0.046292786338258965,1.23
0.046078872345523755,1.231
0.0458648607629403,1.232
0.045650730564026125,1.233
0.045436495877220894,1.234
0.04522220089078011,1.235
0.04500790184545687,1.236
0.044793647554998456,1.237
0.04457947502453011,1.238
0.04436542280783196,1.239
0.044151546763950264,1.24
0.043937923907786815,1.241
0.043724641600590794,1.242
0.04351177907328985,1.243
0.04329939652587158,1.244
0.04308754207260149,1.245
0.04287626861686633,1.246
0.04266564574009291,1.247
0.042455759350487135,1.248
0.04224669948435125,1.249
0.04203854410720447,1.25
0.04183135255026098,1.251
0.04162517342394565,1.252
0.04142005567797921,1.253
0.04121605011177833,1.254
0.04101319999900488,1.255
0.040811529322221846,1.256
0.04061103836793654,1.257
0.04041170659627754,1.258
0.04021349369704576,1.259
0.04001633551026483,1.26
0.03982014301506451,1.261
0.039624811081221935,1.262
0.039430232263398764,1.263
0.03923630733959948,1.264
0.03904294897135393,1.265
0.03885007798359421,1.266
0.03865761287506353,1.267
0.03846545742897316,1.268
0.03827349745649397,1.269
0.038081613443725966,1.27
0.03788970244574274,1.271
0.03769769829849332,1.272
0.03750558452040257,1.273
0.037313397725888195,1.274
0.03712122042994564,1.275
0.03692916342004121,1.276
0.03673734300679324,1.277
0.03654586746534236,1.278
0.03635484400763347,1.279
0.036164399598077636,1.28
0.03597470003840933,1.281
0.03578595861311038,1.282
0.03559843291478427,1.283
0.03541241154850241,1.284
0.03522819425992817,1.285
0.03504607228270646,1.286
0.03486631879964115,1.287
0.0346891930165286,1.288
0.034514949309959436,1.289
0.03434384161871278,1.29
0.0341761204365687,1.291
0.03401202454105075,1.292
0.03385177250903018,1.293
0.03369555935925778,1.294
0.033543557815070214,1.295
0.03339591886609469,1.296
0.033252770931257704,1.297
0.03311422280844247,1.298
0.03298037195168626,1.299
0.032851312903265636,1.3
0.03272714067771308,1.301
0.03260794795893712,1.302
0.03249381773891528,1.303
0.03238481451579226,1.304
0.032280977954472115,1.305
0.03218232113082891,1.306
0.032088831968302284,1.307
0.03200047566691703,1.308
0.031917197837657875,1.309
0.031838928847479936,1.31
0.031765588940245046,1.311
0.03169709282995505,1.312
0.031633352554075955,1.313
0.031574278082062666,1.314
0.03151977561760399,1.315
0.03146974327322128,1.316
0.031424064677876,1.317
0.031382604696906236,1.318
0.031345212250782864,1.319
0.03131172881528368,1.32
0.0312819955523723,1.321
0.03125585370895727,1.322
0.03123313810748379,1.323
0.03121366911492153,1.324
0.031197250976405532,1.325
0.03118367818694922,1.326
0.031172742551970285,1.327
0.031164232882070448,1.328
0.031157927976586793,1.329
0.031153594220916198,1.33
0.03115099636046904,1.331
0.031149914196987327,1.332
0.031150152276354752,1.333
0.031151537848895232,1.334
0.031153909994439104,1.335
0.031157105825184023,1.336
0.031160949341681496,1.337
0.031165245292390984,1.338
0.031169776429560914,1.339
0.03117430233643356,1.34
0.031178563005998507,1.341
0.031182291866183057,1.342
0.031185236326688015,1.343
0.031187178316206897,1.344
0.031187947431720597,1.345
0.031187421610773428,1.346
0.03118551342021569,1.347
0.03118214788012254,1.348
0.031177248660662717,1.349
0.03117074518906665,1.35
0.031162592402593472,1.351
0.031152786218327497,1.352
0.031141366929660026,1.353
0.031128411388857545,1.354
0.03111401806481139,1.355
0.03109828988511565,1.356
0.031081319075049726,1.357
0.031063177263800354,1.358
0.031043912895039112,1.359
0.031023555409104304,1.36
0.031002123526609856,1.361
0.030979635087756818,1.362
0.03095611639002404,1.363
0.03093160860965375,1.364
0.030906169036282446,1.365
0.030879866219348042,1.366
0.03085277024523591,1.367
0.030824941304787013,1.368
0.030796420341083545,1.369
0.030767224206049243,1.37
0.030737344888414737,1.371
0.030706750072629067,1.372
0.030675383845311505,1.373
0.0306431708234478,1.374
0.030610026504900724,1.375
0.030575870029303006,1.376
0.030540631860875564,1.377
0.030504251242591974,1.378
0.03046666543648531,1.379
0.030427802432586543,1.38
0.030387586799811593,1.381
0.030345952472830236,1.382
0.030302848451895573,1.383
0.030258232238288264,1.384
0.03021206067578963,1.385
0.03016429356861402,1.386
0.03011491206930586,1.387
0.030063937621484665,1.388
0.0300114382291647,1.389
0.029957519077348154,1.39
0.02990230275250254,1.391
0.029845911624256403,1.392
0.0297884651275015,1.393
0.02973009148781573,1.394
0.029670941639128853,1.395
0.029611195638932452,1.396
0.029551059473516963,1.397
0.02949075364195247,1.398
0.029430497702692758,1.399
0.029370498878783194,1.4
0.029310950491235235,1.401
0.02925203634517573,1.402
0.02919393267192068,1.403
0.029136804445221806,1.404
0.029080800090741276,1.405
0.02902605077117457,1.406
0.028972675055732824,1.407
0.02892078329149001,1.408
0.02887047658491948,1.409
0.028821842218127287,1.41
0.028774953847557013,1.411
0.028729881673340795,1.412
0.028686706910954974,1.413
0.02864553063188808,1.414
0.028606471333716434,1.415
0.02856965304293964,1.416
0.028535194879574576,1.417
0.02850321279908968,1.418
0.028473830211165917,1.419
0.028447185102870372,1.42
0.028423426606084583,1.421
0.028402703687373215,1.422
0.02838515601563647,1.423
0.028370915909275866,1.424
0.028360119176678272,1.425
0.028352915143478114,1.426
0.02834946903685525,1.427
0.02834995537831274,1.428
0.028354545802829256,1.429
0.02836339938553815,1.43
0.028376661610629392,1.431
0.028394468874949688,1.432
0.028416951188905287,1.433
0.028444230156902027,1.434
0.028476413849268415,1.435
0.028513591274661066,1.436
0.028555828738886964,1.437
0.02860316947933912,1.438
0.028655636820742115,1.439
0.028713239910932633,1.44
0.02877598010397246,1.441
0.028843855557335523,1.442
0.028916861920740167,1.443
0.028994988238831426,1.444
0.029078209681839967,1.445
0.029166481447911875,1.446
0.02925973699455307,1.447
0.02935788882000288,1.448
0.029460828469369805,1.449
0.029568425740451085,1.45
0.02968052953316862,1.451
0.029796972115320005,1.452
0.02991757650805715,1.453
0.030042164994858924,1.454
0.030170566240615836,1.455
0.030302618957254782,1.456
0.030438170790751826,1.457
0.030577071862835682,1.458
0.030719164656732845,1.459
0.03086427618643259,1.46
0.03101221840767355,1.461
0.031162795373256953,1.462
0.03131581014664507,1.463
0.031471066814283986,1.464
0.03162836716125275,1.465
0.03178750345521732,1.466
0.03194825010804066,1.467
0.03211035875692007,1.468
0.03227355998782323,1.469
0.03243756998947155,1.47
0.032602097863867134,1.471
0.0327668505437852,1.472
0.03293153351618333,1.473
0.03309584609980675,1.474
0.033259473199624474,1.475
0.033422081572301934,1.476
0.03358332779534784,1.477
0.03374287515485925,1.478
0.03390041144623648,1.479
0.03405566246392399,1.48
0.034208398453164875,1.481
0.03435843157728065,1.482
0.03450560350164117,1.483
0.034649766194590974,1.484
0.03479076745112851,1.485
0.034928454224947274,1.486
0.03506269299300999,1.487
0.03519339322935691,1.488
0.03532052163226776,1.489
0.035444102312635346,1.49
0.035564203339709284,1.491
0.03568091362338061,1.492
0.03579431837349374,1.493
0.035904484388157326,1.494
0.03601145926623499,1.495
0.03611527613426865,1.496
0.03621595492698133,1.497
0.0363134994154858,1.498
0.03640789305050048,1.499
0.03649909650891474,1.5
0.03658704892762239,1.501
0.03667167341832028,1.502
0.036752885763654305,1.503
0.036830603589334245,1.504
0.03690475237836379,1.505
0.03697526492536313,1.506
0.03704207296636792,1.507
0.03710509615370365,1.508
0.037164240300424214,1.509
0.037219410886085824,1.51
0.03727053334612202,1.511
0.03731756826746029,1.512
0.03736051659865513,1.513
0.03739941513017792,1.514
0.037434324529374285,1.515
0.03746531307080969,1.516
0.03749243982319013,1.517
0.03751574264632693,1.518
0.03753523579132023,1.519
0.03755091635047243,1.52
0.03756277439134114,1.521
0.03757080342242149,1.522
0.03757501101624117,1.523
0.037575429669241156,1.524
0.03757212659858574,1.525
0.03756520988028573,1.526
0.03755482791460647,1.527
0.03754116004556689,1.528
0.037524398891664375,1.529
0.03750473193340478,1.53
0.03748233612887306,1.531
0.03745739086951549,1.532
0.03743009805938091,1.533
0.03740069548907582,1.534
0.03736945842132411,1.535
0.037336690457319195,1.536
0.03730270757984113,1.537
0.03726782062824303,1.538
0.03723232077156364,1.539
0.037196470291973684,1.54
0.03716049831125466,1.541
0.03712459951977938,1.542
0.03708893473652073,1.543
0.037053633864881814,1.544
0.03701880150266694,1.545
0.03698452336291573,1.546
0.036950870487977065,1.547
0.036917898713808406,1.548
0.03688564375811235,1.549
0.03685411764897759,1.55
0.036823312577480775,1.551
0.03679321031561061,1.552
0.03676378966240993,1.553
0.03673502671014475,1.554
0.03670688787987566,1.555
0.03667932149713801,1.556
0.03665225705512237,1.557
0.03662561549275379,1.558
0.03659932450379602,1.559
0.03657333177638232,1.56
0.03654761330250966,1.561
0.036522176088183166,1.562
0.036497055113453074,1.563
0.03647230485928394,1.564
0.03644798612816428,1.565
0.03642415098573861,1.566
0.036400832999575895,1.567
0.036378049075765896,1.568
0.036355810143554455,1.569
0.03633413236736727,1.57
0.03631304391630685,1.571
0.036292587113751495,1.572
0.03627281791162055,1.573
0.036253805043105214,1.574
0.03623563040634126,1.575
0.036218390650794255,1.576
0.036202198464699305,1.577
0.03618718143426626,1.578
0.036173476743356595,1.579
0.03616122108625562,1.58
