VaMe,time
0.010109540953033245,0.001
0.01051711758992753,0.002
0.01092403909648342,0.003
0.011329857845398396,0.004
0.011734133151353824,0.005
0.012136435689913171,0.006
0.012536347988948197,0.007
0.012933461101750867,0.008
0.01332736855629516,0.009
0.013717660103651946,0.01
0.014103919399891912,0.011
0.01448572804096269,0.012
0.01486267396091374,0.013
0.015234360662681171,0.014
0.015600414983261961,0.015
0.015960491885385134,0.016
0.0163142753658517,0.017
0.01666147550117987,0.018
0.017001822379105438,0.019
0.01733505795440125,0.02
0.01766092679408708,0.021
0.017979167745953966,0.022
0.018289511064615082,0.023
0.01859168443678921,0.024
0.01888542610838344,0.025
0.019170500880541903,0.026
0.019446715284374635,0.027
0.01971392761613168,0.028
0.0199720478217792,0.029
0.020221024397650188,0.03
0.020460825105485872,0.031
0.02069142984261111,0.032
0.020912845123964505,0.033
0.02112512585334277,0.034
0.021328385162979708,0.035
0.02152278630625315,0.036
0.021708522076393125,0.037
0.021885795930054863,0.038
0.022054818945025156,0.039
0.022215821391819227,0.04
0.0223690648433894,0.041
0.022514844745789506,0.042
0.022653482981633666,0.043
0.02278531433690593,0.044
0.02291067185139369,0.045
0.023029875844127197,0.046
0.023143228598972203,0.047
0.023251013192200014,0.048
0.02335349487321693,0.049
0.023450924022241824,0.05
0.02354353778564855,0.051
0.023631558802682816,0.052
0.023715195728668047,0.053
0.023794650866080357,0.054
0.02387013250418286,0.055
0.023941865228644083,0.056
0.024010093803007688,0.057
0.02407507939210748,0.058
0.02413708938745187,0.059
0.02419638505135135,0.06
0.024253213154851083,0.061
0.02430780410518276,0.062
0.02436037229141345,0.063
0.024411114634448554,0.064
0.02446020936774732,0.065
0.02450781795400442,0.066
0.02455408835553601,0.067
0.0245991559967552,0.068
0.02464314156283187,0.069
0.024686148423945432,0.07
0.02472826305904308,0.071
0.024769558096062762,0.072
0.02481009426262745,0.073
0.024849918934526132,0.074
0.024889063195718653,0.075
0.024927541580907625,0.076
0.02496535553736904,0.077
0.025002496898207296,0.078
0.025038947516076823,0.079
0.025074675476273917,0.08
0.025109633162734474,0.081
0.02514376214498223,0.082
0.025177003778759505,0.083
0.025209310912668943,0.084
0.025240657520611963,0.085
0.025271044501604008,0.086
0.025300500121631996,0.087
0.025329073857261016,0.088
0.02535682438394888,0.089
0.02538380811597456,0.09
0.025410078228016216,0.091
0.02543569609294946,0.092
0.025460745553128602,0.093
0.025485340031505512,0.094
0.02550961925020744,0.095
0.02553373688452085,0.096
0.02555784481486394,0.097
0.025582084142529507,0.098
0.025606587918063323,0.099
0.025631488597249043,0.1
0.025656921643013284,0.101
0.0256830238228837,0.102
0.025709928445331875,0.103
0.025737759574007656,0.104
0.025766626483022154,0.105
0.025796619900233728,0.106
0.025827812432973395,0.107
0.025860263916157443,0.108
0.025894029167210387,0.109
0.02592916489871434,0.11
0.02596573405777376,0.111
0.026003807097511246,0.112
0.026043460308550984,0.113
0.026084771689388716,0.114
0.026127814995488545,0.115
0.026172652792858388,0.116
0.02621933028711622,0.117
0.02626787279399484,0.118
0.026318287919573292,0.119
0.02637056998264684,0.12
0.026424703917451154,0.121
0.026480668140555014,0.122
0.02653843712336349,0.123
0.026597984526821966,0.124
0.02665928739787164,0.125
0.02672233114191601,0.126
0.02678711392534751,0.127
0.02685364819910341,0.128
0.02692195685742167,0.129
0.02699206394773789,0.13
0.02706398575264519,0.131
0.027137730693850535,0.132
0.02721330892560446,0.133
0.027290743637414423,0.134
0.027370076795632955,0.135
0.027451367274536783,0.136
0.027534682053765396,0.137
0.02762008392546821,0.138
0.027707623465196483,0.139
0.02779734095376903,0.14
0.027889274239202524,0.141
0.02798346403357422,0.142
0.028079952413411775,0.143
0.0281787755156236,0.144
0.028279955365918843,0.145
0.028383497141440072,0.146
0.028489393436740056,0.147
0.028597631221491768,0.148
0.028708197387740605,0.149
0.028821081857848246,0.15
0.028936278215699975,0.151
0.02905378181390877,0.152
0.02917358570382976,0.153
0.029295675235115178,0.154
0.029420022384297514,0.155
0.029546580635461648,0.156
0.029675280873476186,0.157
0.02980602907655703,0.158
0.02993870733388272,0.159
0.0300731791562215,0.16
0.030209298265446237,0.161
0.030346918790127197,0.162
0.03048590423456305,0.163
0.030626132299048068,0.164
0.030767493052758107,0.165
0.030909879865028904,0.166
0.031053177844369857,0.167
0.031197259825155678,0.168
0.03134199412323322,0.169
0.03148725566531329,0.17
0.031632930078369516,0.171
0.031778907567726486,0.172
0.03192507085056872,0.173
0.032071287666855304,0.174
0.03221741518911154,0.175
0.0323633112907338,0.176
0.03250884308522268,0.177
0.032653888459172976,0.178
0.032798330530344554,0.179
0.03294204711864495,0.18
0.033084901117568156,0.181
0.033226739420768564,0.182
0.03336740186924753,0.183
0.03350673370041386,0.184
0.03364459484093185,0.185
0.033780863581260145,0.186
0.03391543437062541,0.187
0.03404821011150267,0.188
0.03417909037584698,0.189
0.03430796051433816,0.19
0.03443469013708784,0.191
0.03455914459977012,0.192
0.03468120330180876,0.193
0.03480077612042409,0.194
0.03491781292865691,0.195
0.035032303608625644,0.196
0.035144267521187204,0.197
0.035253735061661545,0.198
0.03536073103923049,0.199
0.035465272069133684,0.2
0.035567378721963853,0.201
0.035667090174990104,0.202
0.03576447040673375,0.203
0.03585960349913872,0.204
0.035952580584713095,0.205
0.036043483591194636,0.206
0.03613237262672219,0.207
0.03621928062375738,0.208
0.036304212245926074,0.209
0.0363871437293112,0.21
0.03646802515023638,0.211
0.0365467857144964,0.212
0.036623337735912906,0.213
0.03669757535484592,0.214
0.03676937057869859,0.215
0.03683857420760218,0.216
0.03690502465326137,0.217
0.036968558618361416,0.218
0.03702901586630345,0.219
0.03708623469351958,0.22
0.03714004118792023,0.221
0.03719024320282411,0.222
0.037236637500779796,0.223
0.03727902420830078,0.224
0.03731721613479811,0.225
0.037351035935149365,0.226
0.03738030371210033,0.227
0.03740482927917612,0.228
0.03742442246318831,0.229
0.03743891686651472,0.23
0.037448191806410895,0.231
0.03745218252043187,0.232
0.03745087586087976,0.233
0.037444292239410974,0.234
0.037432460821611425,0.235
0.03741540460756822,0.236
0.03739314814777294,0.237
0.03736574073005802,0.238
0.03733327859018512,0.239
0.037295917414128986,0.24
0.03725387399188034,0.241
0.03720741848529974,0.242
0.037156859701978504,0.243
0.03710252583801316,0.244
0.03704474421405831,0.245
0.03698382714931341,0.246
0.03692007122676975,0.247
0.03685376869544133,0.248
0.036785222281563654,0.249
0.036714756434358696,0.25
0.0366427226171384,0.251
0.036569498091360786,0.252
0.03649547829207262,0.253
0.036421063786003925,0.254
0.03634664504698681,0.255
0.03627259145486779,0.256
0.03619924893495897,0.257
0.03612694278214274,0.258
0.03605597893379333,0.259
0.03598664133935307,0.26
0.03591918734606733,0.261
0.035853843817779646,0.262
0.03579080589863717,0.263
0.03573023919084107,0.264
0.035672285043617386,0.265
0.035617067820211276,0.266
0.03556470245126258,0.267
0.03551530033947772,0.268
0.03546897183583023,0.269
0.03542582407109083,0.27
0.035385953992716886,0.271
0.0353494397678048,0.272
0.035316338045143524,0.273
0.03528669157193574,0.274
0.035260542418489915,0.275
0.035237943089435016,0.276
0.03521896139092698,0.277
0.035203677557597894,0.278
0.03519217366578302,0.279
0.03518451958581365,0.28
0.03518076507350591,0.281
0.03518094297157689,0.282
0.03518507613675081,0.283
0.03519317866182532,0.284
0.03520525018628933,0.285
0.03522126876232589,0.286
0.03524118860669332,0.287
0.035264943320541725,0.288
0.0352924491521693,0.289
0.03532360374281588,0.29
0.035358281364798266,0.291
0.035396330873540674,0.292
0.03543758129536341,0.293
0.03548185267816466,0.294
0.03552896666418705,0.295
0.03557875360298733,0.296
0.03563105481468467,0.297
0.03568571926897148,0.298
0.03574259481381003,0.299
0.035801516536512985,0.3
0.035862298962807015,0.301
0.035924737853143804,0.302
0.03598861920259927,0.303
0.03605372818375905,0.304
0.036119853509025024,0.305
0.03618678641951584,0.306
0.03625431526042959,0.307
0.036322217657370086,0.308
0.03639025294252573,0.309
0.03645815733677418,0.31
0.036525643430166385,0.311
0.03659240409945932,0.312
0.0366581197038829,0.313
0.036722466585516235,0.314
0.03678512465610282,0.315
0.036845782056109166,0.316
0.036904135327651015,0.317
0.03695988410169689,0.318
0.03701272096498138,0.319
0.037062321974881574,0.32
0.03710834699476083,0.321
0.037150453065071816,0.322
0.037188313981396874,0.323
0.03722163781432022,0.324
0.03725017864633952,0.325
0.037273741432248805,0.326
0.03729217965536668,0.327
0.03730538591493616,0.328
0.03731327596988603,0.329
0.03731576903547928,0.33
0.03731277266749867,0.331
0.03730418169827128,0.332
0.03728989045989709,0.333
0.037269807449405175,0.334
0.037243863032576964,0.335
0.03721200676986382,0.336
0.037174195044949586,0.337
0.03713037623122831,0.338
0.03708048656010827,0.339
0.03702446164656569,0.34
0.03696225277328795,0.341
0.036893834831160106,0.342
0.036819201676245444,0.343
0.03673835179807537,0.344
0.03665127361116548,0.345
0.03655794249221037,0.346
0.03645833245037016,0.347
0.03635243336641825,0.348
0.03624026483534718,0.349
0.03612188418583623,0.35
0.03599738910998712,0.351
0.03586691553850257,0.352
0.035730631509726926,0.353
0.03558872803614471,0.354
0.035441408283827185,0.355
0.035288876453811846,0.356
0.03513132741852609,0.357
0.034968937570128256,0.358
0.03480185774678253,0.359
0.03463021083048109,0.36
0.0344540959762783,0.361
0.034273597905236104,0.362
0.03408879824474785,0.363
0.03389978676970971,0.364
0.03370667069445462,0.365
0.033509580407546716,0.366
0.033308671083540894,0.367
0.033104120946075725,0.368
0.032896127962344965,0.369
0.03268490696139285,0.37
0.032470688511017226,0.371
0.03225371968035769,0.372
0.03203426557303039,0.373
0.031812609716781654,0.374
0.0315890513458713,0.375
0.031363898337978875,0.376
0.03113745622799654,0.377
0.030910017446969078,0.378
0.030681858123196966,0.379
0.030453245312940927,0.38
0.030224449071336066,0.381
0.029995752676983883,0.382
0.02976745867499726,0.383
0.029539890752553234,0.384
0.029313392010253854,0.385
0.029088320584061723,0.386
0.028865043723085987,0.387
0.028643931314638518,0.388
0.028425349565805905,0.389
0.028209655265923898,0.39
0.02799719089259212,0.391
0.027788280811519232,0.392
0.027583228871820895,0.393
0.02738231764160023,0.394
0.027185809237588263,0.395
0.026993947258152573,0.396
0.02680695898365088,0.397
0.026625056957778878,0.398
0.026448439301622283,0.399
0.02627728849689158,0.4
0.026111768833626994,0.401
0.025952023624785294,0.402
0.025798174235537947,0.403
0.025650321985187262,0.404
0.025508551716172077,0.405
0.025372935431519597,0.406
0.025243535490016976,0.407
0.025120407285557665,0.408
0.025003601191756677,0.409
0.02489316340429592,0.41
0.02478913526211243,0.411
0.024691550752924445,0.412
0.02460043221183655,0.413
0.024515785431720612,0.414
0.024437597217238316,0.415
0.02436583714491165,0.416
0.024300461179852486,0.417
0.02424141359705199,0.418
0.024188625700010898,0.419
0.024142012506110103,0.42
0.024101471137629917,0.421
0.02406688325172733,0.422
0.024038118930743844,0.423
0.024015038311537167,0.424
0.02399749017149,0.425
0.023985308791845288,0.426
0.023978310801468065,0.427
0.023976293244255837,0.428
0.023979033244445145,0.429
0.02398628891959952,0.43
0.02399780094549811,0.431
0.024013294366045004,0.432
0.02403248053828379,0.433
0.024055059174170154,0.434
0.02408072018697314,0.435
0.02410914465238028,0.436
0.024140003965846715,0.437
0.024172956892110447,0.438
0.02420764656208822,0.439
0.02424370164123705,0.44
0.02428074392696916,0.441
0.02431840055198955,0.442
0.024356317985681504,0.443
0.02439417599413276,0.444
0.02443169946616052,0.445
0.024468665090435958,0.446
0.0245048996343206,0.447
0.02454026753439542,0.448
0.0245746512804748,0.449
0.0246079386423195,0.45
0.024640029421110054,0.451
0.024670856058746055,0.452
0.02470040184665818,0.453
0.02472870715863443,0.454
0.02475586273633019,0.455
0.024781992827741888,0.456
0.02480723410777471,0.457
0.024831720201849383,0.458
0.024855579063991,0.459
0.024878939444090743,0.46
0.024901936481315994,0.461
0.024924710811260034,0.462
0.02494740161844815,0.463
0.02497013821771571,0.464
0.024993036964500646,0.465
0.025016205868510197,0.466
0.025039751864605202,0.467
0.02506378526425321,0.468
0.025088420498620936,0.469
0.025113774771433492,0.47
0.02513996625140821,0.471
0.025167112459847204,0.472
0.025195328315232135,0.473
0.025224722753855906,0.474
0.02525539358278151,0.475
0.02528742252341164,0.476
0.025320874007244996,0.477
0.02535579871004664,0.478
0.025392238775766147,0.479
0.025430231588379027,0.48
0.025469811298845287,0.481
0.025511008506042984,0.482
0.025553848678319863,0.483
0.025598349930113104,0.484
0.025644520749241218,0.485
0.02569235824605313,0.486
0.025741847415459575,0.487
0.025792961706394245,0.488
0.025845664887661827,0.489
0.02589991386615995,0.49
0.025955661853961153,0.491
0.026012861152489006,0.492
0.026071464824435706,0.493
0.02613142663023691,0.494
0.026192698796925096,0.495
0.026255227456482007,0.496
0.026318946526157093,0.497
0.02638377295552287,0.498
0.026449607018052337,0.499
0.026516337991045802,0.5
0.02658385194900274,0.501
0.026652038660346024,0.502
0.02672079643997537,0.503
0.02679003462114674,0.504
0.026859673573654434,0.505
0.026929642505813683,0.506
0.026999875598569555,0.507
0.02707030726666381,0.508
0.027140867453752892,0.509
0.02721147778883842,0.51
0.02728204915068242,0.511
0.027352480761547497,0.512
0.027422660466194685,0.513
0.027492465458465662,0.514
0.027561762480717976,0.515
0.027630406478884102,0.516
0.02769823731221915,0.517
0.027765076547204615,0.518
0.027830728968856158,0.519
0.027894991505036618,0.52
0.027957667193296603,0.521
0.028018579824382658,0.522
0.028077585775444665,0.523
0.028134580145641033,0.524
0.028189494951873912,0.525
0.02824228862720796,0.526
0.028292929412513688,0.527
0.02834138089593701,0.528
0.02838759875081097,0.529
0.028431537720414304,0.53
0.028473158555673547,0.531
0.028512427066058336,0.532
0.028549305881543818,0.533
0.028583746696145603,0.534
0.02861569140549609,0.535
0.028645081948909787,0.536
0.028671871025647812,0.537
0.02869602737732962,0.538
0.028717534028114774,0.539
0.028736380212915347,0.54
0.028752549988569645,0.541
0.028766014456578316,0.542
0.028776734257111098,0.543
0.028784671471948315,0.544
0.028789804440737782,0.545
0.028792140456794395,0.546
0.028791724226177186,0.547
0.02878864113724416,0.548
0.028783015100998073,0.549
0.028775001517294826,0.55
0.028764776527745367,0.551
0.028752524004246115,0.552
0.028738422287906455,0.553
0.02872263432148061,0.554
0.02870530501462857,0.555
0.02868656543828468,0.556
0.02866653921116886,0.557
0.028645347433709164,0.558
0.028623111528427704,0.559
0.02859995449118123,0.56
0.02857600109612507,0.561
0.028551377532184317,0.562
0.028526210820015507,0.563
0.028500628174516325,0.564
0.028474756223875467,0.565
0.02844871970098059,0.566
0.028422639016440685,0.567
0.02839662617841957,0.568
0.028370779158060747,0.569
0.02834517657653891,0.57
0.02831987602291572,0.571
0.028294917102252296,0.572
0.028270326566258358,0.573
0.028246122822202565,0.574
0.028222319388775452,0.575
0.028198927709330343,0.576
0.028175959254244716,0.577
0.028153426158627398,0.578
0.02813133924606417,0.579
0.028109702512231546,0.58
0.02808850571460771,0.581
0.02806772115829843,0.582
0.02804730917734659,0.583
0.028027228872713045,0.584
0.02800744789909889,0.585
0.027987948461363266,0.586
0.02796872897481329,0.587
0.027949801480657444,0.588
0.027931185396928942,0.589
0.027912898487901055,0.59
0.027894947145623315,0.591
0.027877320468917305,0.592
0.02785999170064038,0.593
0.027842925143896316,0.594
0.02782608381182331,0.595
0.02780943504879005,0.596
0.027792953494490666,0.597
0.02777662142280924,0.598
0.027760426796805477,0.599
0.027744359702264666,0.6
0.027728408079434236,0.601
0.027712553749950485,0.602
0.027696769543797572,0.603
0.02768101788687558,0.604
0.02766525064993193,0.605
0.02764940957180334,0.606
0.02763342631124132,0.607
0.027617221227365294,0.608
0.027600700304888686,0.609
0.027583750972608928,0.61
0.02756623997345381,0.611
0.027548016271351346,0.612
0.02752891817304604,0.613
0.027508781623807068,0.614
0.02748744763830461,0.615
0.027464767947772535,0.616
0.027440608349645852,0.617
0.027414849601283726,0.618
0.027387386052792673,0.619
0.027358122481530946,0.62
0.02732696974773878,0.621
0.02729383994645241,0.622
0.02725864168542102,0.623
0.027221275944554136,0.624
0.027181632647697972,0.625
0.02713958764498322,0.626
0.027094999495868705,0.627
0.02704770649630513,0.628
0.026997526859043382,0.629
0.026944264778258273,0.63
0.026887721417426902,0.631
0.026827707779185972,0.632
0.026764056960060744,0.633
0.026696633746274553,0.634
0.026625339774362634,0.635
0.02655011314082011,0.636
0.026470922159760834,0.637
0.026387753757998372,0.638
0.026300598835664737,0.639
0.026209440796515777,0.64
0.026114254189024202,0.641
0.026015013073367982,0.642
0.025911701575666853,0.643
0.025804320540842657,0.644
0.02569288903374544,0.645
0.025577441790447016,0.646
0.025458024451930024,0.647
0.02533468862557203,0.648
0.025207488335621305,0.649
0.025076478263909695,0.65
0.024941712755453118,0.651
0.024803243539026135,0.652
0.024661115015296397,0.653
0.02451536024995587,0.654
0.024366004021082317,0.655
0.02421307471500467,0.656
0.024056619358994273,0.657
0.023896714813238712,0.658
0.023733471492882133,0.659
0.023567028896672906,0.66
0.023397544202371806,0.661
0.02322517779153616,0.662
0.023050082946475925,0.663
0.022872405612396833,0.664
0.022692292150444743,0.665
0.022509898107618748,0.666
0.022325393702672603,0.667
0.02213896536373105,0.668
0.021950813729948657,0.669
0.021761148625586382,0.67
0.021570181583812322,0.671
0.021378117550581787,0.672
0.02118514971235044,0.673
0.02099146085117825,0.674
0.020797229691558623,0.675
0.020602637669237287,0.676
0.02040787316483552,0.677
0.02021313247772155,0.678
0.020018617777664848,0.679
0.019824532741915084,0.68
0.01963107683669286,0.681
0.019438439533102172,0.682
0.019246796415640345,0.683
0.01905630878963994,0.684
0.018867126263692236,0.685
0.01867939034850144,0.686
0.018493237828361486,0.687
0.018308803680375744,0.688
0.01812622348446409,0.689
0.01794563512378813,0.69
0.01776717951658797,0.691
0.01759100018264622,0.692
0.017417241606176383,0.693
0.01724604653992045,0.694
0.01707755252249831,0.695
0.01691188806820464,0.696
0.016749169671697223,0.697
0.016589501366454866,0.698
0.016432977431745193,0.699
0.016279686865008455,0.7
0.016129717923976095,0.701
0.01598316187281528,0.702
0.01584011547907729,0.703
0.01570068194779024,0.704
0.015564970173131121,0.705
0.015433092372036855,0.706
0.015305160333997118,0.707
0.01518128080629978,0.708
0.01506155136860537,0.709
0.014946058853155805,0.71
0.014834880883440356,0.711
0.014728088613072713,0.712
0.014625748646520425,0.713
0.014527923660833017,0.714
0.014434672043175443,0.715
0.014346046980440983,0.716
0.014262095407005869,0.717
0.014182857051129786,0.718
0.014108363586355642,0.719
0.014038637693008942,0.72
0.013973691838040186,0.721
0.01391352707428253,0.722
0.013858132751419927,0.723
0.013807487524656867,0.724
0.013761560871856328,0.725
0.013720314227994822,0.726
0.013683701610848647,0.727
0.013651670046158216,0.728
0.013624160110482269,0.729
0.013601106748793555,0.73
0.01358244028166516,0.731
0.013568087299090493,0.732
0.013557971025064352,0.733
0.013552010760477663,0.734
0.013550120155454213,0.735
0.013552204751640963,0.736
0.013558160548832004,0.737
0.013567875288006761,0.738
0.013581231999984573,0.739
0.013598113040394601,0.74
0.013618403438861847,0.741
0.01364199316017381,0.742
0.01366877812669675,0.743
0.013698659943331859,0.744
0.013731544297905317,0.745
0.01376733799909272,0.746
0.013805944847394877,0.747
0.013847261774652517,0.748
0.01389117804051491,0.749
0.013937578717876587,0.75
0.01398635030596445,0.751
0.014037385497994269,0.752
0.01409058553596517,0.753
0.014145859600794496,0.754
0.014203121332037794,0.755
0.014262283351277499,0.756
0.01432325192672498,0.757
0.014385924869773694,0.758
0.014450193811794214,0.759
0.014515948639890959,0.76
0.014583081521804772,0.761
0.014651489709545065,0.762
0.01472107711452439,0.763
0.01479175465149702,0.764
0.014863439284613247,0.765
0.01493605161235787,0.766
0.01500951179546569,0.767
0.015083734633721702,0.768
0.01515862684660375,0.769
0.015234089352804564,0.77
0.015310023339722712,0.771
0.015386336576336338,0.772
0.015462947720617643,0.773
0.015539788062349095,0.774
0.015616800998920932,0.775
0.015693940020132916,0.776
0.0157711660691694,0.777
0.015848444841587768,0.778
0.015925744078776206,0.779
0.016003030492543226,0.78
0.016080265849892597,0.781
0.01615740282457771,0.782
0.016234383243600964,0.783
0.016311140600666692,0.784
0.016387605051104998,0.785
0.016463707891952072,0.786
0.016539384168637213,0.787
0.016614573187525256,0.788
0.016689217088606916,0.789
0.016763257910680354,0.79
0.016836633715058447,0.791
0.016909274335965296,0.792
0.016981097598196753,0.793
0.017052007322982916,0.794
0.017121893613143847,0.795
0.017190634085933586,0.796
0.01725809442386829,0.797
0.017324127733551766,0.798
0.01738857350493442,0.799
0.01745125815175734,0.8
0.01751199866751955,0.801
0.017570608981560407,0.802
0.01762690769635519,0.803
0.017680726120439565,0.804
0.017731915430742342,0.805
0.017780351459673056,0.806
0.017825935497942272,0.807
0.017868589790973718,0.808
0.0179082479636829,0.809
0.017944845255623825,0.81
0.017978317392247176,0.811
0.01800861146086872,0.812
0.01803570210925094,0.813
0.01805960483808084,0.814
0.018080383000482824,0.815
0.01809814816633449,0.816
0.018113054692816807,0.817
0.018125290163064262,0.818
0.01813506367408934,0.819
0.018142593784947668,0.82
0.01814809767644877,0.821
0.01815178348441213,0.822
0.01815384789901954,0.823
0.01815447886448398,0.824
0.018153860530416132,0.825
0.018152177898749285,0.826
0.018149620281963975,0.827
0.01814638328245205,0.828
0.018142669027578207,0.829
0.018138684530751122,0.83
0.01813463827360989,0.831
0.018130735388854523,0.832
0.018127172355958152,0.833
0.01812413291655491,0.834
0.018121786598809683,0.835
0.0181202890967781,0.836
0.018119782341247895,0.837
0.018120393567549287,0.838
0.018122234977438815,0.839
0.018125405357852658,0.84
0.018129992885245905,0.841
0.018136077605298957,0.842
0.018143732873359616,0.843
0.018153025592051515,0.844
0.018164015295142145,0.845
0.018176752388730084,0.846
0.01819127611525473,0.847
0.018207612953678096,0.848
0.018225776118561583,0.849
0.018245766522301612,0.85
0.01826757504872198,0.851
0.018291185393381315,0.852
0.018316576272856013,0.853
0.018343721683211824,0.854
0.01837258863408773,0.855
0.01840313432308441,0.856
0.01843530702321954,0.857
0.018469052586037985,0.858
0.01850432352002313,0.859
0.018541086398579362,0.86
0.018579325356730004,0.861
0.018619041078530556,0.862
0.01866024573011994,0.863
0.01870295516140396,0.864
0.018747180443279266,0.865
0.01879292153334129,0.866
0.018840165123893613,0.867
0.018888885867985043,0.868
0.018939048411641814,0.869
0.01899060892902306,0.87
0.019043516582969294,0.871
0.019097715641766023,0.872
0.019153148537320013,0.873
0.019209759613542904,0.874
0.01926749888979275,0.875
0.01932632498397804,0.876
0.01938620642125253,0.877
0.019447120833893085,0.878
0.019509051933352405,0.879
0.019571984494248906,0.88
0.01963589803801945,0.881
0.019700761173394133,0.882
0.019766529821686838,0.883
0.019833150722863326,0.884
0.01990056803834454,0.885
0.01996873035174027,0.886
0.020037596992960358,0.887
0.020107143143346766,0.888
0.020177362983976082,0.889
0.020248270237978514,0.89
0.020319895883381026,0.891
0.020392283395411593,0.892
0.020465482326551692,0.893
0.020539541165448254,0.894
0.020614500346031135,0.895
0.020690386659642564,0.896
0.020767210848339563,0.897
0.02084496881286655,0.898
0.020923644539480625,0.899
0.021003212816891555,0.9
0.021083641301238416,0.901
0.02116489211031501,0.902
0.021246923102389192,0.903
0.021329688964210485,0.904
0.02141314221672935,0.905
0.021497234243450354,0.906
0.021581916433798806,0.907
0.02166714148765713,0.908
0.021752864838085445,0.909
0.021839046032412778,0.91
0.021925649797981957,0.911
0.02201264643243607,0.912
0.02210001110739265,0.913
0.022187721661548705,0.914
0.0222757544970009,0.915
0.022364078826692304,0.916
0.022452651789044077,0.917
0.022541418814413666,0.918
0.022630320873808615,0.919
0.02271930537249097,0.92
0.02280833647142836,0.921
0.02289740239371002,0.922
0.022986518328544085,0.923
0.02307572415698101,0.924
0.023165077130791606,0.925
0.02325464064549558,0.926
0.023344472245359963,0.927
0.023434616302954743,0.928
0.02352510399404667,0.929
0.023615956384884056,0.93
0.02370718512476402,0.931
0.023798789528982626,0.932
0.023890752381291583,0.933
0.02398303763538165,0.934
0.024075590736659432,0.935
0.024168339051073937,0.936
0.024261190769680155,0.937
0.0243540342003485,0.938
0.02444673975033866,0.939
0.02453916399889174,0.94
0.02463115390556691,0.941
0.02472255024289302,0.942
0.02481319022686993,0.943
0.02490290948945467,0.944
0.024991543516262926,0.945
0.025078928556307452,0.946
0.025164901823207568,0.947
0.025249300577958288,0.948
0.02533195947655107,0.949
0.025412705573252353,0.95
0.025491352378142446,0.951
0.025567698220704864,0.952
0.025641532968559474,0.953
0.02571265022271425,0.954
0.025780859167279097,0.955
0.02584599260052658,0.956
0.025907909623979902,0.957
0.02596649246116502,0.958
0.0260216379356986,0.959
0.02607324532100992,0.96
0.02612120481569214,0.961
0.026165393079102584,0.962
0.02620567813503455,0.963
0.026241928643562694,0.964
0.026274021892428442,0.965
0.026301848882157433,0.966
0.026325316784130578,0.967
0.02634434916223889,0.968
0.026358884307935076,0.969
0.026368871894977667,0.97
0.026374267985085353,0.971
0.02637502829276798,0.972
0.026371100227863174,0.973
0.026362416628096658,0.974
0.02634889580365129,0.975
0.02633044923625994,0.976
0.02630699328286126,0.977
0.026278460719944295,0.978
0.026244810075590614,0.979
0.026206031633117546,0.98
0.02616214923029435,0.981
0.026113217435055198,0.982
0.026059314278815984,0.983
0.026000530343186636,0.984
0.025936955994996173,0.985
0.025868670858228575,0.986
0.02579574078342267,0.987
0.025718223235662776,0.988
0.025636176312789076,0.989
0.02554966684950024,0.99
0.025458776413765885,0.991
0.02536360531339507,0.992
0.02526427469436509,0.993
0.025160926779323918,0.994
0.025053723303265787,0.995
0.024942842237682894,0.996
0.024828472921420944,0.997
0.024710809728348913,0.998
0.024590044423907123,0.999
0.024466358294557237,1.0
0.024339917362326168,1.001
0.02421087389997954,1.002
0.024079373269670534,1.003
0.02394556217846555,1.004
0.0238095955277738,1.005
0.02367164075853113,1.006
0.023531879283756732,1.007
0.023390505065509815,1.008
0.023247720896597168,1.009
0.02310373328244584,1.01
0.022958746866375588,1.011
0.02281295913693761,1.012
0.022666555833185328,1.013
0.022519707160554795,1.014
0.02237256492315504,1.015
0.022225261036635004,1.016
0.022077907782373243,1.017
0.021930599332699856,1.018
0.021783413726499255,1.019
0.021636414949942437,1.02
0.021489655187264704,1.021
0.021343177353821893,1.022
0.02119701793852619,1.023
0.021051210067888206,1.024
0.020905786584045707,1.025
0.020760782821560294,1.026
0.02061623868908198,1.027
0.020472199629701825,1.028
0.020328716059380105,1.029
0.020185840971106213,1.03
0.02004362554514041,1.031
0.019902113512961443,1.032
0.019761337197896713,1.033
0.01962131867740932,1.034
0.019482075957142967,1.035
0.01934363060263839,1.036
0.019206013671797067,1.037
0.01906926863710215,1.038
0.01893345103416724,1.039
0.018798625235474858,1.04
0.018664859303543207,1.041
0.018532219124134948,1.042
0.018400762900580167,1.043
0.018270536713278242,1.044
0.018141571498919654,1.045
0.018013881621277632,1.046
0.017887464870357025,1.047
0.01776230335716069,1.048
0.01763836494620896,1.049
0.017515605280168742,1.05
0.017393970497381738,1.051
0.01727340052912606,1.052
0.017153832629528753,1.053
0.017035204590319816,1.054
0.01691745695344955,1.055
0.016800533486831172,1.056
0.016684379273404167,1.057
0.016568936469782605,1.058
0.016454140085685173,1.059
0.016339918081145998,1.06
0.016226197362439264,1.061
0.01611291224468511,1.062
0.016000011007424923,1.063
0.015887458419666385,1.064
0.015775233756866253,1.065
0.01566332475087655,1.066
0.015551719478770114,1.067
0.015440400600631234,1.068
0.015329345936278528,1.069
0.015218534458517648,1.07
0.01510795336218157,1.071
0.014997603217098154,1.072
0.014887500444087461,1.073
0.014777677164988665,1.074
0.01466817875251249,1.075
0.014559059661678274,1.076
0.01445037831442981,1.077
0.01434219186966894,1.078
0.014234551588636978,1.079
0.014127499258981473,1.08
0.014021065025008151,1.081
0.013915266969286738,1.082
0.013810112473697896,1.083
0.013705600960047705,1.084
0.013601727614004777,1.085
0.013498487788554758,1.086
0.013395881556787514,1.087
0.01329391760687121,1.088
0.01319261562927561,1.089
0.013092006596948957,1.09
0.012992130815833544,1.091
0.012893034140065226,1.092
0.012794763103401328,1.093
0.012697359939503943,1.094
0.012600858798168722,1.095
0.01250528440108412,1.096
0.01241065306808759,1.097
0.012316974730435774,1.098
0.012224254873997536,1.099
0.012132496275304517,1.1
0.012041700610075408,1.101
0.011951869873081314,1.102
0.011863007453579995,1.103
0.011775118651673912,1.104
0.011688210384714796,1.105
0.011602289835675747,1.106
0.011517361864509445,1.107
0.011433425848351267,1.108
0.011350474301678102,1.109
0.011268495228426658,1.11
0.011187477102666083,1.111
0.011107413866366225,1.112
0.011028308284360785,1.113
0.01095017293828079,1.114
0.010873028667591931,1.115
0.010796900822876435,1.116
0.010721814304135028,1.117
0.01064778921810144,1.118
0.01057483923358939,1.119
0.010502972873065085,1.12
0.010432195790739405,1.121
0.010362512338261376,1.122
0.010293926167731584,1.123
0.010226440200532868,1.124
0.010160056284136607,1.125
0.01009477480650244,1.126
0.01003059445541889,1.127
0.009967512208108518,1.128
0.009905523530156751,1.129
0.00984462267829522,1.13
0.009784802963642465,1.131
0.009726056846364716,1.132
0.009668375782270722,1.133
0.009611749799293653,1.134
0.009556166824182376,1.135
0.009501611797235202,1.136
0.00944806560947949,1.137
0.009395503880905327,1.138
0.009343895676789673,1.139
0.009293202608682438,1.14
0.009243379040105604,1.141
0.00919437368386304,1.142
0.009146132183239,1.143
0.0090986001486463,1.144
0.009051726294462619,1.145
0.0090054653109785,1.146
0.008959780063053533,1.147
0.008914642793980696,1.148
0.008870035192656927,1.149
0.008825947378152205,1.15
0.008782376006505459,1.151
0.00873932178794405,1.152
0.008696786722960967,1.153
0.008654771332981363,1.154
0.008613272090997421,1.155
0.008572279360222932,1.156
0.00853177640689861,1.157
0.00849173969565154,1.158
0.0084521398375681,1.159
0.008412942490802221,1.16
0.008374109073670425,1.161
0.008335597437085672,1.162
0.00829736266958656,1.163
0.008259358193159278,1.164
0.008221537255094988,1.165
0.008183854840887819,1.166
0.008146269940240036,1.167
0.008108748003516516,1.168
0.008071263331947161,1.169
0.008033801057728314,1.17
0.00799635831782715,1.171
0.007958944248175493,1.172
0.007921578543043994,1.173
0.007884288520664745,1.174
0.007847104871465468,1.175
0.007810057159265623,1.176
0.007773171536950623,1.177
0.007736472124724113,1.178
0.007699984285771209,1.179
0.00766373721170014,1.18
0.007627764903449403,1.181
0.007592105731790891,1.182
0.007556801035033405,1.183
0.007521893307770219,1.184
0.0074874244844279035,1.185
0.0074534346845652084,1.186
0.007419961628656792,1.187
0.007387040787213701,1.188
0.007354706194835835,1.189
0.007322991739732272,1.19
0.007291932636057084,1.191
0.0072615667235499375,1.192
0.007231935243674903,1.193
0.007203082827263475,1.194
0.007175056583048613,1.195
0.0071479043663540175,1.196
0.007121672490893077,1.197
0.007096403436896797,1.198
0.007072134404068428,1.199
0.007048897108377632,1.2
0.007026718232567076,1.201
0.007005619809796596,1.202
0.006985619517010695,1.203
0.006966731255483541,1.204
0.006948966281739411,1.205
0.006932334827293992,1.206
0.006916847809689867,1.207
0.006902518047145694,1.208
0.006889360427213244,1.209
0.006877390727144116,1.21
0.006866623398145762,1.211
0.006857069635122524,1.212
0.006848737164801802,1.213
0.006841631501412373,1.214
0.006835756944856914,1.215
0.00683111608655283,1.216
0.006827708282828564,1.217
0.006825528972241427,1.218
0.006824571018644743,1.219
0.00682482703394909,1.22
0.006826291031438486,1.221
0.006828958826067766,1.222
0.006832827316545618,1.223
0.006837892976511095,1.224
0.006844149943737948,1.225
0.006851588185994785,1.226
0.006860192392273286,1.227
0.0068699419467064685,1.228
0.006880811568724432,1.229
0.006892771930787232,1.23
0.006905789960330467,1.231
0.006919828892087618,1.232
0.006934848267790574,1.233
0.00695080411477048,1.234
0.006967649489010252,1.235
0.0069853354470220935,1.236
0.007003812352948208,1.237
0.007023031282204091,1.238
0.007042945196113143,1.239
0.007063509561947659,1.24
0.007084682179491429,1.241
0.00710642211932915,1.242
0.00712868783381521,1.243
0.007151434902918499,1.244
0.00717461459891355,1.245
0.007198174344791347,1.246
0.007222059761959571,1.247
0.007246217137653695,1.248
0.007270595564952123,1.249
0.007295148564718104,1.25
0.007319835158608077,1.251
0.0073446203837241025,1.252
0.0073694752471117585,1.253
0.007394376126029854,1.254
0.007419303637354195,1.255
0.007444241026351627,1.256
0.00746917215235777,1.257
0.007494079165748489,1.258
0.007518940258392224,1.259
0.007543728477221319,1.26
0.007568412357908974,1.261
0.007592957848860452,1.262
0.007617330411362932,1.263
0.007641496669671176,1.264
0.007665425423080572,1.265
0.007689087997008179,1.266
0.007712458048408124,1.267
0.007735511049875057,1.268
0.007758223712201359,1.269
0.007780573559764623,1.27
0.007802538776068846,1.271
0.00782409832799384,1.272
0.007845232283851014,1.273
0.007865922170988603,1.274
0.007886151176294683,1.275
0.007905903991277807,1.276
0.00792516616116876,1.277
0.007943922906381707,1.278
0.007962157497241043,1.279
0.007979849368867064,1.28
0.007996972472828897,1.281
0.008013494729330195,1.282
0.008029378994064149,1.283
0.008044584958109047,1.284
0.00805907121810827,1.285
0.008072797219908733,1.286
0.00808572499711967,1.287
0.008097820645008054,1.288
0.008109055501128145,1.289
0.00811940702593235,1.29
0.008128859384849462,1.291
0.008137403735917868,1.292
0.008145038224187207,1.293
0.00815176766453927,1.294
0.008157602853197991,1.295
0.00816255940140952,1.296
0.00816665596610854,1.297
0.008169911789224348,1.298
0.008172343842328261,1.299
0.008173964817700942,1.3
0.008174783463464464,1.301
0.008174807267702535,1.302
0.008174046041556658,1.303
0.008172515148051542,1.304
0.008170237884589282,1.305
0.008167246840254617,1.306
0.00816358416178169,1.307
0.008159300800973221,1.308
0.00815445495841291,1.309
0.008149110044921148,1.31
0.008143332515324552,1.311
0.008137189872515733,1.312
0.008130749011214718,1.313
0.00812407491809085,1.314
0.008117229626409251,1.315
0.008110271279248876,1.316
0.00810325318425782,1.317
0.00809622282262612,1.318
0.008089220988189823,1.319
0.008082281492430884,1.32
0.008075431675298976,1.321
0.008068693427316847,1.322
0.008062084332114042,1.323
0.00805561881389246,1.324
0.008049309297783096,1.325
0.008043167368678506,1.326
0.008037204883714814,1.327
0.00803143497586841,1.328
0.008025872890886012,1.329
0.008020536619434832,1.33
0.008015447305846772,1.331
0.00801062942330054,1.332
0.008006110699489796,1.333
0.008001921760759803,1.334
0.00799809545006658,1.335
0.007994665785453227,1.336
0.007991666573784775,1.337
0.00798912977053888,1.338
0.007987083750917442,1.339
0.007985551693940694,1.34
0.007984550306473409,1.341
0.0079840891135139,1.342
0.007984170338269234,1.343
0.00798478912774332,1.344
0.007985933938372797,1.345
0.007987587135172669,1.346
0.00798972591586459,1.347
0.007992323581406969,1.348
0.007995351080163682,1.349
0.007998778694998484,1.35
0.008002577718065193,1.351
0.008006721946828835,1.352
0.008011188827501774,1.353
0.00801596008246268,1.354
0.00802102170784821,1.355
0.008026363321993567,1.356
0.008031976965418311,1.357
0.008037855561681616,1.358
0.008043991307625087,1.359
0.00805037425124378,1.36
0.008056991244245382,1.361
0.008063825354191414,1.362
0.008070855720042205,1.363
0.008078057754491174,1.364
0.008085403542686173,1.365
0.008092862258531775,1.366
0.008100400413767122,1.367
0.008107981772478233,1.368
0.00811556681009304,1.369
0.008123111668194622,1.37
0.008130566877974402,1.371
0.00813787672546334,1.372
0.008144980026203397,1.373
0.008151812038416788,1.374
0.00815830671096188,1.375
0.00816439879078243,1.376
0.008170025613715607,1.377
0.008175128476233272,1.378
0.008179653532127053,1.379
0.008183552208421594,1.38
0.0081867811929446,1.381
0.00818930210957627,1.382
0.008191081046318122,1.383
0.008192088106394992,1.384
0.008192297094591926,1.385
0.008191685340289476,1.386
0.008190233538493444,1.387
0.008187925416156601,1.388
0.008184747036097785,1.389
0.00818068562334471,1.39
0.008175727896083881,1.391
0.008169857966027311,1.392
0.008163055216769957,1.393
0.008155293211790824,1.394
0.008146540445123402,1.395
0.00813676246170602,1.396
0.008125924347172875,1.397
0.008113993116255732,1.398
0.008100939924665873,1.399
0.008086742087545642,1.4
0.008071384890839122,1.401
0.008054863164188835,1.402
0.008037182537619645,1.403
0.008018360243423193,1.404
0.007998425287334372,1.405
0.007977417836347213,1.406
0.007955387759218514,1.407
0.00793239237484563,1.408
0.00790849356097766,1.409
0.007883754417060861,1.41
0.007858235936328836,1.411
0.007831994828721552,1.412
0.007805083645637861,1.413
0.0077775529369482205,1.414
0.007749454042209249,1.415
0.0077208414884317985,1.416
0.007691774701993781,1.417
0.007662319016647947,1.418
0.007632546022464319,1.419
0.007602533335348033,1.42
0.007572363879547085,1.421
0.007542124784985176,1.422
0.007511906018977262,1.423
0.007481798890827577,1.424
0.007451894570351587,1.425
0.007422282739488615,1.426
0.007393050460530468,1.427
0.007364281309311953,1.428
0.007336054785524067,1.429
0.007308445964345606,1.43
0.0072815252973959,1.431
0.007255358428186652,1.432
0.0072300058763482,1.433
0.007205522548112976,1.434
0.0071819573518908325,1.435
0.007159353416943028,1.436
0.007137749056283899,1.437
0.007117179074966839,1.438
0.0070976759737151705,1.439
0.007079270855400364,1.44
0.007061994008919745,1.441
0.0070458752187253625,1.442
0.007030943887400464,1.443
0.007017229059327949,1.444
0.007004759401442678,1.445
0.0069935631466271995,1.446
0.006983667960697467,1.447
0.006975100680049212,1.448
0.006967886891847376,1.449
0.006962050374908332,1.45
0.00695761245516911,1.451
0.0069545913316141445,1.452
0.0069530014022885465,1.453
0.006952852593683269,1.454
0.006954149690720874,1.455
0.006956891709813593,1.456
0.006961071466821244,1.457
0.00696667550044202,1.458
0.006973684291144537,1.459
0.0069820725286459965,1.46
0.00699180925936935,1.461
0.0070028579160363175,1.462
0.007015176316738952,1.463
0.007028716737681477,1.464
0.007043426147849298,1.465
0.007059246662649817,1.466
0.007076116244555087,1.467
0.007093969653164072,1.468
0.007112739614721128,1.469
0.007132358134976423,1.47
0.0071527578252315056,1.471
0.007173873069819645,1.472
0.007195640858711979,1.473
0.007218001151305163,1.474
0.007240896712074994,1.475
0.00726427243647448,1.476
0.007288074240928358,1.477
0.007312247613493253,1.478
0.007336735916906896,1.479
0.007361478622620745,1.48
0.007386409994857562,1.481
0.007411458916256967,1.482
0.0074365499404246815,1.483
0.007461604910077261,1.484
0.007486544520522397,1.485
0.007511289626356037,1.486
0.0075357622743073985,1.487
0.007559886491944407,1.488
0.007583588906142335,1.489
0.007606799287997701,1.49
0.007629451107665685,1.491
0.007651482130331938,1.492
0.0076728350064887456,1.493
0.007693457730298095,1.494
0.007713303782219326,1.495
0.007732331752900715,1.496
0.0077505042758447135,1.497
0.0077677861755104435,1.498
0.0077841418420884784,1.499
0.007799532434662845,1.5
0.007813914604425784,1.501
0.007827242010778706,1.502
0.007839468785709628,1.503
0.007850553282481723,1.504
0.007860461263803138,1.505
0.007869168237571608,1.506
0.00787666075735717,1.507
0.007882936614653545,1.508
0.00788800397436788,1.509
0.007891879626910278,1.51
0.007894586624371416,1.511
0.007896151609772466,1.512
0.007896602128812595,1.513
0.007895964148409547,1.514
0.00789425992435541,1.515
0.007891506301133657,1.516
0.007887713566127403,1.517
0.007882885041502204,1.518
0.007877017420027093,1.519
0.007870101595689885,1.52
0.007862123795565222,1.521
0.007853066996680216,1.522
0.007842912607184808,1.523
0.007831642301668726,1.524
0.007819239848972962,1.525
0.007805692763896318,1.526
0.0077909936355033465,1.527
0.007775141013587452,1.528
0.00775813976788794,1.529
0.007740000881965096,1.53
0.007720740706905652,1.531
0.007700379765672035,1.532
0.007678941249377165,1.533
0.007656449367679168,1.534
0.007632927695955474,1.535
0.007608397602211016,1.536
0.007582876756680448,1.537
0.007556377779247002,1.538
0.007528907412512037,1.539
0.007500466767611688,1.54
0.0074710526797527104,1.541
0.007440659637941387,1.542
0.007409281784924845,1.543
0.007376914761271176,1.544
0.007343557294661455,1.545
0.007309212474927266,1.546
0.007273888672504029,1.547
0.007237600055657924,1.548
0.007200366668390549,1.549
0.007162214067516547,1.55
0.007123172576222095,1.551
0.007083276260006466,1.552
0.007042561734787013,1.553
0.007001066865939686,1.554
0.00695882933640806,1.555
0.006915884997519044,1.556
0.0068722661504043445,1.557
0.0068280005726790586,1.558
0.006783112197020293,1.559
0.006737623288814003,1.56
0.00669155714960457,1.561
0.006644940595077982,1.562
0.006597805886674761,1.563
0.006550191966263443,1.564
0.006502144922692785,1.565
0.006453717686435711,1.566
0.006404969002609688,1.567
0.006355961782307617,1.568
0.006306760981058828,1.569
0.006257431192071779,1.57
0.006208034347302902,1.571
0.006158628333112032,1.572
0.006109267139221178,1.573
0.006060002136615885,1.574
0.0060108835271752425,1.575
0.005961961385089561,1.576
0.005913286135796582,1.577
0.0058649084520767695,1.578
0.005816878602993055,1.579
0.005769245354908808,1.58
0.005722054613145408,1.581
0.0056753481772403944,1.582
0.005629163077681222,1.583
0.005583531529176771,1.584
0.005538481001302007,1.585
0.005494034160757784,1.586
0.005450208991875006,1.587
0.005407019297309241,1.588
0.005364475360886434,1.589
0.005322584514960322,1.59
0.005281351564497254,1.591
0.005240779125843328,1.592
0.0052008679270227915,1.593
0.005161617062688418,1.594
0.005123024132960918,1.595
0.005085085157026086,1.596
0.0050477941588269555,1.597
0.005011142424855667,1.598
0.004975117771751384,1.599
0.004939704488705578,1.6
0.004904884261948365,1.601
0.004870637638943419,1.602
0.004836945449905203,1.603
0.004803789957983154,1.604
0.0047711557296456686,1.605
0.004739030273962267,1.606
0.004707404490841849,1.607
0.004676272894196463,1.608
0.004645633487463276,1.609
0.004615487134411805,1.61
0.00458583632392094,1.611
0.004556683409821293,1.612
0.004528028904695747,1.613
0.004499870884232659,1.614
0.0044722059310835244,1.615
0.004445030793044242,1.616
0.0044183437716942865,1.617
0.004392145533228274,1.618
0.00436643939190412,1.619
0.004341231181177202,1.62
0.004316528856950557,1.621
0.004292341965089484,1.622
0.00426868105972085,1.623
0.0042455571071750185,1.624
0.0042229808803579795,1.625
0.004200962350759768,1.626
0.004179510112167949,1.627
0.004158630897933335,1.628
0.004138329254135032,1.629
0.004118607392418949,1.63
0.004099465184920345,1.631
0.00408090021129204,1.632
0.0040629077496182175,1.633
0.004045480625022934,1.634
0.004028608878567634,1.635
0.004012279354207754,1.636
0.003996475515193335,1.637
0.003981177757434388,1.638
0.003966364151080354,1.639
0.00395201140912328,1.64
0.00393809600332045,1.641
0.0039245953923994735,1.642
0.003911489271949906,1.643
0.0038987607020497437,1.644
0.0038863969433316427,1.645
0.003874389846086522,1.646
0.0038627356942321184,1.647
0.0038514344968350197,1.648
0.003840488818501107,1.649
0.003829902314833379,1.65
0.0038196781692884023,1.651
0.0038098176933034932,1.652
0.0038003194710509326,1.653
0.003791179262926173,1.654
0.0037823904034109514,1.655
0.003773944258302723,1.656
0.0037658305631237403,1.657
0.0037580376811609134,1.658
0.003750552859595794,1.659
0.003743362549127357,1.66
0.003736452829533621,1.661
0.003729809952878578,1.662
0.003723420980726236,1.663
0.0037172744528377382,1.664
0.003711360986399634,1.665
0.00370567368005214,1.666
0.003700208203076157,1.667
0.003694962495876266,1.668
0.0036899360860523714,1.669
0.003685129111430541,1.67
0.003680541205097195,1.671
0.003676170411826756,1.672
0.0036720122917585467,1.673
0.003668059360544859,1.674
0.0036643009405553932,1.675
0.00366072332881151,1.676
0.003657310116727819,1.677
0.003654042593027463,1.678
0.003650900242252875,1.679
0.0036478613378283604,1.68
0.0036449035928873435,1.681
0.0036420048173471183,1.682
0.0036391435352577397,1.683
0.0036362995309951376,1.684
0.003633454300596501,1.685
0.0036305913741051885,1.686
0.0036276964503678525,1.687
0.003624757269246905,1.688
0.003621763161208871,1.689
0.0036187042656179147,1.69
0.0036155704807988315,1.691
0.003612350300524761,1.692
0.003609029839039087,1.693
0.003605592391370022,1.694
0.003602018542569753,1.695
0.0035982864570438347,1.696
0.003594372077012176,1.697
0.003590249275895502,1.698
0.0035858901212520145,1.699
0.0035812653534164937,1.7
0.0035763450998946146,1.701
0.003571099754449435,1.702
0.0035655008867193135,1.703
0.003559522027969294,1.704
0.003553139195593922,1.705
0.0035463310602895323,1.706
0.0035390787140843873,1.707
0.0035313650495209393,1.708
0.003523173788405571,1.709
0.003514488240372019,1.71
0.0035052901713781967,1.711
0.003495559577693032,1.712
0.0034852757982588587,1.713
0.003474419433075143,1.714
0.0034629742690594624,1.715
0.003450928799852763,1.716
0.003438277154146238,1.717
0.0034250193094648466,1.718
0.003411160539211874,1.719
0.0033967101091516992,1.72
0.0033816793017901127,1.721
0.0033660792956028596,1.722
0.0033499202406137955,1.723
0.003333212423701242,1.724
0.0033159686823225403,1.725
0.0032982066569760414,1.726
0.0032799501962322863,1.727
0.0032612296926490987,1.728
0.0032420812846220034,1.729
0.0032225450549857298,1.73
0.003202662669493064,1.731
0.0031824754066639956,1.732
0.003162023580697285,1.733
0.003141347297724035,1.734
0.0031204874500133997,1.735
0.003099486089598297,1.736
0.003078386068620896,1.737
0.0030572301671697986,1.738
0.003036060021103219,1.739
0.0030149152293969792,1.74
0.002993832893481163,1.741
0.002972847507358257,1.742
0.0029519910365353383,1.743
0.002931293224162102,1.744
0.0029107821034523736,1.745
0.0028904844657943953,1.746
0.002870426052118781,1.747
0.0028506314123805227,1.748
0.002831123514354819,1.749
0.0028119232692909984,1.75
0.0027930491663381873,1.751
0.0027745171058751344,1.752
0.0027563403831099035,1.753
0.0027385297575468243,1.754
0.002721093553865807,1.755
0.0027040377145352915,1.756
0.0026873658378773115,1.757
0.002671079377558001,1.758
0.0026551780583467426,1.759
0.0026396603199588275,1.76
0.002624523541526396,1.761
0.0026097638982524544,1.762
0.002595375971980127,1.763
0.0025813526463287426,1.764
0.002567685718452752,1.765
0.002554366986297969,1.766
0.0025413892759518033,1.767
0.0025287471039024214,1.768
0.0025164368644355235,1.769
0.0025044565228739724,1.77
0.0024928048783128876,1.771
0.002481480555134493,1.772
0.002470481101411372,1.773
0.0024598027462037577,1.774
0.002449441014264445,1.775
0.002439391793292407,1.776
0.0024296523568425603,1.777
0.0024202220954877268,1.778
0.0024111028183273335,1.779
0.0024022985312911207,1.78
0.002393814704314779,1.781
0.0023856571638443,1.782
0.002377830941498449,1.783
0.00237033959955593,1.784
0.00236318526032773,1.785
0.0023563689402649472,1.786
0.002349890690967509,1.787
0.0023437494124041065,1.788
0.002337942485730751,1.789
0.0023324655610403072,1.79
0.002327312770518224,1.791
0.002322477271994631,1.792
0.00231795184511721,1.793
0.002313729379025428,1.794
0.0023098031960902435,1.795
0.0023061671745719273,1.796
0.002302815637538966,1.797
0.0022997429876069585,1.798
0.002296943099051052,1.799
0.0022944086509198024,1.8
0.0022921308508883835,1.801
0.002290099834708423,1.802
0.0022883054705583167,1.803
0.002286738141181844,1.804
0.002285389328300321,1.805
0.0022842519800969365,1.806
0.0022833206883667656,1.807
0.002282591739411684,1.808
0.002282063109502827,1.809
0.002281734442657132,1.81
0.002281606991604111,1.811
0.0022816834535312022,1.812
0.0022819676162774685,1.813
0.002282463756275818,1.814
0.0022831758267281765,1.815
0.0022841067201477723,1.816
0.002285258073963088,1.817
0.00228663075946468,1.818
0.002288225647476487,1.819
0.002290044196904696,1.82
0.0022920887131820888,1.821
0.002294362304976589,1.822
0.002296868632001826,1.823
0.002299611565651741,1.824
0.002302594869076234,1.825
0.0023058219549854154,1.826
0.0023092957190755776,1.827
0.002313018396244845,1.828
0.002316991361043848,1.829
0.0023212148011149524,1.83
0.002325687324441936,1.831
0.0023304057979496953,1.832
0.002335365645271375,1.833
0.002340561433493941,1.834
0.002345987445468095,1.835
0.0023516381139899287,1.836
0.002357508306045223,1.837
0.0023635934522594324,1.838
0.0023698895017880673,1.839
0.0023763926617444836,1.84
0.002383098878095203,1.841
0.002390003154190315,1.842
0.0023970991093886745,1.843
0.0024043791791260776,1.844
0.0024118353462591192,1.845
0.0024194599505335764,1.846
0.00242724627440268,1.847
0.0024351888274301587,1.848
0.0024432833325090204,1.849
0.0024515264376921346,1.85
0.002459915183464915,1.851
0.0024684462577012982,1.852
0.002477115201607837,1.853
0.0024859160017674875,1.854
0.002494841401601768,1.855
0.002503883714460545,1.856
0.0025130356857748417,1.857
0.0025222911636959577,1.858
0.0025316455071481194,1.859
0.00254109570897999,1.86
0.0025506402496067587,1.861
0.0025602787253607173,1.862
0.0025700113050474457,1.863
0.002579838057042805,1.864
0.00258975819033293,1.865
0.002599769391774254,1.866
0.0026098676423408685,1.867
0.00262004771199401,1.868
0.0026303040652448633,1.869
0.0026406318035091083,1.87
0.0026510274729843524,1.871
0.002661489662201713,1.872
0.0026720193187357664,1.873
0.0026826197405507663,1.874
0.002693296242228414,1.875
0.002704055542535656,1.876
0.0027149049488814684,1.877
0.002725851420271216,1.878
0.002736900658653338,1.879
0.002748056549547646,1.88
0.0027593212282517555,1.881
0.0027706956577497922,1.882
0.0027821803701154058,1.883
0.002793776154753352,1.884
0.0028054846255984086,1.885
0.002817308615597206,1.886
0.002829252333397155,1.887
0.002841321231549752,1.888
0.002853521579877549,1.889
0.0028658597951669953,1.89
0.002878341625392243,1.891
0.002890971326398629,1.892
0.0029037510246488047,1.893
0.0029166804328762896,1.894
0.0029297568589759086,1.895
0.002942975250504102,1.896
0.0029563281081778116,1.897
0.0029698053082867692,1.898
0.0029833939554803784,1.899
0.0029970783482233506,1.9
0.0030108400913192394,1.901
0.003024658366856908,1.902
0.0030385103169555836,1.903
0.0030523714300106073,1.904
0.003066215816893536,1.905
0.0030800162852080383,1.906
0.0030937441421667127,1.907
0.00310736878721215,1.908
0.0031208574660805816,1.909
0.0031341756375086517,1.91
0.0031472879541388546,1.911
0.0031601594273956177,1.912
0.003172756349552201,1.913
0.003185046716261146,1.914
0.0031970000206982064,1.915
0.0032085863986242077,1.916
0.003219775400037014,1.917
0.0032305352198261305,1.918
0.0032408331911372183,1.919
0.0032506373594295766,1.92
0.003259918279846545,1.921
0.0032686504255491863,1.922
0.0032768129929792154,1.923
0.0032843900610357666,1.924
0.0032913701440107513,1.925
0.003297745226549372,1.926
0.003303509383615066,1.927
0.003308657125874027,1.928
0.003313181910516032,1.929
0.003317075648656421,1.93
0.003320329599952796,1.931
0.0033229360237561306,1.932
0.003324889751468628,1.933
0.0033261893300367074,1.934
0.003326837655083485,1.935
0.0033268420796183098,1.936
0.0033262140531682676,1.937
0.0033249683977872985,1.938
0.003323122348923341,1.939
0.003320694478762709,1.94
0.0033177035878825677,1.941
0.0033141676145462184,1.942
0.003310102669021425,1.943
0.003305522490327254,1.944
0.0033004385953275925,1.945
0.0032948610057585903,1.946
0.0032887992125672553,1.947
0.003282263163173655,1.948
0.00327526418694416,1.949
0.003267815783511567,1.95
0.003259934186547474,1.951
0.0032516386194003264,1.952
0.0032429511791996347,1.953
0.003233896324554585,1.954
0.0032244999986600154,1.955
0.0032147884856665353,1.956
0.003204787171535239,1.957
0.0031945195091022897,1.958
0.0031840065456908502,1.959
0.0031732670524430807,1.96
0.0031623178763376964,1.961
0.0031511741934197326,1.962
0.0031398496471873633,1.963
0.003128356462434679,1.964
0.0031167055914039002,1.965
0.0031049069114530347,1.966
0.003092969469802701,1.967
0.0030809017615590077,1.968
0.0030687120206046533,1.969
0.003056408492073523,1.97
0.003043999644440629,1.971
0.0030314942778953157,1.972
0.0030189014973909804,1.973
0.0030062305397622,1.974
0.0029934904682929107,1.975
0.0029806897710021023,1.976
0.002967835918445249,1.977
0.002954934948299516,1.978
0.0029419911386320673,1.979
0.002929006804887428,1.98
0.002915982216385794,1.981
0.002902915593680885,1.982
0.002889803126866856,1.983
0.002876638942385803,1.984
0.002863414974705734,1.985
0.0028501208525313158,1.986
0.002836744075586711,1.987
0.0028232706394154595,1.988
0.0028096859612636712,1.989
0.002795975854942671,1.99
0.002782127386903751,1.991
0.0027681295191483183,1.992
0.0027539734968659376,1.993
0.0027396529951536244,1.994
0.0027251640788268096,1.995
0.0027105050348305596,1.996
0.002695676106447163,1.997
0.002680679112716675,1.998
0.0026655169079452105,1.999
0.0026501926474708478,2.0
0.002634708892863494,2.001
0.0026190667887804574,2.002
0.002603265739811329,2.003
0.0025873037546870815,2.004
0.0025711781094634213,2.005
0.0025548859400849034,2.006
0.0025384246824618952,2.007
0.002521792430463765,2.008
0.002504988289280731,2.009
0.002488012782451043,2.01
0.002470868336770756,2.011
0.0024535598294441957,2.012
0.0024360951372547285,2.013
0.0024184855837584597,2.014
0.0024007461552547345,2.015
0.002382895366977166,2.016
0.002364954709832457,2.017
0.002346947681569684,2.018
0.0023288984979177307,2.019
0.0023108308343250455,2.02
0.002292767255633828,2.021
0.0022747296321396545,2.022
0.0022567400187035705,2.023
0.0022388213523550733,2.024
0.002220997787968051,2.025
0.002203294743019074,2.026
0.0021857387564940306,2.027
0.00216835726438376,2.028
0.0021511783627077923,2.029
0.0021342305866613905,2.03
0.002117542698982611,2.031
0.002101143463043407,2.032
0.0020850613796327155,2.033
0.0020693243856739806,2.034
0.0020539595364144282,2.035
0.0020389927069140276,2.036
0.002024448346028748,2.037
0.002010349299826439,2.038
0.001996716705327272,2.039
0.001983569950621765,2.04
0.001970926699662009,2.041
0.001958802975514336,2.042
0.0019472132768386802,2.043
0.0019361706757977006,2.044
0.001925686829113899,2.045
0.0019157718919382031,2.046
0.001906434481428305,2.047
0.0018976818826392143,2.048
0.0018895204948055303,2.049
0.0018819563388865733,2.05
0.001874995449621681,2.051
0.001868644032661194,2.052
0.0018629083194093038,2.053
0.0018577941285027701,2.054
0.001853306313445822,2.055
0.00184944846380881,2.056
0.0018462230369774013,2.057
0.0018436316389443084,2.058
0.001841675103599383,2.059
0.001840353300590089,2.06
0.0018396648284271977,2.061
0.0018396068613338288,2.062
0.0018401752834560667,2.063
0.001841364948208788,2.064
0.0018431698465255497,2.065
0.001845583130316467,2.066
0.0018485970458854434,2.067
0.0018522028591569785,2.068
0.0018563908397816057,2.069
0.0018611503199460618,2.07
0.0018664697847746606,2.071
0.0018723369168258926,2.072
0.001878738523882819,2.073
0.001885660323497218,2.074
0.0018930866717872532,2.075
0.0019010004663636945,2.076
0.0019093833835497104,2.077
0.0019182163583394405,2.078
0.0019274801414367214,2.079
0.001937155864250072,2.08
0.0019472255753750717,2.081
0.001957672681948188,2.082
0.0019684822065430736,2.083
0.0019796407738876826,2.084
0.001991136279601258,2.085
0.0020029572539281395,2.086
0.0020150920334215386,2.087
0.002027528051964136,2.088
0.0020402516720690865,2.089
0.00205324866251954,2.09
0.0020665049913784522,2.091
0.0020800075940401366,2.092
0.002093744999255036,2.093
0.002107707779252142,2.094
0.002121888782690892,2.095
0.002136283112329684,2.096
0.002150887831019694,2.097
0.002165701419688828,2.098
0.002180723057155922,2.099
0.002195951825049764,2.1
0.002211385949960633,2.101
0.0022270221841392338,2.102
0.002242855397373768,2.103
0.002258878399818769,2.104
0.002275081961617205,2.105
0.0022914549569460637,2.106
0.0023079845251851826,2.107
0.0023246561313416446,2.108
0.0023414534815809915,2.109
0.0023583584307143627,2.11
0.0023753511323477356,2.111
0.002392410527157301,2.112
0.0024095150303417314,2.113
0.0024266432438152584,2.114
0.002443774598932917,2.115
0.0024608898798728395,2.116
0.002477971594284672,2.117
0.0024950041702838013,2.118
0.0025119739654117347,2.119
0.0025288690782812808,2.12
0.0025456789628570294,2.121
0.002562393859000365,2.122
0.0025790040679069654,2.123
0.0025954991245114548,2.124
0.002611867048993187,2.125
0.0026280940461646815,2.126
0.0026441648498687896,2.127
0.002660063458448883,2.128
0.0026757739116677285,2.129
0.002691280970700768,2.13
0.0027065706607248058,2.131
0.0027216306386216443,2.132
0.0027364503675352406,2.133
0.0027510211097224475,2.134
0.00276533577190122,2.135
0.002779388640584499,2.136
0.002793175035092704,2.137
0.0028066908998523026,2.138
0.002819932362065515,2.139
0.002832895284603701,2.14
0.002845574830774273,2.141
0.0028579650276597574,2.142
0.002870058288637676,2.143
0.002881844946982579,2.144
0.0028933130695960587,2.145
0.002904448773478107,2.146
0.0029152369022193477,2.147
0.002925661778309827,2.148
0.0029357078916752697,2.149
0.002945360474972649,2.15
0.0029546059282065116,2.151
0.0029634320721749004,2.152
0.0029718282341012784,2.153
0.0029797851923683313,2.154
0.0029872950207633546,2.155
0.002994350873541043,2.156
0.0030009467469444234,2.157
0.0030070772455432463,2.158
0.0030127373697717928,2.159
0.0030179223208605145,2.16
0.003022627296726099,2.161
0.003026847237029149,2.162
0.0030305764711019575,2.163
0.0030338082281449333,2.164
0.0030365340493992087,2.165
0.003038743365806169,2.166
0.0030404236142572327,2.167
0.003041560966337848,2.168
0.0030421413799291684,2.169
0.003042151673915645,2.17
0.0030415804773571667,2.171
0.0030404189745320024,2.172
0.003038661400085092,2.173
0.0030363052811253647,2.174
0.003033351464085922,2.175
0.0030298039913397275,2.176
0.0030256698925020414,2.177
0.0030209589233767473,2.178
0.0030156832359192706,2.179
0.003009856923845355,2.18
0.0030034953842280497,2.181
0.0029966144659548236,2.182
0.002989229440559854,2.183
0.0029813540558835433,2.184
0.0029730002220331353,2.185
0.0029641786273648476,2.186
0.0029548999156525915,2.187
0.0029451758917869806,2.188
0.002935020509754547,2.189
0.002924450550659442,2.19
0.0029134859362095907,2.191
0.0029021496793408628,2.192
0.002890467530576057,2.193
0.002878467420135857,2.194
0.002866178809737442,2.195
0.002853632047982292,2.196
0.002840857774510575,2.197
0.002827886361756393,2.198
0.002814747346932147,2.199
0.0028014688287324218,2.2
0.0027880769532874885,2.201
0.0027745957742135,2.202
0.0027610476018916034,2.203
0.002747453599552843,2.204
0.002733834342436545,2.205
0.002720210249892594,2.206
0.0027066018926181308,2.207
0.0026930301759623067,2.208
0.0026795163907610653,2.209
0.0026660821219542355,2.21
0.0026527490232467763,2.211
0.002639538498278801,2.212
0.002626471354887517,2.213
0.002613567498527029,2.214
0.0026008457009499782,2.215
0.002588323437158183,2.216
0.0025760167476148316,2.217
0.0025639400648340862,2.218
0.0025521059805470488,2.219
0.0025405250743572192,2.22
0.002529206038225536,2.221
0.002518156178425277,2.222
0.0025073821103206084,2.223
0.0024968903990759098,2.224
0.002486687987100786,2.225
0.002476782317927662,2.226
0.0024671811206320084,2.227
0.0024578918839645836,2.228
0.0024489211510154776,2.229
0.00244027393415051,2.23
0.002431953581225746,2.231
0.0024239620970600674,2.232
0.002416300584730372,2.233
0.0024089695241059773,2.234
0.0024019688276123636,2.235
0.0023952977169705595,2.236
0.0023889544882515264,2.237
0.0023829362392005712,2.238
0.002377238624374304,2.239
0.0023718556829547557,2.24
0.0023667797517456946,2.241
0.0023620014364067513,2.242
0.0023575095832078868,2.243
0.0023532911916650506,2.244
0.0023493312721877997,2.245
0.002345612761212252,2.246
0.0023421165939268756,2.247
0.0023388218858327193,2.248
0.0023357061210167677,2.249
0.0023327453255547166,2.25
0.0023299142625573875,2.251
0.00232718668290842,2.252
0.0023245356381058828,2.253
0.00232193382640293,2.254
0.0023193539157209055,2.255
0.0023167687793986167,2.256
0.0023141515971124797,2.257
0.0023114758019321196,2.258
0.002308714875797585,2.259
0.0023058419987147813,2.26
0.002302829549431543,2.261
0.0022996485625983876,2.262
0.002296268488009986,2.263
0.002292657522274053,2.264
0.0022887833207922864,2.265
0.002284613709083318,2.266
0.0022801172166105887,2.267
0.002275263438682488,2.268
0.002270023305036494,2.269
0.0022643693565692225,2.27
0.0022582760978390065,2.271
0.0022517204160552766,2.272
0.002244681972439895,2.273
0.002237143416342588,2.274
0.0022290902669322263,2.275
0.0022205103512144813,2.276
0.002211392764143583,2.277
0.0022017266203236963,2.278
0.002191500396478908,2.279
0.002180702499724382,2.28
0.0021693226956130698,2.281
0.0021573535812034073,2.282
0.0021447916784067323,2.283
0.00213163806545603,2.284
0.002117898560849072,2.285
0.0021035835103854154,2.286
0.0020887072405112402,2.287
0.0020732872429446293,2.288
0.00205734315494055,2.289
0.0020408955992313204,2.29
0.0020239650440072514,2.291
0.0020065710766942056,2.292
0.001988732447798602,2.293
0.0019704677377562173,2.294
0.0019517961670733198,2.295
0.0019327382382402134,2.296
0.0019133161363140713,2.297
0.0018935538879979604,2.298
0.0018734772943144703,2.299
0.0018531136729843405,2.3
0.001832491470841684,2.301
0.0018116398226220897,2.302
0.001790588129379469,2.303
0.0017693657065900518,2.304
0.0017480015178013887,2.305
0.001726523978339195,2.306
0.0017049607977109376,2.307
0.0016833388332337137,2.308
0.0016616839426217827,2.309
0.0016400208356355638,2.31
0.0016183729282129692,2.311
0.0015967622191014207,2.312
0.0015752092428702254,2.313
0.0015537331326309332,2.314
0.0015323517552379214,2.315
0.0015110818726303643,2.316
0.0014899393271832692,2.317
0.001468939262745932,2.318
0.0014480963733980031,2.319
0.001427425144785575,2.32
0.001406940035432147,2.321
0.001386655554997491,2.322
0.001366586235141684,2.323
0.0013467465376105813,2.324
0.0013271507760243297,2.325
0.0013078131248021043,2.326
0.0012887477512496324,2.327
0.0012699690524296337,2.328
0.0012514919315903992,2.329
0.001233332026519506,2.33
0.0012155058056856041,2.331
0.0011980304698789332,2.332
0.001180923630148273,2.333
0.0011642028309720206,2.334
0.001147885185217117,2.335
0.0011319874207852835,2.336
0.0011165263078235384,2.337
0.0011015191382142714,2.338
0.001086984003069901,2.339
0.0010729398169523393,2.34
0.0010594061382396707,2.341
0.0010464028679814134,2.342
0.001033949919141342,2.343
0.0010220669378569608,2.344
0.0010107731322260719,2.345
0.0010000872284522525,2.346
0.0009900275388281916,2.347
0.000980612099893932,2.348
0.0009718588261774459,2.349
0.0009637856260277766,2.35
0.0009564104411289707,2.351
0.0009497511978746979,2.352
0.0009438256892885857,2.353
0.0009386514288468614,2.354
0.0009342455225859077,2.355
0.0009306245916705032,2.356
0.0009278047516002356,2.357
0.0009258016286502978,2.358
0.0009246303798994224,2.359
0.000924305685335593,2.36
0.0009248416973995461,2.361
0.0009262519575135451,2.362
0.0009285493096420658,2.363
0.0009317458488149552,2.364
0.0009358529349895603,2.365
0.0009408812810534851,2.366
0.0009468410934344797,2.367
0.0009537422164260278,2.368
0.0009615942211638462,2.369
0.0009704063942607988,2.37
0.0009801876149227175,2.371
0.0009909461642932157,2.372
0.0010026895679428893,2.373
0.0010154245454636684,2.374
0.0010291570258378437,2.375
0.0010438921348147202,2.376
0.001059634131897874,2.377
0.0010763863620961913,2.378
0.001094151280234004,2.379
0.0011129305195920894,2.38
0.0011327249248240484,2.381
0.0011535345146985252,2.382
0.0011753584708289267,2.383
0.0011981953332265973,2.384
0.0012220434824001078,2.385
0.0012469018227631095,2.386
0.0012727705243137418,2.387
0.001299651685590476,2.388
0.0013275497881881874,2.389
0.0013564718455318563,2.39
0.001386427216289359,2.391
0.0014174271281740614,2.392
0.0014494840066387096,2.393
0.0014826107080117132,2.394
0.0015168197820705678,2.395
0.0015521229930078734,2.396
0.0015885313085462762,2.397
0.0016260552886337828,2.398
0.0016647055939368295,2.399
0.0017044933993138108,2.4
0.0017454306227161877,2.401
0.0017875299324706163,2.402
0.0018308045327631581,2.403
0.0018752677747202135,2.404
0.001920932683838333,2.405
0.0019678115176472014,2.406
0.002015915458401795,2.407
0.0020652545055512795,2.408
0.0021158375791418224,2.409
0.0021676727999517718,2.41
0.002220767885191093,2.411
0.0022751305860117302,2.412
0.0023307690885334717,2.413
0.0023876923039082495,2.414
0.0024459099870288953,2.415
0.002505432643721722,2.416
0.002566271207816714,2.417
0.002628436496204067,2.418
0.002691938488062159,2.419
0.00275678558030265,2.42
0.002822984114619245,2.421
0.0028905383615103943,2.422
0.0029594508132790576,2.423
0.0030297225599430753,2.424
0.0031013537070594148,2.425
0.003174343886404238,2.426
0.0032486928687756426,2.427
0.00332440122168563,2.428
0.0034014709005478266,2.429
0.003479905635638898,2.43
0.0035597109908039556,2.431
0.0036408940286692675,2.432
0.0037234626066785254,2.433
0.0038074244127827366,2.434
0.0038927858922579227,2.435
0.003979551226705568,2.436
0.004067721562137111,2.437
0.004157294672871665,2.438
0.004248265032659841,2.439
0.0043406240377672515,2.44
0.004434360181485089,2.441
0.0045294591489049695,2.442
0.004625903852324564,2.443
0.0047236744132607865,2.444
0.004822748092710238,2.445
0.0049230991838103005,2.446
0.005024698905794594,2.447
0.005127515359880345,2.448
0.005231513607020057,2.449
0.00533665589686592,2.45
0.005442902033611714,2.451
0.005550209834366932,2.452
0.005658535627877507,2.453
0.0057678347415883275,2.454
0.005878061921289647,2.455
0.005989171627598639,2.456
0.006101118171155559,2.457
0.006213855681232297,2.458
0.006327337932006024,2.459
0.006441518061358728,2.46
0.006556348206192383,2.461
0.006671779051282571,2.462
0.006787759253099589,2.463
0.006904234666126387,2.464
0.007021147292865278,2.465
0.007138434175263324,2.466
0.007256027047269456,2.467
0.007373853444463185,2.468
0.007491838984322755,2.469
0.007609910102296775,2.47
0.007727996810305467,2.471
0.007846035190510806,2.472
0.007963969331645076,2.473
0.008081752473960379,2.474
0.008199347239835097,2.475
0.008316724960055255,2.476
0.008433864218393957,2.477
0.00855074879229318,2.478
0.008667365157302837,2.479
0.00878369967283577,2.48
0.008899735661677717,2.481
0.009015451144210894,2.482
0.009130818397345418,2.483
0.009245805606354776,2.484
0.009360379524053428,2.485
0.009474507993973879,2.486
0.009588161909813245,2.487
0.009701316536143584,2.488
0.009813952207817016,2.489
0.009926054507338144,2.49
0.010037614064935566,2.491
0.010148626118287398,2.492
0.010259089917126596,2.493
0.010369007995626598,2.494
0.010478385295334467,2.495
0.010587228114986377,2.496
0.010695542881516763,2.497
0.010803334761168518,2.498
0.010910606146112355,2.499
0.011017355054664533,2.5
0.011123573473839842,2.501
0.011229245697007126,2.502
0.011334346958933499,2.503
0.011438843006088235,2.504
0.011542690939450487,2.505
0.011645840924040196,2.506
0.01174823822812443,2.507
0.011849825407450094,2.508
0.011950544588678296,2.509
0.012050339758568077,2.51
0.012149158905846495,2.511
0.012246955810939132,2.512
0.012343691266109172,2.513
0.012439333553030932,2.514
0.012533858093470091,2.515
0.01262724628715016,2.516
0.012719483629641056,2.517
0.012810557252187542,2.518
0.012900453044704907,2.519
0.012989152510320354,2.52
0.013076629687695119,2.521
0.01316284909990753,2.522
0.013247765868522198,2.523
0.013331328037375035,2.524
0.01341348009088613,2.525
0.013494166822609805,2.526
0.013573337223076546,2.527
0.013650948127271237,2.528
0.01372696725270606,2.529
0.013801375217857731,2.53
0.013874166189017875,2.531
0.013945346953285956,2.532
0.014014934411108428,2.533
0.014082951662368075,2.534
0.014149422977430047,2.535
0.014214368425978993,2.536
0.014277800145318927,2.537
0.014339722364845065,2.538
0.014400134902933712,2.539
0.014459037714501771,2.54
0.014516434553137846,2.541
0.014572335147140819,2.542
0.014626755898233423,2.543
0.014679719345093942,2.544
0.014731252792673425,2.545
0.014781386553555882,2.546
0.014830152179046457,2.547
0.014877580911108941,2.548
0.014923702418936494,2.549
0.01496854375079286,2.55
0.015012128361629715,2.551
0.015054475065076393,2.552
0.015095596782260065,2.553
0.01513549899860848,2.554
0.015174177878012573,2.555
0.01521161828471186,2.556
0.015247792665889909,2.557
0.015282661797977536,2.558
0.015316177258547526,2.559
0.015348284656465101,2.56
0.015378926883079473,2.561
0.01540804702047059,2.562
0.015435590650972704,2.563
0.015461507383859586,2.564
0.015485751528785396,2.565
0.015508281972462129,2.566
0.015529061424268948,2.567
0.01554805526461289,2.568
0.015565230244539147,2.569
0.015580553244626793,2.57
0.015593990219596184,2.571
0.015605505362034908,2.572
0.015615060441931526,2.573
0.015622614226568183,2.574
0.015628121850407895,2.575
0.015631533977051953,2.576
0.015632795568101363,2.577
0.015631844047519803,2.578
0.01562860699547465,2.579
0.015623000625621008,2.58
0.015614930889316762,2.581
0.015604297630483559,2.582
0.015591000463442846,2.583
0.015574944935358345,2.584
0.015556048165329848,2.585
0.01553424343292409,2.586
0.015509483314096609,2.587
0.015481741138869942,2.588
0.015451010732623378,2.589
0.015417304570551042,2.59
0.015380650599778762,2.591
0.01534108804871713,2.592
0.015298662546072473,2.593
0.015253420831572337,2.594
0.015205405345135637,2.595
0.015154649637839931,2.596
0.015101176583471739,2.597
0.015045000383638875,2.598
0.014986130815771312,2.599
0.01492457772711223,2.6
0.014860355091917857,2.601
0.014793484551198862,2.602
0.01472399833384519,2.603
0.01465194144569279,2.604
0.014577373015783294,2.605
0.014500366707675473,2.606
0.01442101013145275,2.607
0.014339403219538093,2.608
0.01425565555859007,2.609
0.01416988271741991,2.61
0.014082201688446871,2.611
0.013992725855454666,2.612
0.013901560885595247,2.613
0.013808803713790497,2.614
0.013714545216499091,2.615
0.013618874643024836,2.616
0.01352188370044425,2.617
0.013423669508005706,2.618
0.013324336252639669,2.619
0.013223995491629012,2.62
0.013122765187540839,2.621
0.013020767691905627,2.622
0.012918126985670955,2.623
0.012814965517360381,2.624
0.012711400950635861,2.625
0.012607543193517033,2.626
0.012503492405420147,2.627
0.012399338705450786,2.628
0.012295163442082873,2.629
0.012191041077182834,2.63
0.01208704094644704,2.631
0.011983228700524366,2.632
0.011879667425199117,2.633
0.011776418471968376,2.634
0.011673542071188453,2.635
0.011571097820774279,2.636
0.011469145119365892,2.637
0.011367743536810429,2.638
0.01126695300644167,2.639
0.0111668336254949,2.64
0.01106744481094786,2.641
0.010968843610038593,2.642
0.010871082301018582,2.643
0.01077420633679444,2.644
0.010678254285890488,2.645
0.010583260217356638,2.646
0.010489257185919733,2.647
0.010396280373855394,2.648
0.010304369352051168,2.649
0.010213569373783128,2.65
0.010123931716260257,2.651
0.010035513162138347,2.652
0.009948374768375247,2.653
0.009862580099099405,2.654
0.009778193101315969,2.655
0.009695275787479743,2.656
0.009613885872305232,2.657
0.009534074659665184,2.658
0.009455885801607026,2.659
0.009379355343640252,2.66
0.009304512591213216,2.661
0.009231380936020349,2.662
0.009159978188703814,2.663
0.009090316377123736,2.664
0.00902240111474064,2.665
0.008956230771604685,2.666
0.008891795862989613,2.667
0.008829078981505,2.668
0.008768055117387775,2.669
0.00870869190036149,2.67
0.008650949525063031,2.671
0.008594780648294243,2.672
0.008540130880371073,2.673
0.008486940217204095,2.674
0.008435145210121058,2.675
0.00838468149910622,2.676
0.008335486443675714,2.677
0.008287501631819632,2.678
0.008240675047168794,2.679
0.008194962695862331,2.68
0.008150329532707933,2.681
0.00810674957816902,2.682
0.008064205179004833,2.683
0.008022685425746063,2.684
0.00798218378750884,2.685
0.007942695055839291,2.686
0.00790421208075407,2.687
0.007866723732127327,2.688
0.007830215526037817,2.689
0.007794672591781321,2.69
0.007760083356813763,2.691
0.007726442773491138,2.692
0.007693754684644978,2.693
0.007662033196688848,2.694
0.007631303010771243,2.695
0.007601598737432362,2.696
0.007572963298809652,2.697
0.007545445601619912,2.698
0.007519097719254427,2.699
0.007493971833936596,2.7
0.007470117337176422,2.701
0.007447578890947521,2.702
0.007426396182206277,2.703
0.007406605084916878,2.704
0.0073882391869535945,2.705
0.00737133096377892,2.706
0.00735591242305099,2.707
0.007342015194103708,2.708
0.007329670028464342,2.709
0.007318905693140876,2.71
0.007309747428953504,2.711
0.007302215699130375,2.712
0.007296326247415269,2.713
0.007292091664821593,2.714
0.007289523596432313,2.715
0.007288634689241405,2.716
0.00728943989286607,2.717
0.007291956967358211,2.718
0.007296206124871066,2.719
0.0073022088237480135,2.72
0.007309985846299266,2.721
0.00731955504166492,2.722
0.0073309295796203005,2.723
0.007344117590066324,2.724
0.0073591231266715495,2.725
0.007375947579714216,2.726
0.007394590937149915,2.727
0.007415052875094923,2.728
0.00743733380494002,2.729
0.0074614359045795655,2.73
0.007487364051515428,2.731
0.007515126510532497,2.732
0.007544735227385533,2.733
0.007576205631368372,2.734
0.007609555935183794,2.735
0.007644806019191384,2.736
0.0076819760663320935,2.737
0.0077210851380388025,2.738
0.007762149839409611,2.739
0.007805183140120025,2.74
0.007850193336271644,2.741
0.007897183082175236,2.742
0.007946148544085459,2.743
0.007997079058322558,2.744
0.008049957627290298,2.745
0.008104762027445691,2.746
0.00816146604115149,2.747
0.0082200405049924,2.748
0.008280454006636597,2.749
0.008342673113374473,2.75
0.00840666208401575,2.751
0.008472382092711991,2.752
0.008539790067085908,2.753
0.008608837317085201,2.754
0.008679468308908833,2.755
0.00875162011145519,2.756
0.008825222716925442,2.757
0.008900199840920192,2.758
0.008976469760039876,2.759
0.009053946063152116,2.76
0.009132538289181993,2.761
0.009212152359194078,2.762
0.009292690659101575,2.763
0.00937405160918222,2.764
0.009456128574891526,2.765
0.00953880842461404,2.766
0.009621970980386947,2.767
0.009705490460137276,2.768
0.009789238464827448,2.769
0.009873087335675912,2.77
0.0099569131897003,2.771
0.010040598305508226,2.772
0.010124032623432087,2.773
0.010207114234530067,2.774
0.010289748852800188,2.775
0.010371848377308103,2.776
0.010453328736864,2.777
0.010534107248367968,2.778
0.010614099700695889,2.779
0.01069321735771473,2.78
0.010771364434201855,2.781
0.010848437198132142,2.782
0.010924325334758123,2.783
0.010998914796932055,2.784
0.011072091070888468,2.785
0.011143742444116922,2.786
0.011213763134812059,2.787
0.011282056084248555,2.788
0.011348535176029526,2.789
0.011413126642614443,2.79
0.011475769451614071,2.791
0.011536414523367297,2.792
0.01159502270820372,2.793
0.01165156153808864,2.794
0.011706000849858652,2.795
0.011758307959522107,2.796
0.011808444480925445,2.797
0.011856367034422638,2.798
0.011902031560044603,2.799
0.011945398833673328,2.8
0.01198643927545542,2.801
0.012025136319046531,2.802
0.012061488089913959,2.803
0.012095507328893487,2.804
0.012127219677363662,2.805
0.0121566605945164,2.806
0.012183871283085764,2.807
0.012208894035913753,2.808
0.012231767537766527,2.809
0.012252523223892793,2.81
0.012271184144310247,2.811
0.0122877665213925,2.812
0.012302282500537274,2.813
0.012314742741644185,2.814
0.012325158615985871,2.815
0.012333544206493238,2.816
0.012339918215665886,2.817
0.012344305689328993,2.818
0.012346739264817674,2.819
0.012347259567522837,2.82
0.012345914469790187,2.821
0.012342757150358697,2.822
0.01233784314000368,2.823
0.012331226700871046,2.824
0.012322957034018305,2.825
0.012313075286496462,2.826
0.01230161368921724,2.827
0.01228859714156179,2.828
0.012274046005616194,2.829
0.012257978802844086,2.83
0.0122404143442834,2.831
0.012221373191616274,2.832
0.01220087837856236,2.833
0.012178955354340491,2.834
0.012155631136091066,2.835
0.012130932684481845,2.836
0.012104884562313787,2.837
0.012077506053865025,2.838
0.012048808478486456,2.839
0.012018794146081053,2.84
0.011987457650381138,2.841
0.011954788400494808,2.842
0.01192077297763446,2.843
0.0118853968455634,2.844
0.011848645445173285,2.845
0.01181050475974018,2.846
0.011770961431026392,2.847
0.011730002452408248,2.848
0.011687614401651438,2.849
0.01164378213994812,2.85
0.011598486913997895,2.851
0.011551704009850044,2.852
0.011503400831284899,2.853
0.011453536864710307,2.854
0.011402066099957538,2.855
0.011348940953929224,2.856
0.011294116539854567,2.857
0.011237554747435327,2.858
0.011179227832271538,2.859
0.011119121193649115,2.86
0.011057235055909153,2.861
0.01099358485116822,2.862
0.010928200208750813,2.863
0.010861122568341517,2.864
0.010792401534949295,2.865
0.010722090176268578,2.866
0.010650240009874443,2.867
0.010576897728066534,2.868
0.01050210575027769,2.869
0.010425906212406187,2.87
0.010348346052718674,2.871
0.010269481451351927,2.872
0.010189381066326157,2.873
0.010108127945859895,2.874
0.01002582011643359,2.875
0.009942569940472839,2.876
0.00985850240285886,2.877
0.009773752522298966,2.878
0.009688462094135954,2.879
0.009602775968513423,2.88
0.009516838071439881,2.881
0.009430787798356158,2.882
0.009344758190137543,2.883
0.009258876697811875,2.884
0.009173267425471027,2.885
0.009088053247368184,2.886
0.00900335718553807,2.887
0.008919303021617288,2.888
0.008836015171937354,2.889
0.008753617864621746,2.89
0.008672233688721208,2.891
0.00859198164997542,2.892
0.008512975192158045,2.893
0.008435321141247527,2.894
0.008359120102371938,2.895
0.008284467584917748,2.896
0.008211454821360062,2.897
0.008140168928681725,2.898
0.008070692517932231,2.899
0.00800310295220141,2.9
0.007937471474665106,2.901
0.007873862488424328,2.902
0.007812333309780985,2.903
0.00775293446245169,2.904
0.0076957102111225775,2.905
0.007640699028149899,2.906
0.007587933910629498,2.907
0.007537442574535682,2.908
0.007489247581003203,2.909
0.007443366470078275,2.91
0.0073998119691814435,2.911
0.007358592302714732,2.912
0.007319711572786926,2.913
0.007283170132802582,2.914
0.007248964847872332,2.915
0.007217089127423222,2.916
0.007187532624834068,2.917
0.007160280531468093,2.918
0.007135312677422709,2.919
0.007112603189753305,2.92
0.007092121301283619,2.921
0.007073832938318783,2.922
0.007057702312181333,2.923
0.007043693075395901,2.924
0.007031768845360869,2.925
0.00702189297486612,2.926
0.007014027540553584,2.927
0.007008131746851085,2.928
0.0070041605139374045,2.929
0.007002064370464982,2.93
0.007001790941173065,2.931
0.007003287118440717,2.932
0.007006500928916728,2.933
0.007011382704705143,2.934
0.007017885487311974,2.935
0.007025964689935751,2.936
0.00703557710798846,2.937
0.007046679389521524,2.938
0.007059226075715031,2.939
0.007073167634362647,2.94
0.007088449524493549,2.941
0.007105012951024769,2.942
0.007122796591037572,2.943
0.007141738166938694,2.944
0.00716177538720095,2.945
0.0071828461793578815,2.946
0.007204888227534771,2.947
0.007227837894915922,2.948
0.007251628670265104,2.949
0.007276189509088201,2.95
0.007301443828978265,2.951
0.007327309666824498,2.952
0.007353700558164286,2.953
0.0073805263365805274,2.954
0.007407693479109238,2.955
0.0074351049608237145,2.956
0.007462659637743266,2.957
0.0074902513148397,2.958
0.007517768076517645,2.959
0.007545092635068902,2.96
0.007572103837376826,2.961
0.007598678770522328,2.962
0.007624694889798465,2.963
0.007650031868107821,2.964
0.007674572998149256,2.965
0.0076982060478325435,2.966
0.007720823548958446,2.967
0.007742322560365835,2.968
0.007762603966254369,2.969
0.007781571342530756,2.97
0.007799129366838844,2.971
0.007815181695745162,2.972
0.00782962863778013,2.973
0.007842365996737578,2.974
0.007853286501749513,2.975
0.007862283588582571,2.976
0.007869256231620958,2.977
0.00787411392816152,2.978
0.007876781391201862,2.979
0.007877202528931503,2.98
0.007875343215492,2.981
0.0078711923178875,2.982
0.007864760493103454,2.983
0.007856076453975201,2.984
0.007845180728988835,2.985
0.00783211842408198,2.986
0.00781693507987448,2.987
0.007799678723084689,2.988
0.00778040596164605,2.989
0.007759187663370504,2.99
0.007736111960412912,2.991
0.007711284389764414,2.992
0.007684825708407874,2.993
0.007656868227307636,2.994
0.007627551562595404,2.995
0.007597018549156044,2.996
0.007565411791220912,2.997
0.007532871033991496,2.998
0.0074995313040232756,2.999
0.007465521686418522,3.0
0.007430964736321047,3.001
0.0073959765910123765,3.002
0.007360667631953379,3.003
0.0073251433415794,3.004
0.0072895050443183215,3.005
0.007253850343499657,3.006
0.007218273154008136,3.007
0.007182863314472129,3.008
0.0071477058415437365,3.009
0.007112880105788786,3.01
0.007078459527452852,3.011
0.007044512155865443,3.012
0.007011101765004907,3.013
0.006978288889187478,3.014
0.006946131556183712,3.015
0.006914685693860967,3.016
0.006884005247440367,3.017
0.0068541420774029015,3.018
0.006825145709682875,3.019
0.006797062983691494,3.02
0.006769937593543453,3.021
0.006743809458574871,3.022
0.006718713927872598,3.023
0.00669468119186282,3.024
0.006671736529131462,3.025
0.006649901536266585,3.026
0.006629195791664244,3.027
0.006609638360835835,3.028
0.006591248910949709,3.029
0.006574048435922828,3.03
0.0065580596805749,3.031
0.006543307356076376,3.032
0.006529818169290164,3.033
0.0065176205996022845,3.034
0.006506744311085452,3.035
0.006497219118200921,3.036
0.006489073520709153,3.037
0.006482332992103771,3.038
0.0064770184820747935,3.039
0.006473145661401632,3.04
0.006470724828495705,3.041
0.006469760901131105,3.042
0.006470253529435885,3.043
0.006472197878157067,3.044
0.006475585968235394,3.045
0.00648040781026867,3.046
0.0064866516628464856,3.047
0.0064943032649665555,3.048
0.006503344858745386,3.049
0.006513755529162603,3.05
0.006525513431615377,3.051
0.006538598784470925,3.052
0.006552996185369013,3.053
0.006568695564573084,3.054
0.006585691696034343,3.055
0.006603982540674601,3.056
0.0066235668960381,3.057
0.00664444183943456,3.058
0.006666600580970916,3.059
0.0066900316271835195,3.06
0.006714719729220165,3.061
0.00674064808973309,3.062
0.006767801076667478,3.063
0.006796167036386519,3.064
0.006825740774992811,3.065
0.006856525058801773,3.066
0.006888530447139023,3.067
0.0069217729706955175,3.068
0.006956270325022579,3.069
0.006992039425117879,3.07
0.0070290980050023355,3.071
0.007067469261167789,3.072
0.007107186240135806,3.073
0.007148293867967451,3.074
0.007190848272190043,3.075
0.007234913939291638,3.076
0.007280559675609715,3.077
0.007327854420613724,3.078
0.007376863773238139,3.079
0.007427647739164166,3.08
0.007480259675116047,3.081
0.007534745940022024,3.082
0.0075911457946242385,3.083
0.0076494914930901855,3.084
0.007709808839768005,3.085
0.0077721184931015975,3.086
0.007836437971955204,3.087
0.007902783960634896,3.088
0.007971174339268475,3.089
0.008041629339167295,3.09
0.008114171343339017,3.091
0.008188823143201079,3.092
0.00826560520097206,3.093
0.008344533597195832,3.094
0.008425620151660974,3.095
0.008508874147820417,3.096
0.008594303865528962,3.097
0.008681916954525215,3.098
0.008771719795094597,3.099
0.008863716392544596,3.1
0.00895790732670806,3.101
0.009054289077530331,3.102
0.00915285380310213,3.103
0.009253589459047968,3.104
0.009356480057033557,3.105
0.009461505851243104,3.106
0.009568643273636157,3.107
0.009677864470701483,3.108
0.009789136309913503,3.109
0.009902419036140676,3.11
0.010017665552507249,3.111
0.01013482244509471,3.112
0.010253832722297273,3.113
0.010374639319488685,3.114
0.01049718854513829,3.115
0.010621432951276509,3.116
0.01074733321448687,3.117
0.010874858723542017,3.118
0.01100398673807838,3.119
0.011134700165685001,3.12
0.01126698417327513,3.121
0.011400822003090972,3.122
0.011536190957903368,3.123
0.011673060347048611,3.124
0.011811392199745105,3.125
0.011951143214365693,3.126
0.012092266064794015,3.127
0.012234709563679716,3.128
0.012378417979923114,3.129
0.012523329980203547,3.13
0.012669377694617649,3.131
0.012816486275511968,3.132
0.012964574081501897,3.133
0.013113553384527079,3.134
0.013263331367210023,3.135
0.013413811184131156,3.136
0.013564892959320212,3.137
0.013716474697090222,3.138
0.013868453118455111,3.139
0.01402072437224292,3.14
0.014173184432981765,3.141
0.014325728845274622,3.142
0.014478251376927318,3.143
0.014630641237177054,3.144
0.014782779740287641,3.145
0.014934539411812556,3.146
0.015085787795502487,3.147
0.01523639446013949,3.148
0.015386238175585152,3.149
0.015535212432107693,3.15
0.015683228309489133,3.151
0.01583021400221098,3.152
0.015976110761921652,3.153
0.016120865557379044,3.154
0.016264422629679223,3.155
0.016406719044471017,3.156
0.01654768743153541,3.157
0.01668726257202536,3.158
0.01682538657856831,3.159
0.016962010611994153,3.16
0.017097093331557286,3.161
0.017230596991527992,3.162
0.017362482510752814,3.163
0.017492704910063273,3.164
0.017621210214657814,3.165
0.017747934328268423,3.166
0.017872803651999267,3.167
0.01799573655128076,3.168
0.018116644390433017,3.169
0.018235430888961672,3.17
0.01835198974125965,3.171
0.018466203081706687,3.172
0.018577944195080517,3.173
0.018687084642585047,3.174
0.018793502864372223,3.175
0.0188970914002677,3.176
0.018997760975983363,3.177
0.019095440288986573,3.178
0.019190070862042195,3.179
0.019281598091912898,3.18
0.019369963586068847,3.181
0.019455105463277188,3.182
0.01953696732544817,3.183
0.019615509688516608,3.184
0.019690718004842032,3.185
0.019762605306936108,3.186
0.0198312096328123,3.187
0.019896587190488542,3.188
0.019958802678611005,3.189
0.02001791887964563,3.19
0.020073989069477802,3.191
0.020127055489048286,3.192
0.020177153244257593,3.193
0.020224315908343397,3.194
0.02026858025330074,3.195
0.020309989774432078,3.196
0.0203485973377673,3.197
0.02038446717101769,3.198
0.0204176762779767,3.199
0.020448315221668546,3.2
0.020476488090180357,3.201
0.02050231132448759,3.202
0.020525910984166958,3.203
0.02054741802582143,3.204
0.020566961527318923,3.205
0.02058466183336339,3.206
0.020600628392211055,3.207
0.020614964917210123,3.208
0.02062777836152643,3.209
0.02063918647714732,3.21
0.02064932147379203,3.211
0.02065832935502271,3.212
0.020666365611661883,3.213
0.02067358887970831,3.214
0.020680154512522135,3.215
0.020686209631539252,3.216
0.02069189031521173,3.217
0.02069732059971913,3.218
0.020702612329273482,3.219
0.020707864838878574,3.22
0.020713163921774712,3.221
0.02071858022627544,3.222
0.020724167754909355,3.223
0.020729963232308402,3.224
0.02073598674302313,3.225
0.020742243418360094,3.226
0.0207487253611206,3.227
0.020755412666249678,3.228
0.020762272664604,3.229
0.02076925834504519,3.23
0.020776309417259487,3.231
0.020783358569448122,3.232
0.020790341396214815,3.233
0.020797206566129958,3.234
0.02080392360711611,3.235
0.020810486409151483,3.236
0.020816911063070518,3.237
0.02082322758530197,3.238
0.020829468197165895,3.239
0.02083565997838968,3.24
0.020841828193033214,3.241
0.020848006725289997,3.242
0.02085424724035057,3.243
0.020860622697908233,3.244
0.02086722510715242,3.245
0.020874158955193033,3.246
0.020881532133152532,3.247
0.02088944664330699,3.248
0.020897992466075245,3.249
0.020907247234394487,3.25
0.020917280639243647,3.251
0.020928160127455117,3.252
0.02093995558820009,3.253
0.020952742266335436,3.254
0.020966601545197777,3.255
0.02098161940169375,3.256
0.020997882634375676,3.257
0.021015473247767924,3.258
0.021034462375618748,3.259
0.021054906901486804,3.26
0.021076851047181287,3.261
0.021100331182677283,3.262
0.021125380378553677,3.263
0.021152030920729543,3.264
0.02118031467340443,3.265
0.021210261888620324,3.266
0.02124189933661609,3.267
0.02127524848068578,3.268
0.021310323973949823,3.269
0.021347132311507012,3.27
0.021385670279577978,3.271
0.021425922939320573,3.272
0.021467861107789702,3.273
0.021511438765094423,3.274
0.02155659152027273,3.275
0.021603237010431205,3.276
0.021651276616554988,3.277
0.021700597090466907,3.278
0.02175107124178559,3.279
0.021802557565980724,3.28
0.021854899199558433,3.281
0.021907923026279082,3.282
0.021961440028145048,3.283
0.02201524790971526,3.284
0.022069136548804224,3.285
0.022122896007578448,3.286
0.022176325881541406,3.287
0.022229243952588875,3.288
0.022281491734817475,3.289
0.022332934791031635,3.29
0.022383456724965115,3.291
0.02243294802366278,3.292
0.022481295259425087,3.293
0.022528378611981408,3.294
0.022574080053649165,3.295
0.022618296675456083,3.296
0.022660953525878616,3.297
0.022702014180619713,3.298
0.022741488237376227,3.299
0.022779434219400603,3.3
0.02281595622043824,3.301
0.022851193339723096,3.302
0.022885303215733926,3.303
0.02291844633075184,3.304
0.022950781538650225,3.305
0.022982475842410238,3.306
0.023013719591145804,3.307
0.023044737449612215,3.308
0.023075791919484556,3.309
0.023107179624583397,3.31
0.023139221540314343,3.311
0.02317224910810313,3.312
0.02320659009268587,3.313
0.02324256056289145,3.314
0.023280466005736775,3.315
0.023320606685378914,3.316
0.023363280988600844,3.317
0.023408785091805766,3.318
0.02345740991613003,3.319
0.023509436552160975,3.32
0.023565131387255484,3.321
0.023624742646383597,3.322
0.023688499902033453,3.323
0.023756616168904378,3.324
0.023829290335270398,3.325
0.023906707842437702,3.326
0.02398903907874879,3.327
0.02407643733849556,3.328
0.02416903959800348,3.329
0.024266970904612818,3.33
0.024370349423152107,3.331
0.02447928885432384,3.332
0.024593897036943854,3.333
0.02471427133555358,3.334
0.024840493231175684,3.335
0.02497262582271499,3.336
0.02511071572194949,3.337
0.025254796840027228,3.338
0.02540489304308141,3.339
0.025561018655346532,3.34
0.025723176888886794,3.341
0.025891356745674762,3.342
0.026065529496848254,3.343
0.026245646159438175,3.344
0.026431637154960184,3.345
0.02662341451507834,3.346
0.026820875906296563,3.347
0.02702390885430488,3.348
0.027232393230752102,3.349
0.027446200422321928,3.35
0.027665189174379216,3.351
0.027889201435580144,3.352
0.028118063292346188,3.353
0.028351592155698355,3.354
0.02858960603143525,3.355
0.028831930301737117,3.356
0.029078400063247755,3.357
0.029328858014980315,3.358
0.029583149122476896,3.359
0.029841114026820745,3.36
0.030102583088198426,3.361
0.030367372138552565,3.362
0.030635279886782624,3.363
0.03090608599601182,3.364
0.031179548607265586,3.365
0.031455401471678496,3.366
0.031733353340665335,3.367
0.03201309185120816,3.368
0.032294290584956836,3.369
0.032576616501761343,3.37
0.032859736172790546,3.371
0.03314332016240513,3.372
0.03342704529253346,3.373
0.03371059492118935,3.374
0.033993657625549775,3.375
0.034275924772159995,3.376
0.03455708749030919,3.377
0.034836833576833745,3.378
0.03511484466781245,3.379
0.03539079340036314,3.38
0.03566433938676262,3.381
0.03593512357429505,3.382
0.0362027648552233,3.383
0.03646686533083512,3.384
0.0367270253518706,3.385
0.036982862585678206,3.386
0.037234028655428596,3.387
0.03748021966174621,3.388
0.037721179085216626,3.389
0.03795669307995812,3.39
0.038186579179739125,3.391
0.03841066982315674,3.392
0.03862879389126003,3.393
0.038840764152663805,3.394
0.03904637887922386,3.395
0.039245436682373756,3.396
0.039437755845056696,3.397
0.039623191177336356,3.398
0.03980164562222838,3.399
0.03997307523452245,3.4
0.04013748651958061,3.401
0.04029492580771919,3.402
0.040445461336991353,3.403
0.04058916183013956,3.404
0.04072608128913801,3.405
0.04085625953087441,3.406
0.04097973668039587,3.407
0.04109657143644146,3.408
0.04120685614921832,3.409
0.04131072721533436,3.41
0.04140837066805135,3.411
0.04150002242128472,3.412
0.04158596243942081,3.413
0.04166650259944289,3.414
0.04174196907875207,3.415
0.04181268260285724,3.416
0.04187894428656858,3.417
0.04194103475864326,3.418
0.04199922545222057,3.419
0.04205379356600856,3.42
0.04210503405025456,3.421
0.04215326647774809,3.422
0.04219883654225649,3.423
0.042242112686164957,3.424
0.04228347903619607,3.425
0.04232332617867523,3.426
0.04236204131010156,3.427
0.04239999908914785,3.428
0.04243755419797526,3.429
0.04247503618170467,3.43
0.042512746548934686,3.431
0.04255095747475628,3.432
0.04258991094934626,3.433
0.04262981706463678,3.434
0.042670851269850464,3.435
0.042713152996838075,3.436
0.04275682833885469,3.437
0.04280195601570148,3.438
0.04284859370715849,3.439
0.04289678308736589,3.44
0.04294655355111019,3.441
0.0429979252921654,3.442
0.04305091239582101,3.443
0.04310552611695576,3.444
0.043161777825333494,3.445
0.043219680642925536,3.446
0.04327924888227943,3.447
0.04334049497436923,3.448
0.04340342425874313,3.449
0.04346802833732925,3.45
0.04353427745064848,3.451
0.04360211295233129,3.452
0.04367144370632035,3.453
0.04374215082670383,3.454
0.04381410053491712,3.455
0.0438871607993447,3.456
0.043961217514644886,3.457
0.04403618703887722,3.458
0.04411202230086286,3.459
0.04418871033113352,3.46
0.04426626035903809,3.461
0.044344684668281405,3.462
0.04442398072232368,3.463
0.04450412600809581,3.464
0.04458508704198199,3.465
0.044666831443114015,3.466
0.04474933326387052,3.467
0.044832570497759315,3.468
0.044916518178887775,3.469
0.04500114118057891,3.47
0.045086390110783685,3.471
0.045172201925406,3.472
0.045258504629669086,3.473
0.04534522352654925,3.474
0.0454322856887589,3.475
0.04551961993113328,3.476
0.04560715104698068,3.477
0.04569478904485373,3.478
0.04578241798971571,3.479
0.04586989290621376,3.48
0.045957049106105166,3.481
0.04604371903753475,3.482
0.04612974968623511,3.483
0.0462150173279229,3.484
0.04629943812470936,3.485
0.04638297311411058,3.486
0.04646562663474147,3.487
0.046547438055533616,3.488
0.046628467488623336,3.489
0.046708776718242986,3.49
0.046788409788035154,3.491
0.04686738341407485,3.492
0.046945693394834495,3.493
0.047023329684328354,3.494
0.0471002890030607,3.495
0.04717658086295087,3.496
0.04725222798658863,3.497
0.0473272637320557,3.498
0.04740172936275139,3.499
0.04747567277632575,3.5
0.04754914839606047,3.501
0.04762221650679822,3.502
0.04769494012802772,3.503
0.047767378397862596,3.504
0.04783957663079263,3.505
0.04791155482741148,3.506
0.047983298910939845,3.507
0.04805475900642998,3.508
0.04812585390328968,3.509
0.048196476431355946,3.51
0.04826649621911638,3.511
0.0483357601431748,3.512
0.04840409243262167,3.513
0.04847129628208026,3.514
0.048537157934287235,3.515
0.04860145301436553,3.516
0.048663953947561324,3.517
0.04872443679659311,3.518
0.04878268572031416,3.519
0.04883849325855631,3.52
0.048891654682916855,3.521
0.04894195613232184,3.522
0.04898916268824262,3.523
0.049033019029483246,3.524
0.04907326789682592,3.525
0.049109675782600365,3.526
0.04914205133019855,3.527
0.04917024901085868,3.528
0.04919415691803071,3.529
0.04921367321973669,3.53
0.049228684454378814,3.531
0.04923906185966027,3.532
0.04924467838811527,3.533
0.04924543281395521,3.534
0.049241267563746825,3.535
0.04923217539451017,3.536
0.04921819401064263,3.537
0.04919938882357027,3.538
0.04917582861567557,3.539
0.0491475684170859,3.54
0.04911465403122977,3.541
0.04907714509303889,3.542
0.049035139968356,3.543
0.048988790148956005,3.544
0.04893830095350183,3.545
0.0488839199584096,3.546
0.048825916518382174,3.547
0.048764557621097604,3.548
0.04870008901738969,3.549
0.04863273118845543,3.55
0.04856269055621946,3.551
0.0484901764180076,3.552
0.04841541490973307,3.553
0.04833865670447596,3.554
0.0482601771866338,3.555
0.04818026827222717,3.556
0.048099222359697484,3.557
0.04801731410787582,3.558
0.047934792454186005,3.559
0.047851889144316685,3.56
0.047768834202271813,3.561
0.04768586586974255,3.562
0.04760323170845529,3.563
0.047521183386218045,3.564
0.04743996865241345,3.565
0.047359823198079486,3.566
0.04728096339973389,3.567
0.04720357954531508,3.568
0.0471278292311466,3.569
0.04705383285066792,3.57
0.04698167464600779,3.571
0.04691140999245931,3.572
0.04684307544352844,3.573
0.04677669756064326,3.574
0.04671229854013815,3.575
0.046649898524128326,3.576
0.046589516003834604,3.577
0.046531168473891486,3.578
0.04647487474314573,3.579
0.04642065826688751,3.58
0.04636854873336118,3.581
0.046318578365058434,3.582
0.04627077126992991,3.583
0.04622513059230001,3.584
0.04618163471135383,3.585
0.046140248184992676,3.586
0.04610094010002367,3.587
0.0460636998475126,3.588
0.04602854607595558,3.589
0.045995527629742065,3.59
0.04596471644529727,3.591
0.04593619430081553,3.592
0.04591003698973601,3.593
0.04588629970339024,3.594
0.0458650059690009,3.595
0.04584614110649455,3.596
0.045829651389899556,3.597
0.045815449948910944,3.598
0.04580342838272478,3.599
0.04579347120724191,3.6
0.04578546953260615,3.601
0.04577933019413016,3.602
0.04577497750244582,3.603
0.04577234690855883,3.604
0.04577137221129837,3.605
0.04577197009810939,3.606
0.04577402804363349,3.607
0.045777401252631474,3.608
0.045781918971816604,3.609
0.045787395645907406,3.61
0.045793643177594705,3.611
0.04580048266497189,3.612
0.04580775366789223,3.613
0.045815318197877646,3.614
0.04582305692420462,3.615
0.04583085654642434,3.616
0.04583859219373271,3.617
0.045846116382620046,3.618
0.045853263615365236,3.619
0.04585986517811663,3.62
0.04586576185613441,3.621
0.04587080812807696,3.622
0.04587486728651702,3.623
0.04587779914616776,3.624
0.04587944464907416,3.625
0.045879615156399996,3.626
0.04587809148069575,3.627
0.04587462829744112,3.628
0.045868955577017104,3.629
0.04586077473246134,3.63
0.04584975586111314,3.631
0.04583554389847855,3.632
0.04581777342353816,3.633
0.045796084874912546,3.634
0.04577013538801963,3.635
0.04573960015647733,3.636
0.04570416203478865,3.637
0.04566349437421347,3.638
0.04561725504078217,3.639
0.045565105547539723,3.64
0.045506745953866966,3.641
0.04544194655018666,3.642
0.04537056606270887,3.643
0.04529255336125222,3.644
0.0452079327576327,3.645
0.04511677545424907,3.646
0.04501916572774191,3.647
0.04491518049121504,3.648
0.04480489630923024,3.649
0.0446884156097433,3.65
0.044565893343965164,3.651
0.04443755387296954,3.652
0.04430369595084155,3.653
0.04416468608228723,3.654
0.04402094186367764,3.655
0.04387290828638563,3.656
0.043721031763371485,3.657
0.04356573911146663,3.658
0.04340742767476356,3.659
0.043246464553316905,3.66
0.0430831865547518,3.661
0.04291789673012671,3.662
0.042750860672974504,3.663
0.04258230794059381,3.664
0.04241244226100651,3.665
0.04224146077620011,3.666
0.042069578266527116,3.667
0.041897048679677806,3.668
0.041724175297007095,3.669
0.04155130368066883,3.67
0.041378799664080756,3.671
0.04120702698202029,3.672
0.04103634146258168,3.673
0.04086710117433738,3.674
0.04069967603061712,3.675
0.040534445504383676,3.676
0.040371785756187585,3.677
0.04021205423024285,3.678
0.04005558082793204,3.679
0.039902667704557256,3.68
0.039753590633217914,3.681
0.03960859669147392,3.682
0.039467901190450926,3.683
0.03933168788575616,3.684
0.039200111146778086,3.685
0.039073296212709996,3.686
0.03895133695077959,3.687
0.03883429501269223,3.688
0.03872220350842211,3.689
0.038615073050734076,3.69
0.03851289613723782,3.691
0.03841564845340645,3.692
0.038323288028584895,3.693
0.038235753992001985,3.694
0.03815296652249924,3.695
0.03807482876856271,3.696
0.03800123042433353,3.697
0.03793205144576427,3.698
0.03786716331872383,3.699
0.03780642538276134,3.7
0.037749678417275,3.701
0.037696745189707594,3.702
0.0376474448884973,3.703
0.03760161534872886,3.704
0.03755913156410088,3.705
0.03751991371225912,3.706
0.03748392301656654,3.707
0.037451147396472505,3.708
0.037421581536202723,3.709
0.037395207535926595,3.71
0.037371982329780506,3.711
0.03735183332784639,3.712
0.03733465774489623,3.713
