VaMe,time
-0.001620239362575705,0.001
-0.0005836878956750483,0.002
0.00044998619110921866,0.003
0.0014798414504767477,0.004
0.0025049498057993337,0.005
0.003524403340772036,0.006
0.004537321313673987,0.007
0.005542856681482281,0.008
0.006540201430526807,0.009
0.007528590046903054,0.01
0.008507300462878212,0.011
0.009475651856748306,0.012
0.01043299890056539,0.013
0.01137872244321714,0.014
0.0123122176717249,0.015
0.0132328836691264,0.016
0.014140120194705173,0.017
0.015033332810653216,0.018
0.01591194032827837,0.019
0.016775377986248327,0.02
0.017623093701385727,0.021
0.018454539307895562,0.022
0.019269164510391623,0.023
0.02006642098305281,0.024
0.02084577443311833,0.025
0.02160671600132657,0.026
0.022348766785506256,0.027
0.023071473455243695,0.028
0.023774396140434848,0.029
0.024457095100522845,0.03
0.025119127026074772,0.031
0.0257600557156855,0.032
0.026379470411828157,0.033
0.026977003267743348,0.034
0.027552342604062485,0.035
0.0281052409673127,0.036
0.02863551682439967,0.037
0.02914304842153835,0.038
0.029627758336323178,0.039
0.030089591231392935,0.04
0.030528497538794008,0.041
0.030944438280789615,0.042
0.03133741011270996,0.043
0.03170747464692756,0.044
0.03205477879043519,0.045
0.0323795617355652,0.046
0.03268214883698294,0.047
0.032962934590073434,0.048
0.03322235809339571,0.049
0.033460875814390494,0.05
0.033678940190096596,0.051
0.033876993800927756,0.052
0.03405547986839118,0.053
0.034214859282785094,0.054
0.03435562522275158,0.055
0.03447831262078811,0.056
0.034583502100266596,0.057
0.03467181812486635,0.058
0.0347439214232744,0.059
0.03480049642146022,0.06
0.03484223544315823,0.061
0.034869822490853734,0.062
0.03488391992612569,0.063
0.034885160534169284,0.064
0.03487414501135628,0.065
0.03485144251233275,0.066
0.0348175917545563,0.067
0.03477310304114507,0.068
0.03471846456596809,0.069
0.03465415455528847,0.07
0.0345806557185738,0.071
0.03449846630577894,0.072
0.03440810364032727,0.073
0.034310098700124116,0.074
0.034204983473185506,0.075
0.03409327740751975,0.076
0.033975481850282,0.077
0.03385208467170898,0.078
0.03372356742518629,0.079
0.03359040755928058,0.08
0.03345307453764751,0.081
0.03331202245263143,0.082
0.03316768407531597,0.083
0.03302047161836448,0.084
0.032870784748707124,0.085
0.03271902129638086,0.086
0.0325655858972319,0.087
0.03241089391565751,0.088
0.03225536951096105,0.089
0.03209943819886721,0.09
0.031943516219879696,0.091
0.031788001461078616,0.092
0.03163327112764906,0.093
0.0314796867708482,0.094
0.031327602066017084,0.095
0.031177368891355663,0.096
0.031029340141299478,0.097
0.030883869313888212,0.098
0.03074130764132199,0.099
0.030601999847688903,0.1
0.030466279278754577,0.101
0.03033446257122031,0.102
0.03020684450065538,0.103
0.030083695200523244,0.104
0.029965261171234606,0.105
0.029851768109053125,0.106
0.029743422492038252,0.107
0.029640410616370825,0.108
0.029542896002594698,0.109
0.029451018394142138,0.11
0.02936489691076426,0.111
0.0292846357170705,0.112
0.029210328449523155,0.113
0.029142058958911015,0.114
0.02907989796727875,0.115
0.029023898440022036,0.116
0.02897409508799489,0.117
0.0289305101376904,0.118
0.028893161228285388,0.119
0.028862066172125084,0.12
0.02883724236908694,0.121
0.028818700970509557,0.122
0.028806438756892972,0.123
0.02880043436074356,0.124
0.028800652927282542,0.125
0.0288070553722741,0.126
0.028819606014593636,0.127
0.028838275727990713,0.128
0.028863040016559698,0.129
0.028893872333095597,0.13
0.02893073496746222,0.131
0.028973572838710954,0.132
0.029022314660109294,0.133
0.029076879985784468,0.134
0.029137187385567854,0.135
0.029203161148215584,0.136
0.02927473615460234,0.137
0.0293518607577142,0.138
0.029434497177318292,0.139
0.029522619020220246,0.14
0.029616206162812825,0.141
0.029715237981834383,0.142
0.029819686283891013,0.143
0.029929509072510886,0.144
0.030044645711426357,0.145
0.030165013420125793,0.146
0.030290504725711154,0.147
0.03042098619158574,0.148
0.03055630019003047,0.149
0.030696271490417707,0.15
0.03084071849401233,0.151
0.03098946725326944,0.152
0.031142365670469394,0.153
0.03129929483192086,0.154
0.03146017455923036,0.155
0.03162496130028988,0.156
0.031793638247329885,0.157
0.03196619949215302,0.158
0.03214263288404697,0.159
0.03232290940141567,0.16
0.03250698369901618,0.161
0.03269480175028231,0.162
0.03288630872426195,0.163
0.033081454239004306,0.164
0.033280194730461024,0.165
0.03348249274486136,0.166
0.0336883128997895,0.167
0.03389761467200022,0.168
0.03411034314361985,0.169
0.03432642047980943,0.17
0.03454574144274753,0.171
0.034768173021377934,0.172
0.03499355456013618,0.173
0.035221696114328925,0.174
0.035452376365749994,0.175
0.035685341645795204,0.176
0.03592030612440185,0.177
0.03615695380687543,0.178
0.03639494332580283,0.179
0.03663391449450426,0.18
0.03687349409723193,0.181
0.03711329870943708,0.182
0.03735293313633123,0.183
0.03759198464629807,0.184
0.03783001677042281,0.185
0.03806656887713585,0.186
0.03830116353838344,0.187
0.038533317012050046,0.188
0.03876254734709285,0.189
0.03898837765607816,0.19
0.03921033378136464,0.191
0.03942793609041847,0.192
0.03964068827597882,0.193
0.039848072502081944,0.194
0.040049559226254215,0.195
0.04024462862814422,0.196
0.04043279402976934,0.197
0.04061361988017101,0.198
0.040786729043554695,0.199
0.040951795306484434,0.2
0.04110852166602247,0.201
0.04125661700620462,0.202
0.0413957929598295,0.203
0.04152578885816094,0.204
0.04164640871752128,0.205
0.04175755087429758,0.206
0.041859221765675324,0.207
0.041951531460332675,0.208
0.04203467112958843,0.209
0.04210887720721755,0.21
0.042174396588196,0.211
0.042231473776282606,0.212
0.042280365910044956,0.213
0.042321367975164136,0.214
0.04235482927661255,0.215
0.0423811557090501,0.216
0.04240079932574447,0.217
0.042414238277602,0.218
0.042421952726549014,0.219
0.04242440660829414,0.22
0.04242204389156802,0.221
0.042415296752249726,0.222
0.042404594540512416,0.223
0.04239036585554218,0.224
0.04237303287320175,0.225
0.04235300079272733,0.226
0.042330648227715525,0.227
0.0423063247846589,0.228
0.0422803562334655,0.229
0.042253051634774275,0.23
0.042224707647994984,0.231
0.042195609063476074,0.232
0.0421660262713639,0.233
0.04213621068174391,0.234
0.04210638928319468,0.235
0.04207675961657049,0.236
0.042047486443349616,0.237
0.04201870121240337,0.238
0.041990504933096355,0.239
0.04196297419990028,0.24
0.04193616907816884,0.241
0.04191014073910432,0.242
0.04188493645727149,0.243
0.041860599927799225,0.244
0.041837165661892446,0.245
0.041814649383049546,0.246
0.04179304239144362,0.247
0.04177231784165293,0.248
0.041752447165585044,0.249
0.041733418302123446,0.25
0.04171524968102702,0.251
0.041697997560397194,0.252
0.04168175610615482,0.253
0.04166665091848392,0.254
0.04165282779521795,0.255
0.04164043905285398,0.256
0.04162962955155442,0.257
0.04162052400682371,0.258
0.041613217546953955,0.259
0.04160777243796637,0.26
0.04160422183275345,0.261
0.041602577393691054,0.262
0.04160283714863714,0.263
0.04160499198419765,0.264
0.0416090300232776,0.265
0.041614938157308226,0.266
0.04162270019853282,0.267
0.04163229145519525,0.268
0.04164367003939207,0.269
0.0416567673130754,0.27
0.04167148289937936,0.271
0.04168768703078398,0.272
0.041705225748532936,0.273
0.041723923171749666,0.274
0.04174357931295267,0.275
0.04176396517768731,0.276
0.0417848192978332,0.277
0.041805850150887426,0.278
0.041826745247943026,0.279
0.04184718434107909,0.28
0.04186685398712563,0.281
0.041885460918015184,0.282
0.041902741022562015,0.283
0.04191846063061433,0.284
0.041932407947245016,0.285
0.04194437613638626,0.286
0.041954147362784716,0.287
0.04196149136074047,0.288
0.04196618162292243,0.289
0.04196801789813516,0.29
0.041966843215361316,0.291
0.04196255128466935,0.292
0.04195508429994556,0.293
0.04194442243499566,0.294
0.041930566946787234,0.295
0.04191351991636653,0.296
0.04189326760823899,0.297
0.04186977701816755,0.298
0.041843007739218556,0.299
0.04181293043880888,0.3
0.041779542464790854,0.301
0.04174287631586797,0.302
0.04170299918655376,0.303
0.04166000260382136,0.304
0.041613984261500266,0.305
0.0415650316547467,0.306
0.041513220643190504,0.307
0.04145863042253741,0.308
0.04140136167651117,0.309
0.041341545051619535,0.31
0.041279336149794,0.311
0.041214899203693006,0.312
0.04114838698680761,0.313
0.041079929383854435,0.314
0.041009635865426816,0.315
0.04093760244436294,0.316
0.04086391190106403,0.317
0.040788626996759135,0.318
0.040711786174473456,0.319
0.040633410023861706,0.32
0.04055351539702556,0.321
0.04047212749653656,0.322
0.04038928354101562,0.323
0.04030502608881699,0.324
0.04021938943194224,0.325
0.04013239040305105,0.326
0.04004403385148373,0.327
0.039954329549953364,0.328
0.03986330955681728,0.329
0.039771039613058966,0.33
0.03967762334202944,0.331
0.039583199215771026,0.332
0.03948793029010098,0.333
0.03939198730132701,0.334
0.03929552988224772,0.335
0.039198696588419214,0.336
0.03910160893003453,0.337
0.03900438025361979,0.338
0.03890711810764216,0.339
0.038809917933229764,0.34
0.038712853273519233,0.341
0.03861597032724709,0.342
0.038519289544699326,0.343
0.03842280840789156,0.344
0.03832650014938951,0.345
0.038230311640467814,0.346
0.03813416733762299,0.347
0.03803798066835988,0.348
0.037941667886160206,0.349
0.03784515919356874,0.35
0.03774840477562003,0.351
0.03765137538157511,0.352
0.0375540582927837,0.353
0.037456450167257356,0.354
0.03735854822400659,0.355
0.037260340737699724,0.356
0.03716179761966163,0.357
0.037062863328589886,0.358
0.03696345604448309,0.359
0.03686347460721435,0.36
0.03676281001693892,0.361
0.03666135733407912,0.362
0.036559025517992956,0.363
0.03645574345699446,0.364
0.036351460664098986,0.365
0.03624614187193134,0.366
0.03613975598615533,0.367
0.03603226211838627,0.368
0.035923598336567476,0.369
0.035813677462748494,0.37
0.035702387152026664,0.371
0.035589589089998055,0.372
0.03547511937493395,0.373
0.035358795381275114,0.374
0.03524042763814496,0.375
0.03511983067324241,0.376
0.03499682883851571,0.377
0.03487125582610118,0.378
0.0347429480069527,0.379
0.03461173371208142,0.38
0.0344774246508409,0.381
0.034339817793826534,0.382
0.03419871029150569,0.383
0.03405392202542587,0.384
0.033905318798200225,0.385
0.03375283084011683,0.386
0.03359646175054191,0.387
0.03343628394891731,0.388
0.03327241955863315,0.389
0.03310501263214005,0.39
0.032934208620259836,0.391
0.03276015398608003,0.392
0.03258300900415357,0.393
0.032402955990096544,0.394
0.03222019393469354,0.395
0.03203492342936539,0.396
0.031847333564174726,0.397
0.03165759918702054,0.398
0.031465884019469655,0.399
0.03127234018808916,0.4
0.03107710414508107,0.401
0.03088029750993554,0.402
0.03068203694046584,0.403
0.03048244764105897,0.404
0.030281673711275135,0.405
0.030079883011606856,0.406
0.029877267015466887,0.407
0.029674036965567644,0.408
0.02947041784646191,0.409
0.02926664125750485,0.41
0.029062937531413296,0.411
0.028859527265794358,0.412
0.02865661434164865,0.413
0.028454384771028626,0.414
0.028253012987923824,0.415
0.028052671446330075,0.416
0.02785353823326137,0.417
0.027655800114293402,0.418
0.027459650466529,0.419
0.02726528290396414,0.42
0.027072882710194528,0.421
0.026882618955199607,0.422
0.02669464002219003,0.423
0.02650907413178825,0.424
0.026326034621706434,0.425
0.026145627881469156,0.426
0.02596796075557033,0.427
0.02579314442800313,0.428
0.025621293158432833,0.429
0.02545251805828782,0.43
0.025286918725607288,0.431
0.025124578221251078,0.432
0.024965564433056843,0.433
0.024809934395148548,0.434
0.02465773653086831,0.435
0.024509009153100815,0.436
0.02436377649138771,0.437
0.024222045681740727,0.438
0.024083807934894015,0.439
0.02394904322629277,0.44
0.023817725037646217,0.441
0.023689822564873706,0.442
0.023565299571065818,0.443
0.023444110286785003,0.444
0.023326194822512077,0.445
0.023211478323993145,0.446
0.023099875644430157,0.447
0.022991298663941277,0.448
0.022885662673373146,0.449
0.022782890505422676,0.45
0.02268291440437921,0.451
0.022585675984461602,0.452
0.022491124858336205,0.453
0.022399216617464076,0.454
0.02230991081858567,0.455
0.022223169471391344,0.456
0.022138956227886163,0.457
0.022057236072518013,0.458
0.021977974890018397,0.459
0.021901137981088448,0.46
0.021826686536505078,0.461
0.021754572524315695,0.462
0.02168473592582054,0.463
0.021617108835537205,0.464
0.021551625864094044,0.465
0.02148823618521676,0.466
0.021426913337714706,0.467
0.021367660946902216,0.468
0.021310513827476205,0.469
0.021255534945970243,0.47
0.021202809459296743,0.471
0.021152437300019644,0.472
0.021104525551127337,0.473
0.02105918133218098,0.474
0.021016505388863217,0.475
0.020976586565860912,0.476
0.020939498176334007,0.477
0.020905297549686893,0.478
0.020874028344469095,0.479
0.020845723489027145,0.48
0.02082040690732254,0.481
0.020798093347253462,0.482
0.02077878644503665,0.483
0.020762475852439614,0.484
0.02074913479996786,0.485
0.02073871951925314,0.486
0.020731171434499672,0.487
0.020726422171288793,0.488
0.02072440052989226,0.489
0.020725039915757717,0.49
0.020728284568561534,0.491
0.020734093420257834,0.492
0.020742441362351725,0.493
0.020753318591492244,0.494
0.020766729002581023,0.495
0.02078268819074013,0.496
0.020801220847315952,0.497
0.020822356688506363,0.498
0.020846124173772785,0.499
0.020872543794310774,0.5
0.020901626285259618,0.501
0.020933378853273704,0.502
0.020967815488484712,0.503
0.021004965539262097,0.504
0.02104487801093556,0.505
0.021087621363769418,0.506
0.021133279502454746,0.507
0.0211819453393488,0.508
0.021233713665247074,0.509
0.0212886749592304,0.51
0.02134691117730563,0.511
0.021408493653028788,0.512
0.02147348238484563,0.513
0.021541925523051467,0.514
0.021613857932008023,0.515
0.02168929885479276,0.516
0.021768250849347002,0.517
0.021850702249370833,0.518
0.021936632533526623,0.519
0.022026018270106237,0.52
0.022118838031699718,0.521
0.022215075432620593,0.522
0.022314719581634584,0.523
0.02241776232896964,0.524
0.02252419232303584,0.525
0.022633988539042693,0.526
0.0227471187747909,0.527
0.022863545451018884,0.528
0.022983234132982127,0.529
0.023106158874526602,0.53
0.023232302165239617,0.531
0.023361649972368684,0.532
0.02349418365581576,0.533
0.023629872013792467,0.534
0.02376866745072097,0.535
0.023910507270695755,0.536
0.024055316743470296,0.537
0.024203010586536268,0.538
0.024353492229272144,0.539
0.024506651485786905,0.54
0.02466236134856686,0.541
0.024820474829825433,0.542
0.024980823106249165,0.543
0.025143215541549226,0.544
0.025307440675813444,0.545
0.025473266943453494,0.546
0.025640442632217472,0.547
0.025808695011143835,0.548
0.02597772898495361,0.549
0.026147226587401283,0.55
0.026316848612111404,0.551
0.02648623823848886,0.552
0.02665502573256015,0.553
0.026822833660490365,0.554
0.026989282237355625,0.555
0.027153994204046055,0.556
0.027316598262262605,0.557
0.02747672971790162,0.558
0.027634026844529817,0.559
0.02778812322821208,0.56
0.027938641326361004,0.561
0.02808519466533274,0.562
0.028227399212199123,0.563
0.02836488647827475,0.564
0.028497311293042556,0.565
0.028624351757428747,0.566
0.028745701723561855,0.567
0.028861058083805367,0.568
0.02897010872458762,0.569
0.029072529266999495,0.57
0.02916799080538022,0.571
0.029256171720617494,0.572
0.029336765612905782,0.573
0.029409481739057733,0.574
0.029474037123071624,0.575
0.02953014487794754,0.576
0.029577511466692262,0.577
0.029615851582443852,0.578
0.02964491337630355,0.579
0.029664500631644244,0.58
0.029674484220259967,0.581
0.029674800132057155,0.582
0.02966543430170192,0.583
0.02964639860927309,0.584
0.029617709203324225,0.585
0.0295793809677263,0.586
0.02953144060705445,0.587
0.029473946747983124,0.588
0.029407006026493904,0.589
0.029330782188731894,0.59
0.029245498729903313,0.591
0.029151435993164925,0.592
0.029048923869347907,0.593
0.0289383313194944,0.594
0.02882005388669473,0.595
0.02869450018148669,0.596
0.028562078072819384,0.597
0.02842318263739687,0.598
0.02827819072347503,0.599
0.028127464842816932,0.6
0.02797136232238608,0.601
0.027810244049747267,0.602
0.027644480540650294,0.603
0.02747445488347239,0.604
0.027300562443056193,0.605
0.027123207701906824,0.606
0.026942799247686867,0.607
0.02675974446359603,0.608
0.02657444553632898,0.609
0.02638729769694355,0.61
0.026198689388054603,0.611
0.02600900299929268,0.612
0.025818614592758495,0.613
0.025627891769851505,0.614
0.0254371900085578,0.615
0.025246848700436926,0.616
0.02505718827133154,0.617
0.02486850916133683,0.618
0.02468109241123927,0.619
0.02449520068232347,0.62
0.024311078270616786,0.621
0.024128950016345196,0.622
0.023949021448131595,0.623
0.02377148223939914,0.624
0.02359651177609532,0.625
0.023424284315254302,0.626
0.02325497258329495,0.627
0.023088749749946777,0.628
0.022925790019115506,0.629
0.022766268119836456,0.63
0.02261035781303765,0.631
0.02245822930238775,0.632
0.02231004536037367,0.633
0.022165956612868038,0.634
0.022026097954529058,0.635
0.02189058831958585,0.636
0.021759533477674148,0.637
0.021633029392682933,0.638
0.021511164544982694,0.639
0.021394021244235267,0.64
0.02128167635764546,0.641
0.02117420152907191,0.642
0.02107166258195395,0.643
0.020974117705622308,0.644
0.020881614325026557,0.645
0.02079418542412836,0.646
0.02071184714779846,0.647
0.020634598903695126,0.648
0.020562425056957753,0.649
0.020495296671753326,0.65
0.02043317294228445,0.651
0.020376002792611026,0.652
0.020323727085854018,0.653
0.02027628149763195,0.654
0.020233599586475026,0.655
0.020195615051046993,0.656
0.020162261777002706,0.657
0.020133470578113415,0.658
0.020109164434934827,0.659
0.020089258296973136,0.66
0.020073667432194266,0.661
0.020062320309936967,0.662
0.020055168870965808,0.663
0.02005219194780305,0.664
0.0200533905602805,0.665
0.020058776665010426,0.666
0.02006836153289399,0.667
0.02008215210519862,0.668
0.020100157139647547,0.669
0.020122396238234665,0.67
0.020148905045005855,0.671
0.020179735119500806,0.672
0.02021494953821902,0.673
0.02025461569954854,0.674
0.020298796985964533,0.675
0.0203475455672395,0.676
0.020400899082487583,0.677
0.020458881708936456,0.678
0.020521506852820653,0.679
0.020588778820420334,0.68
0.02066069304413221,0.681
0.02073723543207977,0.682
0.02081838142274476,0.683
0.02090409518798688,0.684
0.020994329185424685,0.685
0.02108902397804045,0.686
0.021188107982582697,0.687
0.02129149665531372,0.688
0.021399090767636554,0.689
0.021510774423301984,0.69
0.021626414766736806,0.691
0.02174586453753656,0.692
0.02186896615263208,0.693
0.021995555201281523,0.694
0.022125462186652636,0.695
0.02225851209272947,0.696
0.02239452180486136,0.697
0.022533295946485298,0.698
0.022674622433135637,0.699
0.022818269392010343,0.7
0.022963984162199542,0.701
0.023111494359617176,0.702
0.023260510979568924,0.703
0.023410732191122857,0.704
0.023561844941099665,0.705
0.02371352337374882,0.706
0.023865428348205875,0.707
0.02401721380238041,0.708
0.024168539634209694,0.709
0.024319085479603823,0.71
0.024468560482575036,0.711
0.02461670671976892,0.712
0.02476329572999714,0.713
0.024908118961548986,0.714
0.025050974191508188,0.715
0.025191652440341956,0.716
0.0253299321338081,0.717
0.025465583016919095,0.718
0.025598374696315988,0.719
0.025728084269395993,0.72
0.02585450214616391,0.721
0.02597743728149274,0.722
0.026096722823649176,0.723
0.02621222245323091,0.724
0.026323836601104912,0.725
0.02643150661464496,0.726
0.026535214236091696,0.727
0.026634973918926975,0.728
0.026730817870926526,0.729
0.02682278069125025,0.73
0.02691089615915807,0.731
0.026995210388470095,0.732
0.02707580084579352,0.733
0.027152789299050236,0.734
0.027226344943838306,0.735
0.027296678920159603,0.736
0.027364032920402168,0.737
0.02742866506878001,0.738
0.027490835887161613,0.739
0.027550796291553544,0.74
0.027608778820392584,0.741
0.027664992868781386,0.742
0.027719623559578535,0.743
0.027772832429079183,0.744
0.02782475835350217,0.745
0.027875518522974044,0.746
0.02792520989545474,0.747
0.02797391144030194,0.748
0.0280216872188406,0.749
0.028068590068536303,0.75
0.02811466537220786,0.751
0.028159954132649604,0.752
0.028204494411897443,0.753
0.028248320257326612,0.754
0.028291457617635914,0.755
0.028333918197971167,0.756
0.028375694852276357,0.757
0.028416762200356306,0.758
0.02845708169212861,0.759
0.02849660690399777,0.76
0.028535285954990178,0.761
0.028573060153435855,0.762
0.028609859204557678,0.763
0.02864559544251057,0.764
0.028680162153637972,0.765
0.028713438877907102,0.766
0.028745300696029805,0.767
0.028775626816958992,0.768
0.02880430603940455,0.769
0.028831237965648324,0.77
0.028856329211547814,0.771
0.0288794848418708,0.772
0.028900598684670674,0.773
0.02891955012542451,0.774
0.028936211128804422,0.775
0.028950457935238833,0.776
0.028962179878210544,0.777
0.028971282385266483,0.778
0.02897768430046895,0.779
0.02898131076487585,0.78
0.028982083514060553,0.781
0.028979911015697843,0.782
0.028974681745923703,0.783
0.02896626307254985,0.784
0.028954504815630184,0.785
0.028939244553483397,0.786
0.028920313050270194,0.787
0.028897539682837727,0.788
0.0288707577206942,0.789
0.02883980871708825,0.79
0.028804544816364967,0.791
0.02876482764296221,0.792
0.028720522662783642,0.793
0.028671490074590557,0.794
0.028617578540521816,0.795
0.028558629717730703,0.796
0.028494494034989305,0.797
0.028425050425139407,0.798
0.02835022279948345,0.799
0.028269989253985012,0.8
0.028184382067495718,0.801
0.028093478362989196,0.802
0.02799738318695236,0.803
0.027896209565972593,0.804
0.027790064275264335,0.805
0.02767904703312027,0.806
0.02756326128404853,0.807
0.027442827953146908,0.808
0.027317896309053055,0.809
0.027188650674288273,0.81
0.027055313134952033,0.811
0.026918142460807173,0.812
0.026777429444155152,0.813
0.026633488878014627,0.814
0.026486648514436297,0.815
0.026337236280620485,0.816
0.026185569846991996,0.817
0.02603195414935446,0.818
0.025876687500635116,0.819
0.02572007037659015,0.82
0.025562411170427544,0.821
0.025404027202989274,0.822
0.025245241420100987,0.823
0.025086375936862096,0.824
0.024927744065632397,0.825
0.02476964316642056,0.826
0.024612351127612637,0.827
0.02445612713064556,0.828
0.024301214056944024,0.829
0.02414783991486975,0.83
0.02399621777478662,0.831
0.02384654455911533,0.832
0.023698999078647878,0.833
0.02355374020486711,0.834
0.023410906604572214,0.835
0.02327061861461549,0.836
0.023132981200816444,0.837
0.022998086653479567,0.838
0.022866016418606968,0.839
0.02273684187280461,0.84
0.0226106239267335,0.841
0.022487411390339978,0.842
0.022367238332347498,0.843
0.022250121763910707,0.844
0.022136061909629058,0.845
0.02202504596040621,0.846
0.02191705371368235,0.847
0.021812062916956493,0.848
0.021710052897547114,0.849
0.021611005462361624,0.85
0.021514902304197808,0.851
0.021421719492510535,0.852
0.02133142275261398,0.853
0.02124396853101129,0.854
0.021159311446055384,0.855
0.02107741360916719,0.856
0.02099825143113932,0.857
0.020921818214930738,0.858
0.020848122385490164,0.859
0.020777181938968405,0.86
0.02070901622959277,0.861
0.020643637298012746,0.862
0.020581044515447712,0.863
0.020521224836842288,0.864
0.020464156427112395,0.865
0.020409811920003018,0.866
0.02035815991006762,0.867
0.02030916510408235,0.868
0.020262787838058995,0.869
0.02021898347100518,0.87
0.020177701885065492,0.871
0.020138887071271473,0.872
0.02010247661302587,0.873
0.020068400803495545,0.874
0.020036581144754526,0.875
0.02000692807200723,0.876
0.019979338182959046,0.877
0.019953692190002814,0.878
0.019929855000241435,0.879
0.019907677759332023,0.88
0.01988700020504529,0.881
0.019867651902892032,0.882
0.019849451778894037,0.883
0.0198322061649465,0.884
0.01981570711799849,0.885
0.01979973383577809,0.886
0.019784058317524694,0.887
0.01976845371087375,0.888
0.019752702984032987,0.889
0.019736605850224496,0.89
0.019719981809604957,0.891
0.019702667299570664,0.892
0.019684507138394647,0.893
0.01966534624567665,0.894
0.019645030904057063,0.895
0.019623421386845443,0.896
0.01960040762436597,0.897
0.01957591923952851,0.898
0.019549926903397817,0.899
0.019522435757292275,0.9
0.01949347345750158,0.901
0.019463076171139643,0.902
0.01943127606869816,0.903
0.019398093834125763,0.904
0.019363537514205723,0.905
0.019327605333018225,0.906
0.01929028929456783,0.907
0.019251578198471203,0.908
0.019211459503001408,0.909
0.019169919157841695,0.91
0.019126938579819175,0.911
0.019082489985220677,0.912
0.019036534659618052,0.913
0.018989027332189965,0.914
0.018939923596918085,0.915
0.01888918510621866,0.916
0.01883677996719917,0.917
0.01878267806580482,0.918
0.01872684382242527,0.919
0.01866923278584768,0.92
0.018609796524139088,0.921
0.018548492712519883,0.922
0.018485294889243362,0.923
0.018420199518117658,0.924
0.018353229862894147,0.925
0.018284436389034146,0.926
0.018213893591732217,0.927
0.018141693413466192,0.928
0.018067935821036402,0.929
0.017992718699798186,0.93
0.017916131713196084,0.931
0.017838257114883842,0.932
0.017759174536136443,0.933
0.017678964705445874,0.934
0.017597710141511493,0.935
0.0175154934102378,0.936
0.017432394145325478,0.937
0.0173484859497708,0.938
0.017263833963813004,0.939
0.01717849351056691,0.94
0.01709250993698677,0.941
0.017005919575574704,0.942
0.016918751631476846,0.943
0.016831030712623554,0.944
0.016742779638381285,0.945
0.016654022083469076,0.946
0.016564784584308986,0.947
0.016475097522863292,0.948
0.016384994920120504,0.949
0.016294513121509164,0.95
0.016203688604939863,0.951
0.016112555146737588,0.952
0.016021140517440365,0.953
0.015929463082104797,0.954
0.015837529427857825,0.955
0.015745334403157816,0.956
0.01565286362402048,0.957
0.015560097094215103,0.958
0.015467012770310989,0.959
0.0153735897039594,0.96
0.015279810702991432,0.961
0.015185664483589286,0.962
0.015091147294306861,0.963
0.014996263983093965,0.964
0.01490102846632319,0.965
0.014805463560760193,0.966
0.014709600157634574,0.967
0.014613475736427206,0.968
0.014517132217073472,0.969
0.01442061313395508,0.97
0.014323960107337655,0.971
0.014227208902182428,0.972
0.014130386422296349,0.973
0.014033510583025745,0.974
0.013936593345255602,0.975
0.01383964500466159,0.976
0.013742677864823846,0.977
0.013645708721985858,0.978
0.013548760364490011,0.979
0.013451862555392593,0.98
0.013355052956431645,0.981
0.013258378174596058,0.982
0.013161894728456462,0.983
0.013065669431615757,0.984
0.012969778611953656,0.985
0.012874305774937578,0.986
0.012779337713179089,0.987
0.01268495954032888,0.988
0.012591249993020281,0.989
0.012498279139500659,0.99
0.012406109220097135,0.991
0.012314796687277118,0.992
0.012224393364458337,0.993
0.012134946396019594,0.994
0.012046497644395124,0.995
0.01195908337782178,0.996
0.01187273499915931,0.997
0.011787481176155704,0.998
0.011703351173926747,0.999
0.011620378676582662,1.0
0.011538605117319464,1.001
0.011458081607801379,1.002
0.011378868918329288,1.003
0.01130103545350212,1.004
0.011224653603307672,1.005
0.01114979509472333,1.006
0.01107652659223869,1.007
0.011004907773173983,1.008
0.010934993080477132,1.009
0.010866835607756753,1.01
0.010800490887610315,1.011
0.010736019600216952,1.012
0.010673488899997734,1.013
0.010612972228620295,1.014
0.01055454771579282,1.015
0.010498295463703206,1.016
0.010444294104352242,1.017
0.010392617352142709,1.018
0.01034333194829075,1.019
0.010296498009643856,1.02
0.010252171026952188,1.021
0.010210403877706444,1.022
0.010171247901309556,1.023
0.01013475280780472,1.024
0.01010096543910602,1.025
0.010069927744270442,1.026
0.010041675142613097,1.027
0.010016236777068843,1.028
0.009993637860090715,1.029
0.009973902754574143,1.03
0.009957057372887892,1.031
0.0099431301789123,1.032
0.009932151495018514,1.033
0.009924151097690306,1.034
0.009919154959401167,1.035
0.009917183375168807,1.036
0.009918252173668976,1.037
0.00992237599507952,1.038
0.009929571441387645,1.039
0.009939858965293868,1.04
0.009953263277076204,1.041
0.009969812323030632,1.042
0.009989535059103842,1.043
0.010012458391890886,1.044
0.010038604024906438,1.045
0.010067986460819463,1.046
0.010100612870233021,1.047
0.010136483999210693,1.048
0.010175594827221563,1.049
0.01021793454116615,1.05
0.010263486035297031,1.051
0.010312225223888503,1.052
0.0103641203535459,1.053
0.010419131382863354,1.054
0.010477209404397128,1.055
0.010538296127472849,1.056
0.010602323661427418,1.057
0.01066921486090695,1.058
0.010738884130520533,1.059
0.010811238289468717,1.06
0.010886177060250902,1.061
0.010963592801259341,1.062
0.011043369727045473,1.063
0.01112538405777026,1.064
0.011209506354541349,1.065
0.011295605383351807,1.066
0.011383551794836026,1.067
0.011473220305664547,1.068
0.011564489568638975,1.069
0.011657239333177331,1.07
0.011751346090984969,1.071
0.011846680980394615,1.072
0.011943112679636804,1.073
0.012040513109858483,1.074
0.012138761875900945,1.075
0.012237747331667029,1.076
0.012337363780115525,1.077
0.012437506018489431,1.078
0.012538065211167957,1.079
0.012638929808515447,1.08
0.0127399903184024,1.081
0.012841143510703324,1.082
0.012942293281131279,1.083
0.013043347986323124,1.084
0.013144215391674399,1.085
0.013244797526563936,1.086
0.013344988319280474,1.087
0.013444674746982176,1.088
0.013543739161892276,1.089
0.01364206045791465,1.09
0.013739513618464925,1.091
0.013835968006305285,1.092
0.013931284923682837,1.093
0.014025315545411768,1.094
0.014117900615560721,1.095
0.014208872107477387,1.096
0.014298055499271165,1.097
0.014385271304001808,1.098
0.014470335381338064,1.099
0.01455305807928358,1.1
0.01463324240488292,1.101
0.014710681751032515,1.102
0.01478515858329905,1.103
0.014856445805072128,1.104
0.014924311238267748,1.105
0.014988524297491637,1.106
0.01504886373253809,1.107
0.015105125345490517,1.108
0.015157128273239374,1.109
0.015204718171812402,1.11
0.015247765759050751,1.111
0.01528615976701283,1.112
0.015319796316234147,1.113
0.015348572231485037,1.114
0.015372389273541537,1.115
0.015391166857097592,1.116
0.015404855186241758,1.117
0.015413443761971228,1.118
0.015416964092137171,1.119
0.01541548694236934,1.12
0.015409115129177699,1.121
0.015397973218318643,1.122
0.015382195567815572,1.123
0.01536191535088711,1.124
0.01533725940083885,1.125
0.015308351442711097,1.126
0.015275320160600386,1.127
0.015238307276335232,1.128
0.015197473776292322,1.129
0.015153003635859835,1.13
0.015105104151472759,1.131
0.01505400204766455,1.132
0.014999935222433067,1.133
0.014943143092800128,1.134
0.014883862570119514,1.135
0.01482233336480061,1.136
0.014758807166866098,1.137
0.014693553165136528,1.138
0.01462685723061121,1.139
0.014559015552093808,1.14
0.014490325684192765,1.141
0.014421080208198872,1.142
0.014351566462152463,1.143
0.014282070111806315,1.144
0.014212878018115462,1.145
0.014144278453611823,1.146
0.01407655911980518,1.147
0.01401000398791381,1.148
0.013944889916326817,1.149
0.013881483773484441,1.15
0.013820040506145404,1.151
0.013760802310381855,1.152
0.013703998836134304,1.153
0.013649848209299672,1.154
0.013598558579149364,1.155
0.013550329864075549,1.156
0.013505355352026625,1.157
0.013463822815414778,1.158
0.013425914844032756,1.159
0.013391808197795186,1.16
0.013361672149645783,1.161
0.013335666445232352,1.162
0.01331394049416954,1.163
0.013296634834648047,1.164
0.013283883885351604,1.165
0.013275818376890066,1.166
0.013272566759798345,1.167
0.013274255511906837,1.168
0.013281008480908503,1.169
0.013292945548681809,1.17
0.013310180977010599,1.171
0.013332821811537074,1.172
0.013360966701380789,1.173
0.01339470542641874,1.174
0.013434119284464797,1.175
0.013479282262844717,1.176
0.013530262633953884,1.177
0.013587124352596817,1.178
0.013649927502241211,1.179
0.013718727132732781,1.18
0.013793570837398796,1.181
0.013874497369416632,1.182
0.013961538530393967,1.183
0.014054723539044543,1.184
0.014154083267990022,1.185
0.014259652647661157,1.186
0.014371470737122046,1.187
0.014489578555225894,1.188
0.014614015168655492,1.189
0.014744813100157652,1.19
0.01488199484760726,1.191
0.01502557177488257,1.192
0.015175544460490843,1.193
0.01533190255003439,1.194
0.015494623834377786,1.195
0.01566367406598072,1.196
0.015839008161263494,1.197
0.016020571351164765,1.198
0.01620829876292009,1.199
0.01640211408386074,1.2
0.016601929737629882,1.201
0.016807649820717946,1.202
0.01701917429974769,1.203
0.017236402318742603,1.204
0.017459233626721988,1.205
0.017687567919017433,1.206
0.01792130218362338,1.207
0.018160326487795957,1.208
0.01840451965886946,1.209
0.018653747493416136,1.21
0.018907864781702973,1.211
0.019166719361638763,1.212
0.019430155832726725,1.213
0.01969801804960193,1.214
0.019970150268227155,1.215
0.02024639686209344,1.216
0.020526600538979537,1.217
0.020810599016784996,1.218
0.021098220475114945,1.219
0.02138927944373107,1.22
0.02168357594249058,1.221
0.021980898849773844,1.222
0.02228103121261253,1.223
0.02258375471938682,1.224
0.022888852090528832,1.225
0.023196107101738615,1.226
0.0235053023940663,1.227
0.023816215607155918,1.228
0.02412861457332027,1.229
0.024442252321689274,1.23
0.024756862889882048,1.231
0.02507215933797802,1.232
0.025387834465484052,1.233
0.025703563000609136,1.234
0.026019003834864635,1.235
0.026333801791214362,1.236
0.026647588768180356,1.237
0.026959984074991974,1.238
0.027270593832448037,1.239
0.027579009422956272,1.24
0.027884805064427132,1.241
0.02818753473972983,1.242
0.028486729429100823,1.243
0.028781896462685707,1.244
0.02907252197033468,1.245
0.02935807536087432,1.246
0.029638014193359458,1.247
0.029911788490258075,1.248
0.030178843853980154,1.249
0.030438622779905996,1.25
0.030690563726069823,1.251
0.03093409776286528,1.252
0.031168642902891446,1.253
0.03139359761515204,1.254
0.03160833775611869,1.255
0.031812220515847624,1.256
0.0320045941684924,1.257
0.03218481035326147,1.258
0.03235223740399029,1.259
0.03250627432531161,1.26
0.032646364606043844,1.261
0.03277200822161793,1.262
0.03288276923222259,1.263
0.03297827571831854,1.264
0.03305820885415773,1.265
0.03312228144628957,1.266
0.03317021767742208,1.267
0.03320175455283271,1.268
0.03321667167063072,1.269
0.03321483248466716,1.27
0.03319621659468219,1.271
0.03316093345501225,1.272
0.03310921580792165,1.273
0.033041395729386705,1.274
0.032957869582424394,1.275
0.03285906079017185,1.276
0.03274539217182008,1.277
0.032617276716143104,1.278
0.03247512333618354,1.279
0.03231934555972789,1.28
0.03215036574753617,1.281
0.031968614959841254,1.282
0.03177453074115744,1.283
0.031568554594766686,1.284
0.0313511302543173,1.285
0.0311227032119116,1.286
0.030883721437651467,1.287
0.030634636871455737,1.288
0.030375907096221722,1.289
0.03010799660318941,1.29
0.029831377197048266,1.291
0.029546527287902444,1.292
0.029253930001121444,1.293
0.028954070158813194,1.294
0.028647430250807692,1.295
0.02833448555065504,1.296
0.02801569857364898,1.297
0.027691513613646974,1.298
0.027362353352392628,1.299
0.027028619442701057,1.3
0.026690696458060898,1.301
0.02634895686510274,1.302
0.026003765472178104,1.303
0.025655482995523345,1.304
0.025304468733016238,1.305
0.024951082368406468,1.306
0.024595684951164393,1.307
0.02423863910379823,1.308
0.023880308502789733,1.309
0.02352105667732089,1.31
0.023161245190995907,1.311
0.02280123132348741,1.312
0.022441365434590042,1.313
0.022081988233809004,1.314
0.02172342816395012,1.315
0.021365999045389817,1.316
0.021009998053499707,1.317
0.020655704138819047,1.318
0.020303377218355012,1.319
0.019953258463750432,1.32
0.019605571525524786,1.321
0.01926052418038481,1.322
0.018918310063781963,1.323
0.018579110410321606,1.324
0.01824309578736932,1.325
0.01791042778296965,1.326
0.017581260569974885,1.327
0.017255742230610466,1.328
0.01693401571765261,1.329
0.01661621936067146,1.33
0.016302486882947373,1.331
0.01599294695564688,1.332
0.015687722374496463,1.333
0.015386929001029281,1.334
0.01509067465092995,1.335
0.014799058108977685,1.336
0.014512168393140156,1.337
0.014230084303461754,1.338
0.013952874215495226,1.339
0.013680596038208571,1.34
0.013413297247752046,1.341
0.013151014911423013,1.342
0.012893775617803138,1.343
0.012641595229511374,1.344
0.01239447850015253,1.345
0.012152418952601622,1.346
0.011915399560352785,1.347
0.011683394325079722,1.348
0.01145637037446466,1.349
0.011234290206235072,1.35
0.011017113860100984,1.351
0.010804800854098136,1.352
0.010597311752680237,1.353
0.010394609285206885,1.354
0.010196658985589553,1.355
0.010003429362150354,1.356
0.009814891627854433,1.357
0.00963101903018747,1.358
0.009451785825442548,1.359
0.009277165952267161,1.36
0.009107131478483948,1.361
0.00894165091808159,1.362
0.008780687526292208,1.363
0.008624197842445214,1.364
0.00847213105484027,1.365
0.008324429504712336,1.366
0.008181029872266793,1.367
0.008041864420954233,1.368
0.00790686210325115,1.369
0.007775949568990584,1.37
0.007649052128809935,1.371
0.007526094696365185,1.372
0.0074070026819826745,1.373
0.0072917027647332235,1.374
0.007180123458440003,1.375
0.007072195421379212,1.376
0.0069678515246301715,1.377
0.006867026754880815,1.378
0.006769658049506386,1.379
0.006675684135285095,1.38
0.006585045388211945,1.381
0.006497683684198212,1.382
0.0064135421895963095,1.383
0.00633256504372914,1.384
0.006254696900329145,1.385
0.006179882315178201,1.386
0.006108064990055675,1.387
0.006039186894245501,1.388
0.005973187265053928,1.389
0.005910001585319998,1.39
0.005849561029845158,1.391
0.005791793075131939,1.392
0.005736623430834415,1.393
0.005683978802153126,1.394
0.005633789906012921,1.395
0.005585994305991154,1.396
0.005540538675851166,1.397
0.005497380161126753,1.398
0.005456486651649035,1.399
0.005417835962330719,1.4
0.005381414094413422,1.401
0.0053472128759169965,1.402
0.005315227335815567,1.403
0.005285453146704462,1.404
0.005257884392160261,1.405
0.00523251186361795,1.406
0.00520932208236258,1.407
0.005188297042499444,1.408
0.005169414331441272,1.409
0.0051526472650634605,1.41
0.005137964954743312,1.411
0.005125332393930406,1.412
0.00511471064257268,1.413
0.005106057127800192,1.414
0.005099326024624818,1.415
0.005094468655114487,1.416
0.005091433861129294,1.417
0.005090168352054962,1.418
0.005090617075450463,1.419
0.005092723680444244,1.42
0.005096431134242729,1.421
0.005101682519136443,1.422
0.005108421995072958,1.423
0.005116595873371955,1.424
0.005126153713921662,1.425
0.005137049328148984,1.426
0.005149241545366474,1.427
0.005162694592211326,1.428
0.005177377951532187,1.429
0.005193265602709201,1.43
0.005210334591582043,1.431
0.005228562936017181,1.432
0.005247927325326525,1.433
0.005268401948198997,1.434
0.005289959501344022,1.435
0.005312573737361576,1.436
0.005336222156436688,1.437
0.005360888068173962,1.438
0.005386561754515823,1.439
0.005413240595531882,1.44
0.005440928127016882,1.441
0.005469632122129584,1.442
0.005499361909543232,1.443
0.00553012557082767,1.444
0.005561928346586234,1.445
0.0055947730541468475,1.446
0.005628661585257938,1.447
0.005663595980554036,1.448
0.005699578414790769,1.449
0.005736610087681819,1.45
0.005774689574319884,1.451
0.005813811978625842,1.452
0.005853969878777888,1.453
0.005895155475113615,1.454
0.0059373627222444264,1.455
0.005980588805908057,1.456
0.0060248347484145,1.457
0.006070105052342126,1.458
0.006116406423065131,1.459
0.006163745726865028,1.46
0.0062121276924814285,1.461
0.006261553519029902,1.462
0.006312021346622266,1.463
0.006363528148763617,1.464
0.006416071846160212,1.465
0.006469652929325935,1.466
0.0065242754243406975,1.467
0.006579947215811686,1.468
0.006636679810008958,1.469
0.006694487659857575,1.47
0.006753387181883041,1.471
0.006813395579670704,1.472
0.00687452955417672,1.473
0.006936803931748474,1.474
0.007000230184792958,1.475
0.007064815035588548,1.476
0.007130559882230241,1.477
0.007197461648548751,1.478
0.007265514646081954,1.479
0.007334712592610319,1.48
0.007405050287802003,1.481
0.007476524719340254,1.482
0.007549135467067163,1.483
0.007622884364122141,1.484
0.007697774446508427,1.485
0.007773808279432976,1.486
0.007850985804595683,1.487
0.007929302192301304,1.488
0.008008746729547834,1.489
0.008089303297820103,1.49
0.008170951633756609,1.491
0.008253668268367455,1.492
0.008337426752642919,1.493
0.008422197181147839,1.494
0.008507945088648996,1.495
0.008594630080788066,1.496
0.008682205116362564,1.497
0.00877061717438819,1.498
0.008859808927205892,1.499
0.008949720502028052,1.5
0.009040290746773856,1.501
0.009131457693558494,1.502
0.009223157995013529,1.503
0.009315325244557901,1.504
0.009407887809680547,1.505
0.009500768006711395,1.506
0.009593883976436466,1.507
0.009687153420028597,1.508
0.009780497550533186,1.509
0.00987384442969224,1.51
0.009967131351257945,1.511
0.010060306003283507,1.512
0.010153326237443718,1.513
0.010246158387877168,1.514
0.010338774214499667,1.515
0.010431146693580978,1.516
0.010523245561766353,1.517
0.010615034740333738,1.518
0.010706473208296895,1.519
0.010797518246584502,1.52
0.010888128843415851,1.521
0.010978268145903433,1.522
0.011067904782093723,1.523
0.011157013118530384,1.524
0.011245572610694386,1.525
0.011333566463093603,1.526
0.011420979848110368,1.527
0.011507797945812016,1.528
0.011594004062003078,1.529
0.011679578051437762,1.53
0.011764495208508285,1.531
0.011848725692135416,1.532
0.011932234445030911,1.533
0.012014981476010218,1.534
0.012096922315675067,1.535
0.012178008434118922,1.536
0.01225818741610214,1.537
0.012337402714446635,1.538
0.012415592841893459,1.539
0.012492689911233522,1.54
0.012568617778174248,1.541
0.012643290889787306,1.542
0.01271661517612379,1.543
0.012788491118402677,1.544
0.012858818010641643,1.545
0.01292749851429548,1.546
0.012994442988729338,1.547
0.013059573165439443,1.548
0.013122824771232508,1.549
0.013184148830479133,1.55
0.013243511530135588,1.551
0.013300892641987786,1.552
0.01335628253519256,1.553
0.013409677805879785,1.554
0.013461075680612828,1.555
0.013510468637964816,1.556
0.013557842638782052,1.557
0.013603180911334993,1.558
0.01364647089935404,1.559
0.013687710708620123,1.56
0.013726913184001276,1.561
0.013764106944969273,1.562
0.013799334244776437,1.563
0.01383264612277584,1.564
0.01386409579228179,1.565
0.013893731988086548,1.566
0.013921594925364107,1.567
0.013947716119154283,1.568
0.013972120008724229,1.569
0.013994824554795213,1.57
0.014015839993516223,1.571
0.014035166993140755,1.572
0.014052796468324982,1.573
0.014068712128595909,1.574
0.014082894514022854,1.575
0.01409532474102367,1.576
0.014105987073008119,1.577
0.014114869923496818,1.578
0.014121965024481088,1.579
0.014127264664525272,1.58
0.014130757498118523,1.581
0.01413242496583075,1.582
0.014132241208575237,1.583
0.014130177128534803,1.584
0.014126206272429885,1.585
0.014120310141508852,1.586
0.01411248203074529,1.587
0.014102729223060545,1.588
0.014091073536748325,1.589
0.014077550349958464,1.59
0.014062206303605568,1.591
0.0140450959253846,1.592
0.014026277436966791,1.593
0.0140058080132086,1.594
0.013983739078569495,1.595
0.013960113101992721,1.596
0.013934963437867005,1.597
0.013908316969499977,1.598
0.013880197753745728,1.599
0.013850630299119392,1.6
0.01381964212153177,1.601
0.013787265599395096,1.602
0.013753539221084571,1.603
0.013718508347260154,1.604
0.013682225565533857,1.605
0.013644750607135388,1.606
0.013606149693239478,1.607
0.0135664941640326,1.608
0.01352585834101968,1.609
0.0134843167234873,1.61
0.01344194072891296,1.611
0.013398795283444336,1.612
0.013354936035890625,1.613
0.013310408529743462,1.614
0.013265249895757895,1.615
0.013219492019441285,1.616
0.01317316487436578,1.617
0.013126299467759431,1.618
0.013078930184829272,1.619
0.013031096347920658,1.62
0.012982842889506165,1.621
0.012934220154393985,1.622
0.012885282965843898,1.623
0.012836089175363713,1.624
0.01278669793684649,1.625
0.01273716789695521,1.626
0.012687555401096642,1.627
0.012637912721444088,1.628
0.01258828625517219,1.629
0.012538714629079012,1.63
0.012489226920027885,1.631
0.012439841769215967,1.632
0.012390567996322573,1.633
0.012341406233305336,1.634
0.0122923506358988,1.635
0.012243390193613488,1.636
0.01219450954985378,1.637
0.01214568935925133,1.638
0.012096906269910264,1.639
0.012048132654310257,1.64
0.011999336221917524,1.641
0.011950479638590285,1.642
0.011901520271603605,1.643
0.011852410186432462,1.644
0.011803096532258396,1.645
0.011753522438528657,1.646
0.011703628476464662,1.647
0.011653354613095069,1.648
0.011602642433644074,1.649
0.011551437288012787,1.65
0.011499689976588255,1.651
0.011447357639176923,1.652
0.011394403621126738,1.653
0.01134079622427504,1.654
0.011286506378109488,1.655
0.011231504371282617,1.656
0.011175756222032844,1.657
0.011119221274455493,1.658
0.011061852698024958,1.659
0.011003600744481267,1.66
0.010944417130756843,1.661
0.010884259318509391,1.662
0.010823094282873822,1.663
0.010760901584300242,1.664
0.010697675549623717,1.665
0.010633426402100098,1.666
0.010568180253273187,1.667
0.010501977956476454,1.668
0.010434872900901919,1.669
0.010366927893477939,1.67
0.010298211334679274,1.671
0.01022879293447323,1.672
0.010158739497532139,1.673
0.010088112066996455,1.674
0.01001696581843549,1.675
0.009945352555796743,1.676
0.009873324261646018,1.677
0.009800936455526483,1.678
0.00972825090472007,1.679
0.009655337456988714,1.68
0.009582274770957746,1.681
0.00950914980342765,1.682
0.00943605606237606,1.683
0.009363090814150174,1.684
0.00929035159843991,1.685
0.009217932667599706,1.686
0.009145922397247147,1.687
0.009074402552247843,1.688
0.009003449041395694,1.689
0.008933132866986175,1.69
0.00886352043017153,1.691
0.008794673148436823,1.692
0.008726646613429303,1.693
0.008659489605127633,1.694
0.00859324345188694,1.695
0.008527942127448352,1.696
0.008463612973682868,1.697
0.008400277643461473,1.698
0.008337953024437432,1.699
0.008276652092135304,1.7
0.008216384653591851,1.701
0.008157157907801691,1.702
0.008098976730305114,1.703
0.008041843587755084,1.704
0.007985758010626332,1.705
0.00793071560538941,1.706
0.007876706804186577,1.707
0.007823715995064819,1.708
0.007771721726428928,1.709
0.00772069792026592,1.71
0.007670615386279092,1.711
0.007621443085488462,1.712
0.007573148975479835,1.713
0.007525700433716318,1.714
0.007479064315558419,1.715
0.007433206752455308,1.716
0.007388092831319741,1.717
0.0073436863135375235,1.718
0.007299949539171394,1.719
0.007256843607105855,1.72
0.007214328829633599,1.721
0.007172365359057071,1.722
0.007130913814056663,1.723
0.0070899357159029865,1.724
0.00704939356652138,1.725
0.00700925043689628,1.726
0.0069694689779151555,1.727
0.006930009826866184,1.728
0.006890829808929119,1.729
0.006851881117627013,1.73
0.006813112359123101,1.731
0.0067744708390195165,1.732
0.0067359049026918865,1.733
0.00669736576297634,1.734
0.006658808700910083,1.735
0.0066201936556204545,1.736
0.00658148532192153,1.737
0.00654265293983652,1.738
0.00650366996955223,1.739
0.006464513799304252,1.74
0.006425165552702272,1.741
0.0063856099715298275,1.742
0.006345835271045106,1.743
0.006305832816377404,1.744
0.006265596469210372,1.745
0.00622512150896717,1.746
0.0061844031222659645,1.747
0.0061434345696393345,1.748
0.006102205490729151,1.749
0.006060701253049338,1.75
0.006018903793680449,1.751
0.0059767932890697605,1.752
0.005934349771626827,1.753
0.005891554365393125,1.754
0.005848390112892201,1.755
0.005804842434454627,1.756
0.0057608993296454905,1.757
0.005716551468095594,1.758
0.005671792311347295,1.759
0.005626618364320958,1.76
0.005581029587743822,1.761
0.005535029927282032,1.762
0.005488627849716012,1.763
0.005441836735673881,1.764
0.005394674965699329,1.765
0.005347165546977164,1.766
0.005299335159428993,1.767
0.005251212559029939,1.768
0.005202826456093911,1.769
0.005154203574603112,1.77
0.005105368176592949,1.771
0.0050563435989328985,1.772
0.0050071548653358175,1.773
0.004957831181066272,1.774
0.004908407795649063,1.775
0.004858927069642499,1.776
0.004809438669088903,1.777
0.004759998925224736,1.778
0.004710669508073984,1.779
0.004661515642199005,1.78
0.00461260412354299,1.781
0.004564001375996984,1.782
0.004515771764482477,1.783
0.004467976424978355,1.784
0.004420672812668394,1.785
0.004373914802313068,1.786
0.004327752874843318,1.787
0.004282234091622751,1.788
0.004237401891201119,1.789
0.004193295910489778,1.79
0.004149952012258252,1.791
0.004107402523151899,1.792
0.004065676538492119,1.793
0.004024800166195332,1.794
0.003984796636955372,1.795
0.003945686216280386,1.796
0.003907485969707419,1.797
0.0038702097032911587,1.798
0.003833868391528702,1.799
0.003798470992609655,1.8
0.0037640253322892615,1.801
0.003730538873745304,1.802
0.0036980193238500417,1.803
0.003666475067713967,1.804
0.0036359154381085,1.805
0.003606350821075918,1.806
0.0035777925799330397,1.807
0.003550252764623058,1.808
0.0035237435849018663,1.809
0.0034982766721629,1.81
0.003473862217371458,1.811
0.003450508148841381,1.812
0.0034282195692276166,1.813
0.0034069985493511683,1.814
0.003386844112957826,1.815
0.0033677522025156808,1.816
0.0033497156315723566,1.817
0.003332724100992904,1.818
0.0033167642392045484,1.819
0.003301819662991378,1.82
0.0032878711942846335,1.821
0.0032748973060739133,1.822
0.003262874692483296,1.823
0.0032517787919305063,1.824
0.003241584124329874,1.825
0.0032322643603227307,1.826
0.003223792112932896,1.827
0.0032161385086182997,1.828
0.003209272644200608,1.829
0.0032031611130176256,1.83
0.003197767816469473,1.831
0.0031930540693829615,1.832
0.0031889787147643435,1.833
0.0031854980699303126,1.834
0.003182566011756677,1.835
0.003180134659572104,1.836
0.0031781556913575456,1.837
0.0031765819828595116,1.838
0.003175369273412049,1.839
0.003174477629512667,1.84
0.00317387249377953,1.841
0.0031735251356683385,1.842
0.0031734123734363656,1.843
0.003173515516212715,1.844
0.0031738185743706167,1.845
0.0031743061627925373,1.846
0.003174962215109777,1.847
0.003175770462740889,1.848
0.003176716272626829,1.849
0.003177788683051333,1.85
0.003178981947961268,1.851
0.0031802964287301213,1.852
0.0031817388308721197,1.853
0.003183321842510213,1.854
0.0031850632868926886,1.855
0.0031869849439531933,1.856
0.0031891112142643425,1.857
0.0031914677901019616,1.858
0.003194080466804223,1.859
0.0031969741753620166,1.86
0.0032001722459192626,1.861
0.0032036958478534254,1.862
0.003207563609157685,1.863
0.0032117915966401542,1.864
0.0032163938143812917,1.865
0.003221383097264438,1.866
0.0032267721407010924,1.867
0.0032325744749952313,1.868
0.0032388052370430874,1.869
0.0032454816041791127,1.87
0.003252622793070951,1.871
0.0032602495928563987,1.872
0.0032683834893916276,1.873
0.003277045528271686,1.874
0.003286255168994851,1.875
0.003296029454377407,1.876
0.003306382635739461,1.877
0.0033173260746655543,1.878
0.003328868293835168,1.879
0.0033410152761249624,1.88
0.0033537709834209816,1.881
0.003367137849963335,1.882
0.003381117045283989,1.883
0.0033957084380645416,1.884
0.0034109102842852044,1.885
0.0034267187224659447,1.886
0.0034431272525279155,1.887
0.0034601264760464076,1.888
0.0034777042237400424,1.889
0.0034958458708341487,1.89
0.00351453459413578,1.891
0.0035337515153697125,1.892
0.0035534757907883185,1.893
0.0035736847342365823,1.894
0.003594354054099362,1.895
0.0036154582383404344,1.896
0.0036369710537603487,1.897
0.003658866067181797,1.898
0.0036811170721170704,1.899
0.0037036983203788984,1.9
0.0037265845043676226,1.901
0.0037497504953589275,1.902
0.003773170897014612,1.903
0.003796819503376165,1.904
0.0038206687439782915,1.905
0.003844689157133421,1.906
0.0038688488783865964,1.907
0.003893113152105272,1.908
0.003917444029502828,1.909
0.003941800480846325,1.91
0.003966138931538665,1.911
0.003990414019961415,1.912
0.004014579408237986,1.913
0.0040385885755177785,1.914
0.004062395549472555,1.915
0.00408595553619986,1.916
0.0041092254229686195,1.917
0.004132164136631227,1.918
0.004154732829468415,1.919
0.00417689484253919,1.92
0.004198615392022694,1.921
0.0042198609578069455,1.922
0.004240598421415857,1.923
0.004260794075661496,1.924
0.004280412678824583,1.925
0.0042994167290069,1.926
0.0043177660837814364,1.927
0.004335417956553174,1.928
0.004352327204367152,1.929
0.004368446707652968,1.93
0.004383727559699174,1.931
0.004398118801004547,1.932
0.004411566876633621,1.933
0.004424015771659326,1.934
0.004435408648453205,1.935
0.0044456906395133845,1.936
0.0044548118837068685,1.937
0.0044627302035483585,1.938
0.004469413085567076,1.939
0.004474838729850738,1.94
0.004478996050329219,1.941
0.004481883621753754,1.942
0.004483507679113094,1.943
0.004483879375262361,1.944
0.0044830116624811865,1.945
0.004480916642850502,1.946
0.00447760461597221,1.947
0.004473085158101976,1.948
0.004467369123374503,1.949
0.004460470401419024,1.95
0.00445240710336919,1.951
0.004443202235861883,1.952
0.004432883959142573,1.953
0.004421485532485067,1.954
0.004409045026465735,1.955
0.004395604843709039,1.956
0.004381211065867014,1.957
0.0043659126514957085,1.958
0.004349760537330487,1.959
0.00433280671984578,1.96
0.0043151033971865075,1.961
0.0042967022283968495,1.962
0.004277653718796697,1.963
0.004258006676823397,1.964
0.004237807633258815,1.965
0.004217100227078818,1.966
0.0041959249111577545,1.967
0.0041743193900338725,1.968
0.004152319698516606,1.969
0.0041299614638135125,1.97
0.004107281020687896,1.971
0.00408431625950675,1.972
0.004061107175830964,1.973
0.004037696121436927,1.974
0.0040141277591804895,1.975
0.0039904487133496916,1.976
0.0039667069023664086,1.977
0.003942950555565943,1.978
0.0039192269660382785,1.979
0.003895581270862019,1.98
0.003872055872108705,1.981
0.003848690788494583,1.982
0.0038255244269280765,1.983
0.0038025941403699547,1.984
0.0037799363981627534,1.985
0.0037575866449877262,1.986
0.0037355789584056793,1.987
0.0037139456207888892,1.988
0.003692716710942311,1.989
0.0036719197987429577,1.99
0.003651579788078541,1.991
0.003631718900204308,1.992
0.0036123567369828347,1.993
0.003593510328775073,1.994
0.0035751940601808983,1.995
0.003557419474543113,1.996
0.003540195232401776,1.997
0.0035235275566060393,1.998
0.0035074211246083472,1.999
0.0034918800583731147,2.0
0.0034769086892312852,2.001
0.003462511902382731,2.002
0.003448694981905498,2.003
0.003435462999926848,2.004
0.003422819890046372,2.005
0.003410767508869456,2.006
0.0033993051996104077,2.007
0.0033884301394459036,2.008
0.0033781381715364124,2.009
0.0033684247045336468,2.01
0.003359285533532936,2.011
0.0033507175362788716,2.012
0.0033427191604462054,2.013
0.003335290608034599,2.014
0.0033284336551093635,2.015
0.003322151111488663,2.016
0.0033164459975329754,2.017
0.0033113205628516147,2.018
0.0033067753234804036,2.019
0.0033028083869059053,2.02
0.0032994152842196357,2.021
0.0032965892051751594,2.022
0.003294321290614746,2.023
0.0032926007473419996,2.024
0.0032914147584373683,2.025
0.003290748257556908,2.026
0.003290583678055617,2.027
0.003290900822302376,2.028
0.003291677003229045,2.029
0.003292887563062763,2.03
0.003294506765336272,2.031
0.003296508916236084,2.032
0.003298869460646585,2.033
0.003301565770861724,2.034
0.0033045774143607987,2.035
0.0033078858187236904,2.036
0.0033114733958953656,2.037
0.0033153223046630273,2.038
0.003319413183817674,2.039
0.0033237243275239664,2.04
0.0033282314878359223,2.041
0.0033329079059215283,2.042
0.0033377241999626548,2.043
0.0033426483638238588,2.044
0.0033476462578260805,2.045
0.003352682449806126,2.046
0.00335772097998765,2.047
0.0033627257427899003,2.048
0.0033676602861796344,2.049
0.0033724871089742077,2.05
0.003377167226857364,2.051
0.00338166099210171,2.052
0.0033859302419981634,2.053
0.003389940972021078,2.054
0.0033936657637726802,2.055
0.0033970855394277796,2.056
0.0034001904023763024,2.057
0.0034029794557102087,2.058
0.0034054596256053917,2.059
0.0034076436463303284,2.06
0.0034095474787376977,2.061
0.003411187694556815,2.062
0.0034125797573677326,2.063
0.0034137378316094332,2.064
0.0034146756121037846,2.065
0.0034154071381662992,2.066
0.003415947083903981,2.067
0.0034163105603605875,2.068
0.0034165126097008493,2.069
0.00341656757344448,2.07
0.0034164885041070413,2.071
0.003416286769750886,2.072
0.0034159719625488395,2.073
0.0034155521554142,2.074
0.003415034461902079,2.075
0.0034144257684754703,2.076
0.003413733456655432,2.077
0.003412965939408843,2.078
0.0034121329041470173,2.079
0.003411245258629653,2.08
0.003410314870127661,2.081
0.003409354233511197,2.082
0.0034083761936029694,2.083
0.003407393800584443,2.084
0.0034064203154503345,2.085
0.0034054693183692554,2.086
0.0034045548184682504,2.087
0.003403691232678087,2.088
0.003402893102513289,2.089
0.003402174451174311,2.09
0.0034015478976308113,2.091
0.0034010240955037745,2.092
0.0034006120921661795,2.093
0.003400320469457857,2.094
0.0034001585850502456,2.095
0.0034001374239659003,2.096
0.0034002699290067106,2.097
0.0034005708563599603,2.098
0.0034010562753139565,2.099
0.0034017428548242527,2.1
0.003402647079446307,2.101
0.0034037845315879446,2.102
0.0034051693545382156,2.103
0.003406813948097107,2.104
0.0034087288514715857,2.105
0.0034109226812083842,2.106
0.003413401965337998,2.107
0.003416170826087314,2.108
0.0034192307273968603,2.109
0.0034225806016552067,2.11
0.0034262173546521875,2.111
0.003430136418144696,2.112
0.0034343320499187696,2.113
0.0034387972641380937,2.114
0.003443523391607025,2.115
0.003448499483653904,2.116
0.003453712095979877,2.117
0.0034591458333669833,2.118
0.003464784402917141,2.119
0.0034706116877740874,2.12
0.0034766125744764213,2.121
0.0034827734114885774,2.122
0.00348908202462728,2.123
0.003495527285964902,2.124
0.003502098313247479,2.125
0.0035087834540050425,2.126
0.003515569264692322,2.127
0.003522439703102838,2.128
0.003529375688769879,2.129
0.0035363550589176626,2.13
0.0035433528044610993,2.131
0.003550341372294361,2.132
0.0035572908007366947,2.133
0.0035641685941488134,2.134
0.0035709396076911,2.135
0.0035775664501183106,2.136
0.0035840106065335876,2.137
0.003590234018109588,2.138
0.003596200765249811,2.139
0.0036018786178943565,2.14
0.0036072402734194904,2.141
0.0036122641349362362,2.142
0.0036169345412183987,2.143
0.003621241430574491,2.144
0.0036251794911878995,2.145
0.003628746910166408,2.146
0.003631943872625923,2.147
0.003634770970474681,2.148
0.003637227699576503,2.149
0.0036393113571062336,2.15
0.0036410167288264553,2.151
0.0036423366131069276,2.152
0.0036432627763799586,2.153
0.0036437869543040563,2.154
0.0036439017666024575,2.155
0.0036436015002805663,2.156
0.0036428827165957476,2.157
0.0036417446563241818,2.158
0.003640189439748428,2.159
0.003638222076020043,2.16
0.0036358503121244716,2.161
0.0036330843613603223,2.162
0.0036299365511426166,2.163
0.0036264209267365113,2.164
0.003622552851389397,2.165
0.0036183486499589534,2.166
0.003613825335236732,2.167
0.0036090004233411133,2.168
0.0036038917961012866,2.169
0.0035985175282336377,2.17
0.003592895587089057,2.171
0.0035870433372895984,2.172
0.003580976829027548,2.173
0.0035747100024784493,2.174
0.003568254212598231,2.175
0.003561618429140316,2.176
0.0035548099691267813,2.177
0.0035478353434833243,2.178
0.003540700976704613,2.179
0.0035334137565479337,2.18
0.0035259814327404434,2.181
0.0035184129054035905,2.182
0.0035107184539103567,2.183
0.003502909948132889,2.184
0.0034950010558666904,2.185
0.0034870074243624326,2.186
0.0034789467858685717,2.187
0.003470838924748194,2.188
0.003462705449098621,2.189
0.003454569334210374,2.19
0.003446454244545952,2.191
0.0034383836802099484,2.192
0.003430380014171825,2.193
0.0034224635867153783,2.194
0.003414652234069704,2.195
0.003406961535434382,2.196
0.0033994055867440855,2.197
0.003391997891694497,2.198
0.0033847521322937675,2.199
0.003377682722481564,2.2
0.0033708050796380385,2.201
0.0033641355756758307,2.202
0.0033576911652841335,2.203
0.003351488725172718,2.204
0.0033455441693793692,2.205
0.003339871535471721,2.206
0.0033344824643830938,2.207
0.003329386364877353,2.208
0.0033245910201443116,2.209
0.003320103183165284,2.21
0.0033159289366787178,2.211
0.0033120737754629807,2.212
0.0033085424112796447,2.213
0.0033053383286803504,2.214
0.003302463172358356,2.215
0.003299916178179064,2.216
0.0032976939685183046,2.217
0.0032957908274899167,2.218
0.0032941992193587597,2.219
0.0032929102865695025,2.22
0.0032919142522296685,2.221
0.0032912007307537004,2.222
0.0032907589482413556,2.223
0.0032905778790466083,2.224
0.0032906463188788894,2.225
0.0032909529300705442,2.226
0.0032914863008076376,2.227
0.0032922350516846935,2.228
0.003293188000704135,2.229
0.003294334366187567,2.23
0.0032956639528135758,2.231
0.003297167237986372,2.232
0.003298835264012284,2.233
0.0033006592561773216,2.234
0.0033026299320902106,2.235
0.003304736616235199,2.236
0.003306966569426163,2.237
0.003309305011727051,2.238
0.0033117358570423695,2.239
0.0033142427451737385,2.24
0.003316810038170762,2.241
0.0033194236756191385,2.242
0.003322071831811545,2.243
0.0033247452917180248,2.244
0.003327437467011519,2.245
0.003330144017147323,2.246
0.003332862107839944,2.247
0.0033355893974869573,2.248
0.0033383228653743485,2.249
0.00334105771284528,2.25
0.003343786790584914,2.251
0.0033465008053745657,2.252
0.003349188942616006,2.253
0.0033518393548336513,2.254
0.0033544392607346247,2.255
0.003356974603415449,2.256
0.0033594294327917253,2.257
0.0033617855770708437,2.258
0.0033640231200386898,2.259
0.003366121508763996,2.26
0.0033680607110685703,2.261
0.0033698220421463855,2.262
0.0033713885345810577,2.263
0.0033727448457518154,2.264
0.003373876764974596,2.265
0.0033747704086244095,2.266
0.003375411183738973,2.267
0.0033757827500536146,2.268
0.0033758665491049086,2.269
0.0033756423223818364,2.27
0.0033750893308434823,2.271
0.003374187715711982,2.272
0.0033729197193092544,2.273
0.003371270677099118,2.274
0.0033692297379114204,2.275
0.003366790306553763,2.276
0.0033639502255846895,2.277
0.003360711720809592,2.278
0.003357081135715705,2.279
0.003353068477424748,2.28
0.003348686791706492,2.281
0.003343951380840767,2.282
0.0033388788803505143,2.283
0.003333486217927268,2.284
0.0033277894842406648,2.285
0.0033218029034160065,2.286
0.0033155384004699908,2.287
0.003309006097665739,2.288
0.003302215431261848,2.289
0.0032951764045397614,2.29
0.0032879007817290516,2.291
0.003280403151907945,2.292
0.0032727017583897787,2.293
0.0032648189726205887,2.294
0.003256781309185197,2.295
0.003248618934253403,2.296
0.003240364704799711,2.297
0.003232052870438895,2.298
0.0032237176448887852,2.299
0.0032153918925008724,2.3
0.003207106171718658,2.301
0.0031988882528242012,2.302
0.003190762981091741,2.303
0.003182752276896138,2.304
0.0031748752135112393,2.305
0.0031671481442494195,2.306
0.003159584754022697,2.307
0.003152196009977724,2.308
0.003144990238036378,2.309
0.003137973544846439,2.31
0.003131150505900772,2.311
0.003124524880816312,2.312
0.0031181001836018555,2.313
0.0031118800123233125,2.314
0.0031058680987780295,2.315
0.0031000681064954376,2.316
0.0030944832611360597,2.317
0.003089115920425163,2.318
0.003083967174073246,2.319
0.0030790365163341537,2.32
0.003074321575975632,2.321
0.003069817846814963,2.322
0.003065518405910844,2.323
0.0030614137600927897,2.324
0.003057492002029376,2.325
0.0030537392553621197,2.326
0.0030501402299387007,2.327
0.003046678756897279,2.328
0.003043338254595507,2.329
0.0030401020947374525,2.33
0.0030369538357845525,2.331
0.0030338772912411427,2.332
0.0030308564017929415,2.333
0.0030278748797108535,2.334
0.003024915596214109,2.335
0.003021959845044446,2.336
0.003018986975334334,2.337
0.003015974840057378,2.338
0.0030129008833161834,2.339
0.003009743357176429,2.34
0.0030064823620626073,2.341
0.003003100606537448,2.342
0.0029995838420742178,2.343
0.0029959209623887997,2.344
0.0029921037849608254,2.345
0.002988126552264328,2.346
0.0029839852025672414,2.347
0.0029796764662942924,2.348
0.002975196844023763,2.349
0.002970541599082847,2.35
0.002965704104242581,2.351
0.002960675880890364,2.352
0.002955447243834608,2.353
0.0029500081357985296,2.354
0.0029443488514348365,2.355
0.002938460572615774,2.356
0.0029323357259506753,2.357
0.002925968195026746,2.358
0.002919353416353579,2.359
0.0029124883656133633,2.36
0.0029053714245453103,2.361
0.0028980021307167254,2.362
0.002890380849740361,2.363
0.002882508443483458,2.364
0.0028743860068416362,2.365
0.002866014701118415,2.366
0.002857395643853723,2.367
0.0028485297562334953,2.368
0.002839417447608643,2.369
0.002830058070259971,2.37
0.0028204493360810385,2.371
0.0028105872175633972,2.372
0.0028004666584137946,2.373
0.002790082804967632,2.374
0.0027794322935576965,2.375
0.0027685143726478767,2.376
0.002757331773254413,2.377
0.0027458912555447606,2.378
0.0027342037758454184,2.379
0.0027222842408233896,2.38
0.002710150843338083,2.381
0.0026978240048324397,2.382
0.002685324983884294,2.383
0.002672674459227127,2.384
0.0026598918258679814,2.385
0.002646995654218052,2.386
0.0026340047787850964,2.387
0.0026209392053606526,2.388
0.00260782051918455,2.389
0.002594671817100703,2.39
0.002581517287194384,2.391
0.0025683816017670357,2.392
0.002555289273127644,2.393
0.002542264072434748,2.394
0.002529328567135975,2.395
0.002516503809242502,2.396
0.002503809195514774,2.397
0.0024912625031990555,2.398
0.0024788800709902832,2.399
0.0024666770518930376,2.4
0.002454667634111479,2.401
0.002442865126541396,2.402
0.0024312818392725638,2.403
0.0024199287591019076,2.404
0.0024088151771254926,2.405
0.0023979485818329334,2.406
0.0023873349738632583,2.407
0.0023769793985225296,2.408
0.0023668864177832797,2.409
0.0023570604141619307,2.41
0.002347505724943418,2.411
0.002338226643825249,2.412
0.002329227358200468,2.413
0.002320511898886744,2.414
0.0023120841565691156,2.415
0.0023039479734356613,2.416
0.0022961072707105325,2.417
0.002288566144581625,2.418
0.0022813288648271357,2.419
0.002274399736800642,2.42
0.0022677828198131994,2.421
0.002261481514262418,2.422
0.0022554980722027185,2.423
0.002249833226533376,2.424
0.00224448622698488,2.425
0.0022394553612159703,2.426
0.0022347387360147617,2.427
0.0022303350650871817,2.428
0.0022262443349860012,2.429
0.002222468271424709,2.43
0.0022190105347772815,2.431
0.002215876596406711,2.432
0.0022130732894777593,2.433
0.0022106080803975235,2.434
0.002208488169953871,2.435
0.0022067196804876166,2.436
0.0022053073199863743,2.437
0.0022042546593291517,2.438
0.002203564699602843,2.439
0.0022032403700155147,2.44
0.0022032848602012707,2.441
0.002203701816682853,2.442
0.0022044954415846446,2.443
0.0022056705234937742,2.444
0.0022072324064609994,2.445
0.00220918687370498,2.446
0.002211539901219609,2.447
0.0022142972326157475,2.448
0.0022174638077086255,2.449
0.0022210433181748587,2.45
0.0022250382898159776,2.451
0.0022294507564990292,2.452
0.0022342831602627116,2.453
0.0022395390909646174,2.454
0.002245223673894726,2.455
0.0022513435260922026,2.456
0.0022579062691249147,2.457
0.0022649196644183773,2.458
0.002272390650065019,2.459
0.0022803248466492267,2.46
0.0022887268344116813,2.461
0.0022976007841916442,2.462
0.0023069508688198866,2.463
0.002316781265479508,2.464
0.0023270958023574287,2.465
0.0023378973737528627,2.466
0.0023491873362161595,2.467
0.002360965164640514,2.468
0.002373228462477823,2.469
0.002385973104012212,2.47
0.0023991932681755915,2.471
0.0024128813193440304,2.472
0.0024270276382068407,2.473
0.0024416206089840093,2.474
0.0024566469146843745,2.475
0.002472092085866764,2.476
0.002487941161319472,2.477
0.002504179361694747,2.478
0.0025207926871583957,2.479
0.0025377683301215973,2.48
0.0025550947928915553,2.481
0.002572761626741142,2.482
0.0025907587643036302,2.483
0.002609075589455368,2.484
0.002627700225782497,2.485
0.002646619574213167,2.486
0.0026658200611467038,2.487
0.002685288550392571,2.488
0.002705012986263677,2.489
0.0027249826579467647,2.49
0.0027451881287324223,2.491
0.0027656209208717273,2.492
0.0027862730549651905,2.493
0.0028071365188395083,2.494
0.0028282027069647694,2.495
0.0028494618500635093,2.496
0.002870902453566404,2.497
0.0028925108114038586,2.498
0.0029142707362055506,2.499
0.0029361635806718907,2.5
0.0029581684456790307,2.501
0.0029802624483368356,2.502
0.003002421034822626,2.503
0.0030246183630733693,2.504
0.0030468277469855136,2.505
0.0030690221171690737,2.506
0.003091174436180041,2.507
0.0031132580143021405,2.508
0.0031352466979682647,2.509
0.0031571149286248436,2.51
0.0031788376745476026,2.511
0.003200390213742525,2.512
0.0032217477076742183,2.513
0.0032428844874854354,2.514
0.003263773223238531,2.515
0.003284384673221713,2.516
0.0033046886001375816,2.517
0.0033246555524579814,2.518
0.0033442588026086155,2.519
0.0033634759905611816,2.52
0.0033822902026746774,2.521
0.0034006902793984814,2.522
0.0034186702592988194,2.523
0.003436228008905139,2.524
0.0034533632248447896,2.525
0.0034700753278877113,2.526
0.003486362259762486,2.527
0.0035022208204659963,2.528
0.003517647960153196,2.529
0.003532642038152866,2.53
0.0035472036358565272,2.531
0.0035613359211924354,2.532
0.0035750446470366997,2.533
0.003588337896610186,2.534
0.0036012256994913004,2.535
0.00361371962876191,2.536
0.0036258324591388275,2.537
0.0036375779255020196,2.538
0.0036489705743917356,2.539
0.003660025652989941,2.54
0.003670758942689285,2.541
0.003681186430422665,2.542
0.003691323727511304,2.543
0.0037011852060699793,2.544
0.0037107830873479293,2.545
0.0037201270989786987,2.546
0.003729225087976783,2.547
0.0037380842071971956,2.548
0.0037467120733011023,2.549
0.0037551176297025766,2.55
0.003763311651022751,2.551
0.0037713068800175917,2.552
0.003779117844208487,2.553
0.003786760440508112,2.554
0.0037942513897562544,2.555
0.00380160764777879,2.556
0.003808845820771948,2.557
0.003815981580024548,2.558
0.0038230290200783096,2.559
0.0038299999710470407,2.56
0.0038369035702533337,2.561
0.0038437465555740172,2.562
0.003850534358277679,2.563
0.0038572725927202936,2.564
0.003863968487095639,2.565
0.0038706319552138874,2.566
0.0038772761114649478,2.567
0.0038839171224256687,2.568
0.003890573394502624,2.569
0.003897264189663126,2.57
0.00390400798491417,2.571
0.003910821316953015,2.572
0.0039177188084916605,2.573
0.003924714193400707,2.574
0.0039318215194622235,2.575
0.003939055967569404,2.576
0.003946434180265792,2.577
0.003953974169381523,2.578
0.00396169491741428,2.579
0.003969615803449079,2.58
0.0039777559785562034,2.581
0.003986133797880386,2.582
0.003994766387816828,2.583
0.004003669378118252,2.584
0.004012856759896349,2.585
0.004022340760849442,2.586
0.004032131588844505,2.587
0.004042236977015006,2.588
0.00405266179009103,2.589
0.004063408225340405,2.59
0.004074476823461104,2.591
0.004085867909635087,2.592
0.0040975829399021455,2.593
0.004109625420314102,2.594
0.004122001201611353,2.595
0.004134718045951329,2.596
0.004147784484905737,2.597
0.004161208251569704,2.598
0.00417499504314277,2.599
0.004189148405606504,2.6
0.004203670636536578,2.601
0.004218563808165234,2.602
0.004233830213675936,2.603
0.004249472089313427,2.604
0.004265490729770465,2.605
0.00428188533575409,2.606
0.00429865227314231,2.607
0.004315785296232326,2.608
0.004333276539794642,2.609
0.0043511176670840545,2.61
0.004369300792528997,2.611
0.004387819059545065,2.612
0.0044066668291333055,2.613
0.004425839475822257,2.614
0.00444533284486202,2.615
0.004465142489853679,2.616
0.004485262863258909,2.617
0.004505686642074738,2.618
0.004526404313040019,2.619
0.0045474040241462645,2.62
0.004568671576902812,2.621
0.004590190343412182,2.622
0.0046119409181200645,2.623
0.004633900653224571,2.624
0.004656043729397804,2.625
0.004678342248759874,2.626
0.0047007680315151994,2.627
0.004723294463260049,2.628
0.0047458979947599105,2.629
0.004768559117893195,2.63
0.004791262754469775,2.631
0.0048139980913806555,2.632
0.004836757953699657,2.633
0.004859537827480663,2.634
0.004882334640662427,2.635
0.004905145403693015,2.636
0.004927965815820852,2.637
0.0049507889559551625,2.638
0.004973604219230607,2.639
0.004996396688468398,2.64
0.005019146960677713,2.641
0.005041831197882666,2.642
0.005064421209644142,2.643
0.00508688460614021,2.644
0.005109185157463277,2.645
0.005131283444976634,2.646
0.005153137798558851,2.647
0.00517470542408998,2.648
0.005195943570987199,2.649
0.005216810588711534,2.65
0.005237266767972003,2.651
0.00525727492900268,2.652
0.005276800773355221,2.653
0.005295813039810966,2.654
0.005314283503111023,2.655
0.00533218684024591,2.656
0.005349500373128231,2.657
0.005366203680804593,2.658
0.005382278056348861,2.659
0.0053977057597330855,2.66
0.00541246899140904,2.661
0.00542654850563969,2.662
0.005439922143479837,2.663
0.00545256428666783,2.664
0.005464446981863846,2.665
0.005475542157501679,2.666
0.005485823881141383,2.667
0.005495270166682562,2.668
0.005503864231763798,2.669
0.00551159521483695,2.67
0.0055184584268842644,2.671
0.005524455231266703,2.672
0.005529592634633316,2.673
0.005533882647134848,2.674
0.0055373414390558545,2.675
0.005539988293943364,2.676
0.005541844349559443,2.677
0.005542931132175352,2.678
0.005543268913644527,2.679
0.005542875112315677,2.68
0.005541763385479872,2.681
0.005539944026577288,2.682
0.005537425499943819,2.683
0.005534216455590003,2.684
0.005530327781362254,2.685
0.005525774490217044,2.686
0.005520577255350713,2.687
0.0055147633901924745,2.688
0.005508367105679753,2.689
0.0055014289627886084,2.69
0.005493994555277114,2.691
0.005486112577483067,2.692
0.005477832526713006,2.693
0.0054692023855873835,2.694
0.005460266808183257,2.695
0.005451066322192731,2.696
0.005441637430922114,2.697
0.00543201285157954,2.698
0.005422221349310767,2.699
0.005412287349103095,2.7
0.005402230865122735,2.701
0.005392067939371811,2.702
0.005381811193543919,2.703
0.00537147001402443,2.704
0.005361050241544393,2.705
0.005350553695206889,2.706
0.0053399782232229935,2.707
0.005329318708377937,2.708
0.005318568777075945,2.709
0.0053077227672114055,2.71
0.005296777718094686,2.711
0.0052857352000581295,2.712
0.005274602723400342,2.713
0.0052633944188868655,2.714
0.005252130711846346,2.715
0.0052408368492998835,2.716
0.005229540366631907,2.717
0.005218268197812266,2.718
0.005207045001573764,2.719
0.005195893704614713,2.72
0.005184837304510193,2.721
0.005173900348488139,2.722
0.005163109459539403,2.723
0.005152492983547076,2.724
0.005142079985705948,2.725
0.005131898844478797,2.726
0.005121975719717747,2.727
0.005112333342294394,2.728
0.005102990623891625,2.729
0.005093963076953363,2.73
0.005085263441538892,2.731
0.005076901976136402,2.732
0.005068886253049024,2.733
0.005061220575765217,2.734
0.00505390546407072,2.735
0.00504693776520848,2.736
0.005040311447458616,2.737
0.0050340185861049835,2.738
0.005028050093686107,2.739
0.005022396060688151,2.74
0.00501704575213,2.741
0.005011987376029069,2.742
0.005007207762298786,2.743
0.005002692066191392,2.744
0.004998423561511629,2.745
0.004994383546331183,2.746
0.00499055136383049,2.747
0.004986904534386377,2.748
0.00498341898349054,2.749
0.004980069324848325,2.75
0.0049768291251635075,2.751
0.004973671050900013,2.752
0.0049705667913786345,2.753
0.004967486671629569,2.754
0.00496439890398396,2.755
0.004961268659204205,2.756
0.004958057626739546,2.757
0.00495472472320943,2.758
0.00495122782827018,2.759
0.004947525941358547,2.76
0.004943581319565257,2.761
0.0049393613392187665,2.762
0.00493483985840363,2.763
0.0049299979055405785,2.764
0.004924823603370346,2.765
0.004919311336967357,2.766
0.004913460269882632,2.767
0.00490727238687205,2.768
0.004900750278011221,2.769
0.0048938950119045066,2.77
0.00488670475379491,2.771
0.0048791746874522895,2.772
0.004871298011286127,2.773
0.0048630672720552945,2.774
0.004854475588692328,2.775
0.004845517707262444,2.776
0.004836190918255717,2.777
0.0048264958436547165,2.778
0.004816437082317552,2.779
0.004806023689226004,2.78
0.0047952694435704915,2.781
0.004784192825397321,2.782
0.004772816588289433,2.783
0.0047611668173659525,2.784
0.004749271413955238,2.785
0.004737158136367345,2.786
0.0047248528670052374,2.787
0.00471237921086828,2.788
0.004699759789152143,2.789
0.004687018325582307,2.79
0.004674181484497143,2.791
0.0046612800407090675,2.792
0.004648349277614033,2.793
0.004635428602755846,2.794
0.004622560480753452,2.795
0.004609788877095021,2.796
0.004597157450919336,2.797
0.004584707842123137,2.798
0.004572478612882624,2.799
0.0045605052420022866,2.8
0.004548820909605904,2.801
0.004537457478359683,2.802
0.004526446336398315,2.803
0.004515819024095875,2.804
0.004505607620268452,2.805
0.004495844885333355,2.806
0.0044865641983308545,2.807
0.004477799345772937,2.808
0.004469584200654931,2.809
0.004461952278961333,2.81
0.0044549361106127104,2.811
0.004448566362155416,2.812
0.004442870917125683,2.813
0.004437874580611736,2.814
0.0044335998644873306,2.815
0.004430068444938029,2.816
0.004427302595963097,2.817
0.004425326257079203,2.818
0.004424165627855989,2.819
0.00442384924297792,2.82
0.0044244075234572775,2.821
0.004425871830894208,2.822
0.004428273095336197,2.823
0.004431640322957476,2.824
0.004435999706782568,2.825
0.004441374876745911,2.826
0.0044477879169836365,2.827
0.004455260368756567,2.828
0.004463813809511949,2.829
0.00447346995300061,2.83
0.004484250334773305,2.831
0.004496175696928081,2.832
0.004509265193344912,2.833
0.00452353550526972,2.834
0.0045390000257687305,2.835
0.004555668471957038,2.836
0.004573547158526411,2.837
0.004592639659599369,2.838
0.004612947383254014,2.839
0.004634469777573037,2.84
0.004657204061516911,2.841
0.004681144581605161,2.842
0.004706282259463252,2.843
0.004732604653717937,2.844
0.004760096610912452,2.845
0.004788741000082845,2.846
0.004818519132687653,2.847
0.004849410759941728,2.848
0.004881393671262649,2.849
0.004914442966583199,2.85
0.0049485302250475965,2.851
0.004983623028085138,2.852
0.005019685130694199,2.853
0.005056677018366888,2.854
0.005094556409786096,2.855
0.0051332785246777386,2.856
0.005172796110984426,2.857
0.005213059247527468,2.858
0.00525401493360817,2.859
0.005295606497178409,2.86
0.005337772991392235,2.861
0.005380448896624283,2.862
0.0054235642194278445,2.863
0.005467044642335291,2.864
0.0055108114191380645,2.865
0.005554781229581929,2.866
0.005598866467091571,2.867
0.005642976079883216,2.868
0.0056870166290270835,2.869
0.005730893163346567,2.87
0.005774509657349414,2.871
0.005817768858463722,2.872
0.005860571465315402,2.873
0.005902814918707775,2.874
0.005944392787620654,2.875
0.005985195660220625,2.876
0.006025113287754682,2.877
0.006064037078361679,2.878
0.006101862362503968,2.879
0.006138490169109031,2.88
0.006173828305534067,2.881
0.006207791551463204,2.882
0.0062403008254192285,2.883
0.006271281287452639,2.884
0.006300659490809606,2.885
0.006328360334193079,2.886
0.006354305616658051,2.887
0.0063784153924049914,2.888
0.006400611106175896,2.889
0.006420818830336263,2.89
0.00643897190746346,2.891
0.006455012847885798,2.892
0.006468894374460538,2.893
0.006480579558890856,2.894
0.006490041062318252,2.895
0.006497259559431403,2.896
0.006502221470502086,2.897
0.00650491614378226,2.898
0.006505332766143795,2.899
0.006503457872391258,2.9
0.00649927481769965,2.901
0.006492765628855,2.902
0.006483914092772466,2.903
0.006472708813295145,2.904
0.0064591457484550405,2.905
0.006443230088702705,2.906
0.006424977370578714,2.907
0.006404413765877813,2.908
0.006381575540590299,2.909
0.006356507736926567,2.91
0.006329262188831068,2.911
0.0062998950250954915,2.912
0.006268463834783705,2.913
0.00623502485286315,2.914
0.006199631035579534,2.915
0.006162331962929944,2.916
0.006123175458323274,2.917
0.006082209872729696,2.918
0.006039486216869995,2.919
0.005995059910093873,2.92
0.005948992101283491,2.921
0.005901350512741943,2.922
0.005852209758018827,2.923
0.005801651095730464,2.924
0.00574976160762493,2.925
0.005696632830724079,2.926
0.00564235892457229,2.927
0.00558703450612068,2.928
0.0055307524541577885,2.929
0.005473602358362943,2.93
0.005415670288679757,2.931
0.005357039743996755,2.932
0.005297792961843393,2.933
0.005238012016753795,2.934
0.005177779622773949,2.935
0.005117179693710029,2.936
0.005056297675059683,2.937
0.004995220623349047,2.938
0.0049340370008818316,2.939
0.004872836179786767,2.94
0.0048117076868593135,2.941
0.004750740244294025,2.942
0.00469002066135879,2.943
0.004629632770970733,2.944
0.0045696569135096465,2.945
0.0045101703254401505,2.946
0.004451248099761926,2.947
0.00439296410046597,2.948
0.004335391505760443,2.949
0.004278602909200124,2.95
0.004222670001944016,2.951
0.00416766291945862,2.952
0.004113649416527531,2.953
0.004060694194935209,2.954
0.004008858749136443,2.955
0.00395820174335255,2.956
0.003908779538639145,2.957
0.0038606465249878138,2.958
0.003813855143623188,2.959
0.0037684555816703278,2.96
0.0037244952952784336,2.961
0.0036820188402807616,2.962
0.0036410683526082485,2.963
0.003601684388721846,2.964
0.003563906603829326,2.965
0.0035277740099520553,2.966
0.0034933247626579515,2.967
0.003460595550470077,2.968
0.003429620945521932,2.969
0.003400433332190784,2.97
0.003373063680595371,2.971
0.003347542726184538,2.972
0.003323901957263616,2.973
0.0033021741182593795,2.974
0.0032823931586151577,2.975
0.0032645936786024152,2.976
0.003248810033576604,2.977
0.0032350753261189804,2.978
0.0032234205216355835,2.979
0.0032138738537927578,2.98
0.0032064605563133794,2.981
0.003201202853353384,2.982
0.0031981201062915897,2.983
0.0031972289992278986,2.984
0.0031985436467370783,2.985
0.0032020755531307577,2.986
0.0032078334726162614,2.987
0.003215823375483993,2.988
0.0032260486681819087,2.989
0.003238510542476946,2.99
0.0032532082133641628,2.991
0.0032701389068002045,2.992
0.003289297597241638,2.993
0.0033106766782998783,2.994
0.0033342658550327055,2.995
0.0033600523238138742,2.996
0.003388020984173119,2.997
0.00341815442216685,2.998
0.0034504326636620795,2.999
0.0034848329775288376,3.0
0.003521330046168611,3.001
0.0035598965056976486,3.002
0.0036005035893702836,3.003
0.0036431216470088623,3.004
0.0036877204362373516,3.005
0.003734269139716342,3.006
0.003782736102438657,3.007
0.0038330883298468127,3.008
0.003885290833261737,3.009
0.003939305946464086,3.01
0.003995092757169954,3.011
0.004052606784593896,3.012
0.004111799978667257,3.013
0.004172621030220336,3.014
0.004235015901231034,3.015
0.004298928445740662,3.016
0.004364301002136641,3.017
0.004431074873256533,3.018
0.004499190642899784,3.019
0.004568588291446455,3.02
0.004639207072412483,3.021
0.004710985107970407,3.022
0.004783858669425989,3.023
0.004857761253594395,3.024
0.004932622915838306,3.025
0.005008370379866011,3.026
0.005084927871347763,3.027
0.0051622181234400825,3.028
0.005240163104017024,3.029
0.005318684297681088,3.03
0.005397702513682712,3.031
0.005477137263415449,3.032
0.0055569058198203245,3.033
0.005636922134327507,3.034
0.005717095839043505,3.035
0.005797331581535851,3.036
0.005877528898586242,3.037
0.005957582723716109,3.038
0.0060373844696040456,3.039
0.006116823492237304,3.04
0.006195788688212594,3.041
0.006274170014729968,3.042
0.00635185981137959,3.043
0.006428753878375413,3.044
0.00650475228767656,3.045
0.006579759878350288,3.046
0.006653686350626376,3.047
0.006726445856549177,3.048
0.006797956006459443,3.049
0.006868136276067324,3.05
0.006936905897435093,3.051
0.007004181540143609,3.052
0.007069875538834597,3.053
0.007133895531354842,3.054
0.007196145539281116,3.055
0.007256527690714891,3.056
0.007314943982241434,3.057
0.007371298044385175,3.058
0.007425497056069524,3.059
0.0074774538925158245,3.06
0.007527089482264791,3.061
0.007574335215923983,3.062
0.007619135129536958,3.063
0.007661447525419205,3.064
0.007701245718956318,3.065
0.007738517694972675,3.066
0.007773264580461662,3.067
0.007805497961802829,3.068
0.007835236186146122,3.069
0.007862499908356928,3.07
0.00788730786587416,3.071
0.007909675007719904,3.072
0.007929614166032028,3.073
0.007947139745641736,3.074
0.007962271308622593,3.075
0.007975036304582083,3.076
0.007985471939630773,3.077
0.007993626259617451,3.078
0.007999558551878483,3.079
0.008003339151156417,3.08
0.008005048703535706,3.081
0.008004776929732177,3.082
0.008002620939032777,3.083
0.00799868315758617,3.084
0.007993068936006186,3.085
0.007985883896662618,3.086
0.007977231187297687,3.087
0.007967209303170986,3.088
0.0079559115743232,3.089
0.0079434276405669,3.09
0.007929845918196626,3.091
0.007915255938609068,3.092
0.00789975010068716,3.093
0.00788342468680042,3.094
0.007866380048779964,3.095
0.007848719959929626,3.096
0.007830550239159746,3.097
0.007811976849135689,3.098
0.007793103714023914,3.099
0.0077740305950814255,3.1
0.007754851633428889,3.101
0.007735655169779001,3.102
0.007716524747085468,3.103
0.007697540566446289,3.104
0.007678780819276349,3.105
0.007660322718230308,3.106
0.007642243185652702,3.107
0.007624619169572763,3.108
0.007607527572947207,3.109
0.007591044799596824,3.11
0.007575245938471615,3.111
0.007560203626068187,3.112
0.007545986647303476,3.113
0.007532658536690844,3.114
0.007520276828722397,3.115
0.007508893422431144,3.116
0.007498555677732269,3.117
0.007489307509970031,3.118
0.007481190098620805,3.119
0.007474242127141339,3.12
0.007468499581141987,3.121
0.0074639952090319915,3.122
0.007460757794217318,3.123
0.007458811388219806,3.124
0.007458174623045298,3.125
0.0074588601837545475,3.126
0.007460874495316833,3.127
0.007464217665081988,3.128
0.00746888371707974,3.129
0.007474861139639159,3.13
0.007482133723025011,3.131
0.007490681586827991,3.132
0.007500482216027222,3.133
0.007511511280967195,3.134
0.007523743033446695,3.135
0.007537150142604011,3.136
0.007551702935573481,3.137
0.0075673681120346,3.138
0.007584107286920406,3.139
0.007601876154018792,3.14
0.007620624786067097,3.141
0.007640298575654968,3.142
0.0076608389784584355,3.143
0.007682183735879552,3.144
0.0077042667004196186,3.145
0.007727017566232201,3.146
0.007750361878396987,3.147
0.007774221664172587,3.148
0.007798516899736852,3.149
0.007823167811126842,3.15
0.007848097740926135,3.151
0.007873236058360334,3.152
0.007898520433426183,3.153
0.007923897791172875,3.154
0.007949323411202832,3.155
0.007974757903062733,3.156
0.008000162912487157,3.157
0.00802549856802757,3.158
0.008050725504122738,3.159
0.008075810569833995,3.16
0.008100732940714747,3.161
0.008125488296339411,3.162
0.00815009010961371,3.163
0.008174567783090309,3.164
0.008198961947083446,3.165
0.008223318108035286,3.166
0.008247681197115674,3.167
0.008272093698772399,3.168
0.008296597176081158,3.169
0.008321234216632445,3.17
0.008346048544730283,3.171
0.008371083184920325,3.172
0.008396377735958251,3.173
0.008421966360507223,3.174
0.008447877477405085,3.175
0.008474134404889736,3.176
0.008500755509283354,3.177
0.008527753484130152,3.178
0.00855513480066219,3.179
0.008582900550100974,3.18
0.008611048677994317,3.181
0.008639576695588801,3.182
0.008668484160995037,3.183
0.008697774629376308,3.184
0.008727456898627708,3.185
0.008757545414174735,3.186
0.008788059738740212,3.187
0.008819023049402986,3.188
0.008850459699613589,3.189
0.008882392146544167,3.19
0.008914838329117568,3.191
0.008947811119617856,3.192
0.00898132025257468,3.193
0.009015375304795997,3.194
0.009049988219585876,3.195
0.009085174862095532,3.196
0.009120955600811066,3.197
0.009157355033860719,3.198
0.009194401057492625,3.199
0.00923212349742391,3.2
0.009270552497300952,3.201
0.009309716806075015,3.202
0.009349642058976648,3.203
0.009390349125960566,3.204
0.009431852604630564,3.205
0.00947415955876977,3.206
0.009517268653868613,3.207
0.009561169818235526,3.208
0.009605844366389569,3.209
0.00965126537717382,3.21
0.009697398219771879,3.211
0.009744201259703896,3.212
0.009791626776035407,3.213
0.00983962206029858,3.214
0.00988813061625672,3.215
0.009937093339552665,3.216
0.009986449526317007,3.217
0.010036137543328025,3.218
0.010086095002285663,3.219
0.01013625832945556,3.22
0.010186561701184815,3.221
0.010236935396858805,3.222
0.010287303811039681,3.223
0.010337583862487782,3.224
0.01038768480613954,3.225
0.01043750967498285,3.226
0.01048695757310211,3.227
0.010535926070709392,3.228
0.01058431346394948,3.229
0.010632020778441898,3.23
0.01067895323977589,3.231
0.01072502077321295,3.232
0.010770137011710663,3.233
0.0108142163763339,3.234
0.01085717018811659,3.235
0.010898905412054394,3.236
0.010939328873739263,3.237
0.010978355114895021,3.238
0.011015914066904654,3.239
0.011051956329546964,3.24
0.01108645514421186,3.241
0.011119404776652993,3.242
0.011150815682129453,3.243
0.011180707312743397,3.244
0.011209100408657306,3.245
0.011236012272519134,3.246
0.01126145768632407,3.247
0.011285454086924607,3.248
0.011308027572793982,3.249
0.011329217760503423,3.25
0.011349080921412265,3.251
0.011367691125867158,3.252
0.01138513925337379,3.253
0.011401530005388849,3.254
0.011416977400005314,3.255
0.011431599489340116,3.256
0.011445513097834786,3.257
0.011458829397164746,3.258
0.011471651276869482,3.259
0.011484073104251126,3.26
0.011496182412929094,3.261
0.011508062552874846,3.262
0.011519795698135393,3.263
0.011531465836540728,3.264
0.011543161217452285,3.265
0.0115549756597886,3.266
0.011567008297776248,3.267
0.011579361687969173,3.268
0.011592138574373684,3.269
0.011605437974475498,3.27
0.011619351795333742,3.271
0.011633963371617427,3.272
0.01164934802319927,3.273
0.011665574118954468,3.274
0.011682703310397335,3.275
0.011700789730652096,3.276
0.011719878660474742,3.277
0.011740005608338018,3.278
0.011761196463789318,3.279
0.011783468252303572,3.28
0.011806829474609124,3.281
0.011831279663278202,3.282
0.011856808931769713,3.283
0.011883398770579806,3.284
0.011911024429009966,3.285
0.011939658041385462,3.286
0.01196927149902639,3.287
0.011999838449628842,3.288
0.012031335075356494,3.289
0.012063739554824324,3.29
0.01209703042251343,3.291
0.012131184276268086,3.292
0.012166173319529627,3.293
0.012201963006800378,3.294
0.012238510070214963,3.295
0.012275761916142288,3.296
0.012313658585965753,3.297
0.012352137235699381,3.298
0.012391137899041964,3.299
0.012430609103132628,3.3
0.012470512063416562,3.301
0.012510822504315849,3.302
0.012551529734098808,3.303
0.012592633234823883,3.304
0.012634137490523714,3.305
0.012676046040461764,3.306
0.0127183562929721,3.307
0.012761057135545716,3.308
0.012804129927134969,3.309
0.012847551049298463,3.31
0.012891294143792668,3.311
0.012935331667593438,3.312
0.012979636008623932,3.313
0.01302418031337449,3.314
0.013068939031014516,3.315
0.013113888027612942,3.316
0.013159004023777256,3.317
0.01320426310226581,3.318
0.013249638135715594,3.319
0.013295095554649571,3.32
0.0133405930474777,3.321
0.013386079862362963,3.322
0.013431499370712722,3.323
0.01347679198759818,3.324
0.013521897110446848,3.325
0.013566753835582566,3.326
0.013611300649552646,3.327
0.013655474332808754,3.328
0.013699208222488593,3.329
0.013742429843220397,3.33
0.013785058286864786,3.331
0.013827002885479042,3.332
0.013868164846568777,3.333
0.013908441645488606,3.334
0.013947732570912624,3.335
0.013985944103402806,3.336
0.014022994331173893,3.337
0.014058815788658103,3.338
0.014093356286610488,3.339
0.014126577556223048,3.34
0.014158451767605728,3.341
0.014188956128844684,3.342
0.014218066552706951,3.343
0.014245753439469173,3.344
0.014271983088394639,3.345
0.014296724708499282,3.346
0.014319959617081796,3.347
0.014341689535911861,3.348
0.014361942451755904,3.349
0.01438077517664582,3.35
0.01439827207279291,3.351
0.014414539869324257,3.352
0.014429699079873076,3.353
0.01444387395643619,3.354
0.014457185282598562,3.355
0.014469749724168927,3.356
0.014481684282255212,3.357
0.014493110998932841,3.358
0.014504158855458535,3.359
0.014514962506269465,3.36
0.01452565851631476,3.361
0.014536380173580214,3.362
0.014547252705467096,3.363
0.014558391051501134,3.364
0.014569900443807102,3.365
0.014581877561033761,3.366
0.014594410271416216,3.367
0.014607576076557289,3.368
0.014621440817486729,3.369
0.014636058923726224,3.37
0.014651474853863896,3.371
0.01466772453177845,3.372
0.014684836216283921,3.373
0.01470283092308488,3.374
0.01472172265242736,3.375
0.014741518588608345,3.376
0.014762219333642744,3.377
0.014783819187727497,3.378
0.014806306496927131,3.379
0.01482966409354345,3.38
0.014853869785555852,3.381
0.01487889669100365,3.382
0.014904713029188362,3.383
0.014931280891902907,3.384
0.014958554030156064,3.385
0.014986476189588397,3.386
0.015014982231302888,3.387
0.015044002362578157,3.388
0.015073467493241219,3.389
0.015103313537252675,3.39
0.0151334832820097,3.391
0.01516392495485925,3.392
0.015194587532385997,3.393
0.015225415363354559,3.394
0.015256346724691608,3.395
0.015287317780259954,3.396
0.015318267799541341,3.397
0.015349140829179564,3.398
0.01537988249534272,3.399
0.015410434792895316,3.4
0.015440734727415898,3.401
0.015470719572117674,3.402
0.01550033459776428,3.403
0.015529537624629785,3.404
0.015558297988963661,3.405
0.015586590498668545,3.406
0.015614388694166351,3.407
0.015641664134615894,3.408
0.015668393538966024,3.409
0.015694568035153476,3.41
0.01572019799648688,3.411
0.01574531089926172,3.412
0.015769943291098994,3.413
0.01579413240055872,3.414
0.015817914889934268,3.415
0.0158413340023255,3.416
0.01586444855955179,3.417
0.015887337600805577,3.418
0.015910099136665523,3.419
0.015932844004027613,3.42
0.0159556868728601,3.421
0.01597873815580533,3.422
0.016002101150859628,3.423
0.01602587490716535,3.424
0.016050158481407728,3.425
0.016075052469626733,3.426
0.016100656831875833,3.427
0.016127066249812035,3.428
0.016154365804548272,3.429
0.01618262921765049,3.43
0.01621191881070545,3.431
0.016242285826974207,3.432
0.016273772848682106,3.433
0.01630642001165849,3.434
0.01634027277777176,3.435
0.016375387359338224,3.436
0.016411831486098306,3.437
0.016449680198836972,3.438
0.016489008390806272,3.439
0.01652988398745135,3.44
0.01657236529366944,3.441
0.016616501941908397,3.442
0.016662335999462846,3.443
0.016709901532936597,3.444
0.01675922360619192,3.445
0.016810318242180735,3.446
0.016863194169256638,3.447
0.016917856274147738,3.448
0.01697430995305246,3.449
0.017032565181598153,3.45
0.017092639142825,3.451
0.017154556589303118,3.452
0.01721834764290549,3.453
0.01728404329035957,3.454
0.017351669553228803,3.455
0.017421242547974305,3.456
0.017492767026716493,3.457
0.017566238562893452,3.458
0.017641646738274015,3.459
0.017718976965048993,3.46
0.017798210389043445,3.461
0.017879322222064568,3.462
0.017962279092580705,3.463
0.018047036108320057,3.464
0.018133534297840266,3.465
0.018221698971978288,3.466
0.01831143934820734,3.467
0.018402649553153485,3.468
0.01849521091713545,3.469
0.018588995325027634,3.47
0.018683869262493085,3.471
0.018779698058722774,3.472
0.018876349679220784,3.473
0.018973697297065363,3.474
0.019071619794852352,3.475
0.01916999935627769,3.476
0.019268716187199372,3.477
0.01936764354813599,3.478
0.019466648811836833,3.479
0.019565602449450242,3.48
0.01966439008569745,3.481
0.01976292128173237,3.482
0.01986113145945728,3.483
0.019958975847456713,3.484
0.02005641773035251,3.485
0.02015341855473327,3.486
0.020249937428563635,3.487
0.02034593840053685,3.488
0.02044139678032079,3.489
0.020536298406175768,3.49
0.020630632233657267,3.491
0.020724382096521655,3.492
0.020817524526018413,3.493
0.020910032711423214,3.494
0.021001879707374112,3.495
0.02109303598920349,3.496
0.021183463954964718,3.497
0.021273115990588832,3.498
0.021361938110764197,3.499
0.021449873674458636,3.5
0.021536862067455337,3.501
0.021622835150251044,3.502
0.021707719224645056,3.503
0.021791445162448905,3.504
0.021873960736118834,3.505
0.021955237919532574,3.506
0.02203527209434814,3.507
0.02211407322037314,3.508
0.022191652999234222,3.509
0.02226801782060008,3.51
0.022343174713512243,3.511
0.02241714584084827,3.512
0.02248998210301929,3.513
0.022561770706618547,3.514
0.02263263516325491,3.515
0.022702727537265703,3.516
0.02277221445119812,3.517
0.022841262292607405,3.518
0.022910030561504986,3.519
0.022978676472221397,3.52
0.02304736313317684,3.521
0.02311626266471337,3.522
0.02318555214110712,3.523
0.023255405002378778,3.524
0.0233259836033742,3.525
0.023397437547062784,3.526
0.0234699058981323,3.527
0.023543517452245113,3.528
0.02361838756575662,3.529
0.023694616504959243,3.53
0.023772293095465104,3.531
0.023851500564044555,3.532
0.023932319617891003,3.533
0.024014827365333235,3.534
0.02409909312514345,3.535
0.02418517290584202,3.536
0.024273105003543217,3.537
0.024362908920722483,3.538
0.024454587611383596,3.539
0.024548131012302903,3.54
0.024643519038384826,3.541
0.024740723164143916,3.542
0.024839705910773127,3.543
0.024940417841022817,3.544
0.025042793611654516,3.545
0.02514675117129525,3.546
0.025252196480784247,3.547
0.025359031055861406,3.548
0.025467158149930932,3.549
0.02557648556973197,3.55
0.02568692472112019,3.551
0.025798386184660092,3.552
0.025910772726645243,3.553
0.026023972091191644,3.554
0.02613785377543429,3.555
0.02625227202454861,3.556
0.026367072366893205,3.557
0.026482097928117173,3.558
0.02659719402657872,3.559
0.02671221061945005,3.56
0.026827002205544816,3.561
0.026941425055151763,3.562
0.027055332207052776,3.563
0.027168567427040765,3.564
0.027280959881561526,3.565
0.027392321198110383,3.566
0.02750244573316002,3.567
0.027611113628225766,3.568
0.027718095222149297,3.569
0.02782315500609813,3.57
0.02792605355559217,3.571
0.02802654646505148,3.572
0.02812437988343481,3.573
0.02821928439088546,3.574
0.028310973155220763,3.575
0.02839914977461,3.576
0.02848352430073121,3.577
0.028563832116013058,3.578
0.028639851482135912,3.579
0.028711416344039734,3.58
0.02877842128323147,3.581
0.028840816893501046,3.582
0.028898595974708348,3.583
0.028951772997809315,3.584
0.02900036289565325,3.585
0.029044369605580926,3.586
0.029083789900633514,3.587
0.02911862580338228,3.588
0.02914889637861703,3.589
0.02917464615071811,3.59
0.029195950763404352,3.591
0.029212920439904668,3.592
0.029225701409960315,3.593
0.029234475076432138,3.594
0.029239454438719482,3.595
0.029240877296760594,3.596
0.029238996100092805,3.597
0.029234064983032625,3.598
0.029226327080907312,3.599
0.02921600879154806,3.6
0.029203324609875046,3.601
0.029188487787735227,3.602
0.02917172028060589,3.603
0.0291532595722487,3.604
0.029133361980050787,3.605
0.029112302001205546,3.606
0.029090367323874374,3.607
0.029067849628518435,3.608
0.029045033139768365,3.609
0.029022185723359593,3.61
0.028999556387883162,3.611
0.028977376908272966,3.612
0.02895586188930666,3.613
0.028935205824537135,3.614
0.02891558146170808,3.615
0.02889714278371312,3.616
0.02888003022875482,3.617
0.02886437428291319,3.618
0.028850296339369516,3.619
0.028837907362907582,3.62
0.028827304883702044,3.621
0.028818568901115168,3.622
0.028811758760027884,3.623
0.028806914573005278,3.624
0.028804064686009847,3.625
0.02880323667179004,3.626
0.028804468127717992,3.627
0.02880781462000878,3.628
0.028813352959066455,3.629
0.028821178698765434,3.63
0.028831397700672987,3.631
0.0288441139610129,3.632
0.028859420393730587,3.633
0.028877399724861245,3.634
0.028898134722470076,3.635
0.02892172010932769,3.636
0.028948270108699565,3.637
0.028977919868640272,3.638
0.02901082103430269,3.639
0.029047132556785447,3.64
0.029087008914915526,3.641
0.029130590091272043,3.642
0.029177998445583046,3.643
0.029229343126185595,3.644
0.029284727159331756,3.645
0.029344252745413642,3.646
0.029408023728715597,3.647
0.029476145806229696,3.648
0.02954872524495711,3.649
0.029625866676590378,3.65
0.029707669983378236,3.651
0.029794225763452163,3.652
0.029885609428120425,3.653
0.029981876380278615,3.654
0.03008306189018101,3.655
0.03018918575724646,3.656
0.03030025766805414,3.657
0.030416279551917044,3.658
0.030537243950801988,3.659
0.03066312902920703,3.66
0.030793892406587288,3.661
0.030929467940733854,3.662
0.031069767959531768,3.663
0.031214688631946208,3.664
0.031364114632640966,3.665
0.03151792107133184,3.666
0.03167597170611341,3.667
0.03183811408366096,3.668
0.032004176429083,3.669
0.032173972339361034,3.67
0.03234731325775745,3.671
0.03252402260084677,3.672
0.032703945661819236,3.673
0.03288695260716936,3.674
0.03307293440637781,3.675
0.03326179313326572,3.676
0.03345342881206151,3.677
0.03364772632579509,3.678
0.0338445478956062,3.679
0.034043733694313384,3.68
0.0342451061296633,3.681
0.03444847197433834,3.682
0.03465362089648259,3.683
0.03486032211357775,3.684
0.03506832182305235,3.685
0.0352773439111833,3.686
0.03548709526116765,3.687
0.035697275164729016,3.688
0.0359075865728453,3.689
0.0361177458070344,3.69
0.03632748721361733,3.691
0.036536560143614435,3.692
0.036744717652142204,3.693
0.03695170157602894,3.694
0.037157234626215584,3.695
0.037361024377893834,3.696
0.03756276985219998,3.697
0.037762160332562196,3.698
0.03795886986795113,3.699
0.038152559924029474,3.7
0.03834289437387867,3.701
0.038529556401520164,3.702
0.038712254165797634,3.703
0.03889071105181823,3.704
0.039064650638525746,3.705
0.03923379607744609,3.706
0.03939789100177937,3.707
0.03955672686097501,3.708
0.03971015948771616,3.709
0.039858110338869684,3.71
0.04000055567020092,3.711
0.04013750860074255,3.712
0.04026899838702239,3.713
0.04039505012601702,3.714
0.04051566936967257,3.715
0.0406308376930497,3.716
0.040740520385671476,3.717
0.040844679836524435,3.718
0.04094328777998908,3.719
0.04103633369361724,3.72
0.0411238286115235,3.721
0.04120580406380803,3.722
0.04128230623497673,3.723
0.041353385615529495,3.724
0.04141908344372651,3.725
0.0414794200150279,3.726
0.04153439260310897,3.727
0.04158398477252844,3.728
0.04162817997659633,3.729
0.04166697209326404,3.73
0.041700370578092935,3.731
0.041728400308185754,3.732
0.04175109617322593,3.733
0.04176849199831993,3.734
0.041780606746456256,3.735
0.041787439105363824,3.736
0.04178897973883206,3.737
0.041785235309541556,3.738
0.041776250693939886,3.739
0.04176212038896207,3.74
0.04174298508675956,3.741
0.04171901303420402,3.742
0.04169037397314518,3.743
0.04165722321386314,3.744
0.04161970557313408,3.745
0.04157796725995494,3.746
0.0415321594434909,3.747
0.04148242994049297,3.748
0.04142891044973198,3.749
0.04137171203446545,3.75
0.041310934594819174,3.751
0.04124668133339565,3.752
0.041179065549274876,3.753
0.04110820462078968,3.754
0.041034207432182196,3.755
0.04095717206607965,3.756
0.04087720344626735,3.757
0.04079443984120545,3.758
0.04070907142829451,3.759
0.04062134383807409,3.76
0.04053154711078355,3.761
0.040439993793181646,3.762
0.0403469939771628,3.763
0.040252839205652535,3.764
0.04015780161286424,3.765
0.040062141039051515,3.766
0.03996610907500414,3.767
0.03986994618456298,3.768
0.03977387392501816,3.769
0.03967808721647577,3.77
0.03958275182611096,3.771
0.039488006962385074,3.772
0.03939396737607177,3.773
0.03930072155861611,3.774
0.039208329979998256,3.775
0.03911682971806919,3.776
0.039026246166870164,3.777
0.03893660710944086,3.778
0.038847954591772337,3.779
0.03876035183171732,3.78
0.03867388327161746,3.781
0.038588647121874375,3.782
0.03850474189956672,3.783
0.0384222511233491,3.784
0.038341231955466744,3.785
0.0382617110784997,3.786
0.038183686055736694,3.787
0.038107129526392516,3.788
0.03803199666625763,3.789
0.037958237145629084,3.79
0.03788581000267838,3.791
0.037814696517397994,3.792
0.03774490483419685,3.793
0.0376764617829823,3.794
0.037609395370391464,3.795
0.03754372318454982,3.796
0.03747945799340484,3.797
0.037416621233348386,3.798
0.037355247565509224,3.799
0.03729537552754565,3.8
0.03723703266343523,3.801
0.03718022795807695,3.802
0.0371249552756759,3.803
0.03707119958078274,3.804
0.03701893883398439,3.805
0.036968141769333135,3.806
0.03691876377435911,3.807
0.036870741998191445,3.808
0.03682399038174686,3.809
0.03677839541846249,3.81
0.03673381330120907,3.811
0.03669006833264977,3.812
0.03664695202766369,3.813
0.03660422349720233,3.814
0.036561613055709305,3.815
0.03651883019908508,3.816
0.03647557540916637,3.817
0.03643155461075913,3.818
0.03638649466819588,3.819
0.036340157083863386,3.82
0.036292345715435416,3.821
0.0362429040054673,3.822
0.0361916997777397,3.823
0.03613860563006846,3.824
0.03608349397583247,3.825
0.03602625607584431,3.826
0.035966830802467854,3.827
0.035905224121100705,3.828
0.03584151265248387,3.829
0.03577583309290432,3.83
0.035708361654149375,3.831
0.035639289060249255,3.832
0.03556880004819516,3.833
0.03549706783892409,3.834
0.035424264902318606,3.835
0.03535057955018201,3.836
0.03527622806657068,3.837
0.03520145883247232,3.838
0.035126548130520026,3.839
0.03505178828185564,3.84
0.03497747112834117,3.841
0.034903873997568856,3.842
0.03483125492341337,3.843
0.03475985515273241,3.844
0.034689900736808825,3.845
0.03462159940617728,3.846
0.034555135624501056,3.847
0.034490668150993824,3.848
0.03442833220611698,3.849
0.03436824532633429,3.85
0.034310513860904765,3.851
0.03425523674891354,3.852
0.034202504525708985,3.853
0.03415239363802046,3.854
0.03410495925401688,3.855
0.03406023222523766,3.856
0.03401822253658394,3.857
0.0339789247495819,3.858
0.0339423195406188,3.859
0.03390837013092451,3.86
0.03387701817417171,3.861
0.033848184629961496,3.862
0.03382177476370068,3.863
0.03379768144462101,3.864
0.03377578398157793,3.865
0.033755944887305024,3.866
0.03373800836866133,3.867
0.033721802473425155,3.868
0.03370714383368454,3.869
0.033693841617600744,3.87
0.03368169668964979,3.871
0.03367049595080462,3.872
0.03366001056248622,3.873
0.0336500079057249,3.874
0.03364027587464112,3.875
0.033630650308051395,3.876
0.0336210382727173,3.877
0.03361143284144256,3.878
0.03360191635895785,3.879
0.03359265086376858,3.88
0.0335838564343315,3.881
