VaMe,time
0.0011693409155135947,0.001
0.0013055348564903284,0.002
0.001442084240074002,0.003
0.0015788908996637596,0.004
0.0017158577444424054,0.005
0.0018528883010786312,0.006
0.0019898864270698697,0.007
0.002126757107699191,0.008
0.0022634072357085025,0.009
0.0023997452069168534,0.01
0.002535680674801411,0.011
0.0026711264210440384,0.012
0.0028060016192281885,0.013
0.002940233966547309,0.014
0.0030737591195008625,0.015
0.0032065177997312464,0.016
0.0033384527551045835,0.017
0.003469507983526033,0.018
0.0035996302844681664,0.019
0.003728771150984552,0.02
0.0038568875525148982,0.021
0.003983941433804341,0.022
0.0041098980880171655,0.023
0.004234723856658046,0.024
0.004358384624622116,0.025
0.0044808466826343684,0.026
0.0046020796054500835,0.027
0.004722059167772848,0.028
0.004840768684891106,0.029
0.004958198278427782,0.03
0.005074342377140574,0.031
0.005189196377948493,0.032
0.00530275386852623,0.033
0.005415005466014255,0.034
0.005525938929673951,0.035
0.005635539334107482,0.036
0.005743788717246492,0.037
0.005850665521305829,0.038
0.005956144366428906,0.039
0.006060196505339589,0.04
0.0061627910130531115,0.041
0.0062638964758002435,0.042
0.006363482759544634,0.043
0.006461522423716639,0.044
0.006557991494339115,0.045
0.006652869547724128,0.046
0.006746139268865748,0.047
0.006837785738421492,0.048
0.006927795633565898,0.049
0.007016156347662159,0.05
0.007102854842467998,0.051
0.007187876022384625,0.052
0.007271201070619477,0.053
0.00735280724746489,0.054
0.0074326702162846835,0.055
0.007510768087053701,0.056
0.007587085635741644,0.057
0.0076616177719721935,0.058
0.007734371780161546,0.059
0.007805368023362137,0.06
0.00787463897836831,0.061
0.007942226679595156,0.062
0.008008178863715578,0.063
0.008072544451627101,0.064
0.008135369848966732,0.065
0.008196698004185023,0.066
0.008256570507288584,0.067
0.008315030733879614,0.068
0.008372126023447857,0.069
0.008427908289263743,0.07
0.008482433351932186,0.071
0.008535759651036878,0.072
0.00858794706320697,0.073
0.008639056309220699,0.074
0.008689149018009894,0.075
0.008738288124443307,0.076
0.008786538026124738,0.077
0.008833963862510424,0.078
0.008880629504629122,0.079
0.008926594907245575,0.08
0.008971914901232144,0.081
0.00901664064159432,0.082
0.00906082222864757,0.083
0.009104510457720668,0.084
0.009147757114163246,0.085
0.009190614075288917,0.086
0.009233131581377221,0.087
0.009275356033828229,0.088
0.009317327818645258,0.089
0.00935907991490542,0.09
0.009400637629771901,0.091
0.009442018745552571,0.092
0.009483233323415077,0.093
0.009524283605669523,0.094
0.00956516480003255,0.095
0.009605866444546498,0.096
0.009646373373980423,0.097
0.009686665704047465,0.098
0.00972671782122272,0.099
0.00976649693943288,0.1
0.009805962309536469,0.101
0.009845065673729943,0.102
0.009883752392655784,0.103
0.009921962536260709,0.104
0.009959631880388096,0.105
0.009996692939212376,0.106
0.010033075909794034,0.107
0.010068709119948878,0.108
0.010103518434982917,0.109
0.010137425521651927,0.11
0.01017034617980683,0.111
0.01020219063750502,0.112
0.01023286610269726,0.113
0.010262279893213521,0.114
0.010290341594098428,0.115
0.010316963850462553,0.116
0.010342061992936462,0.117
0.01036555280497276,0.118
0.010387352673946153,0.119
0.01040737515970461,0.12
0.010425528409845971,0.121
0.010441714216820264,0.122
0.010455830487080245,0.123
0.0104677765501501,0.124
0.010477459280303537,0.125
0.010484798464164355,0.126
0.0104897303578468,0.127
0.01049220856688664,0.128
0.010492201731654134,0.129
0.010489688038579845,0.13
0.01048464818776703,0.131
0.010477061096397084,0.132
0.010466905856543186,0.133
0.010454168356726351,0.134
0.01043884831239547,0.135
0.01042096414028076,0.136
0.010400554835418954,0.137
0.010377678583906568,0.138
0.010352408347228793,0.139
0.010324825243245305,0.14
0.010295011407113894,0.141
0.01026304500821172,0.142
0.010228999207646,0.143
0.010192943805864071,0.144
0.010154946926044,0.145
0.01011507555249952,0.146
0.01007339530450246,0.147
0.010029970213646204,0.148
0.009984863139596768,0.149
0.009938137130637605,0.15
0.00988985753598467,0.151
0.009840094143281013,0.152
0.009788922310080972,0.153
0.009736422207848568,0.154
0.009682675876802134,0.155
0.0096277631294283,0.156
0.009571759035401852,0.157
0.009514734888310429,0.158
0.009456761229792854,0.159
0.009397910259351001,0.16
0.00933825639185404,0.161
0.009277874872024229,0.162
0.009216838996905822,0.163
0.009155217604720942,0.164
0.00909307480920295,0.165
0.009030472023451218,0.166
0.008967470210501809,0.167
0.00890413050436875,0.168
0.008840512742912395,0.169
0.008776672978418007,0.17
0.008712662421933609,0.171
0.008648529239400148,0.172
0.008584321710786,0.173
0.008520090587735382,0.174
0.008455889901484395,0.175
0.008391776279721545,0.176
0.00832780693326804,0.177
0.008264036853302927,0.178
0.008200516634577236,0.179
0.008137292285724325,0.18
0.008074406506204033,0.181
0.008011899482330293,0.182
0.007949808174601445,0.183
0.007888165124239321,0.184
0.007826998664091573,0.185
0.0077663349559543154,0.186
0.007706200367592793,0.187
0.00764662262497096,0.188
0.007587630132301279,0.189
0.007529249882857413,0.19
0.0074715058296185854,0.191
0.0074144198096267565,0.192
0.007358014794530788,0.193
0.007302318196044269,0.194
0.00724736342721857,0.195
0.007193189354925743,0.196
0.007139838185981364,0.197
0.0070873527093396884,0.198
0.007035773790285791,0.199
0.006985138688463373,0.2
0.006935480366536504,0.201
0.006886827624996272,0.202
0.0068392056888136035,0.203
0.006792636787058408,0.204
0.006747140309103514,0.205
0.006702732271015057,0.206
0.006659424323002465,0.207
0.006617223334918733,0.208
0.006576132450831583,0.209
0.006536153208369751,0.21
0.006497287690861369,0.211
0.006459540083966399,0.212
0.006422917383738486,0.213
0.00638742920580311,0.214
0.006353086893425801,0.215
0.00631990234659383,0.216
0.006287887072427299,0.217
0.006257051795443181,0.218
0.006227406575499701,0.219
0.006198960928608462,0.22
0.006171723202345249,0.221
0.006145699209979518,0.222
0.00612089181562609,0.223
0.006097302982811626,0.224
0.006074937235173185,0.225
0.006053804319202934,0.226
0.006033919902462661,0.227
0.006015304182579254,0.228
0.00599797893285823,0.229
0.005981964304698646,0.23
0.00596727708051163,0.231
0.005953930777784987,0.232
0.005941936251337834,0.233
0.005931301690437425,0.234
0.005922032246214378,0.235
0.005914129971175111,0.236
0.005907594431607456,0.237
0.005902423892294521,0.238
0.005898616628332903,0.239
0.005896171836767271,0.24
0.005895089759990513,0.241
0.005895370854451336,0.242
0.005897014173947062,0.243
0.005900015796583417,0.244
0.00590436852958358,0.245
0.0059100632314673706,0.246
0.005917090774833342,0.247
0.0059254435974275136,0.248
0.00593511645903662,0.249
0.005946106365064658,0.25
0.0059584117218575965,0.251
0.005972030883427471,0.252
0.005986960320084289,0.253
0.006003192853172339,0.254
0.006020716667323695,0.255
0.006039515346521499,0.256
0.00605956822302138,0.257
0.0060808502983770675,0.258
0.006103331903971241,0.259
0.006126978879717869,0.26
0.0061517536745303225,0.261
0.006177616941404439,0.262
0.006204528890513449,0.263
0.0062324498078771455,0.264
0.00626133929798974,0.265
0.006291154658739809,0.266
0.006321850323455527,0.267
0.006353379839114337,0.268
0.006385699233845517,0.269
0.006418769664229829,0.27
0.0064525583873409455,0.271
0.0064870380361451915,0.272
0.006522184556485755,0.273
0.006557974427887419,0.274
0.006594381942319373,0.275
0.006631377305515397,0.276
0.0066689260678698715,0.277
0.006706989881518713,0.278
0.006745527978585424,0.279
0.006784498356622087,0.28
0.006823857689035225,0.281
0.006863559982886616,0.282
0.006903555713020766,0.283
0.00694379298234386,0.284
0.0069842198114337456,0.285
0.007024785641363705,0.286
0.007065441458738257,0.287
0.007106139228438066,0.288
0.0071468316267031175,0.289
0.007187472708217695,0.29
0.007228019422286742,0.291
0.0072684332009369974,0.292
0.0073086805083007545,0.293
0.0073487314419056924,0.294
0.007388556654258439,0.295
0.00742812484816143,0.296
0.007467403192278381,0.297
0.007506360054996836,0.298
0.007544967343848952,0.299
0.007583200681855695,0.3
0.007621037321509023,0.301
0.007658452921284769,0.302
0.00769541937744925,0.303
0.0077319052460973065,0.304
0.007767877839106751,0.305
0.007803304955945491,0.306
0.0078381550820779,0.307
0.007872395880355569,0.308
0.007905992020618377,0.309
0.007938904712883393,0.31
0.007971094249560964,0.311
0.00800252403354709,0.312
0.008033163809397014,0.313
0.008062991060284238,0.314
0.008091990419356298,0.315
0.008120151309296452,0.316
0.008147464303906067,0.317
0.008173917296099184,0.318
0.008199493320344269,0.319
0.008224170920306226,0.32
0.008247925638290939,0.321
0.008270730785744806,0.322
0.008292557091365109,0.323
0.008313371832549763,0.324
0.008333138324836797,0.325
0.008351816513102723,0.326
0.008369364902151566,0.327
0.008385743402784897,0.328
0.008400916164111916,0.329
0.00841485332661135,0.33
0.008427530891620816,0.331
0.008438928443404499,0.332
0.008449025423040801,0.333
0.008457798000640839,0.334
0.008465218603578201,0.335
0.008471257898782569,0.336
0.008475887308476971,0.337
0.008479080855932289,0.338
0.008480816341295355,0.339
0.008481076100573175,0.34
0.008479847455206328,0.341
0.008477122862531373,0.342
0.008472899682227565,0.343
0.008467179320667567,0.344
0.008459965387212613,0.345
0.008451260847837915,0.346
0.008441065488893132,0.347
0.008429375930448298,0.348
0.00841618880121051,0.349
0.008401505244361935,0.35
0.008385334765483901,0.351
0.00836769757114235,0.352
0.008348625018041735,0.353
0.008328157845695391,0.354
0.008306342087130002,0.355
0.008283223950504404,0.356
0.008258847184521719,0.357
0.00823325508508945,0.358
0.008206494644503456,0.359
0.008178619143457412,0.36
0.008149687948686262,0.361
0.008119763917269263,0.362
0.008088909587477827,0.363
0.00805718441627136,0.364
0.008024645107516217,0.365
0.007991348636754037,0.366
0.007957355638620803,0.367
0.007922732192490407,0.368
0.007887549138884552,0.369
0.007851879139246613,0.37
0.007815793503486285,0.371
0.007779361728360553,0.372
0.007742654248466194,0.373
0.007705745746762208,0.374
0.007668716530948362,0.375
0.007631651486404583,0.376
0.0075946372258591105,0.377
0.007557758594837485,0.378
0.007521096185780445,0.379
0.007484725810443943,0.38
0.007448718998086356,0.381
0.007413142959638655,0.382
0.0073780599107010165,0.383
0.007343526954920595,0.384
0.007309597061366915,0.385
0.0072763202029690124,0.386
0.00724374357888493,0.387
0.007211910769670819,0.388
0.0071808605853560525,0.389
0.007150626770979354,0.39
0.00712123896518469,0.391
0.007092724092882446,0.392
0.007065107266838183,0.393
0.007038411934666539,0.394
0.007012659447992583,0.395
0.0069878684347988934,0.396
0.00696405442463128,0.397
0.006941230035165419,0.398
0.006919405726250141,0.399
0.006898590801625554,0.4
0.006878794132029538,0.401
0.006860024072186891,0.402
0.006842287293881563,0.403
0.00682558708233959,0.404
0.006809922677410523,0.405
0.006795290624874831,0.406
0.006781687148475269,0.407
0.006769110053484653,0.408
0.0067575596033995445,0.409
0.006747038387784936,0.41
0.006737550356382672,0.411
0.006729099337813578,0.412
0.006721687446901583,0.413
0.00671531373835605,0.414
0.0067099732860138005,0.415
0.006705656650920284,0.416
0.006702349552107564,0.417
0.006700032509937719,0.418
0.006698680448918967,0.419
0.006698262732027038,0.42
0.006698744146409114,0.421
0.006700086757282686,0.422
0.006702252182781109,0.423
0.006705203934050811,0.424
0.006708909494189803,0.425
0.006713341706853371,0.426
0.006718478988629245,0.427
0.006724303997141497,0.428
0.006730800831499077,0.429
0.006737951912974374,0.43
0.0067457365912178355,0.431
0.006754132178770889,0.432
0.0067631156614102374,0.433
0.006772664180788351,0.434
0.0067827539520199384,0.435
0.00679335831781393,0.436
0.006804446051569218,0.437
0.006815980614595018,0.438
0.006827920049460369,0.439
0.006840217217667071,0.44
0.006852820950386671,0.441
0.006865678416508817,0.442
0.006878737977573266,0.443
0.006891951547242317,0.444
0.006905275878407049,0.445
0.006918672596285435,0.446
0.006932107093777405,0.447
0.0069455466215215655,0.448
0.0069589580060672885,0.449
0.006972305423971208,0.45
0.006985548568616745,0.451
0.006998641399683441,0.452
0.0070115315343864774,0.453
0.007024160307341392,0.454
0.0070364635879325765,0.455
0.007048373470355573,0.456
0.007059820799467786,0.457
0.007070738208077079,0.458
0.007081063123859713,0.459
0.007090740182575504,0.46
0.007099722630869769,0.461
0.007107972551959029,0.462
0.007115460045232248,0.463
0.007122161747101401,0.464
0.007128059176404326,0.465
0.007133137250104226,0.466
0.007137382984556404,0.467
0.007140784039202913,0.468
0.007143326775238339,0.469
0.00714499445544844,0.47
0.007145767268521432,0.471
0.007145624942604046,0.472
0.0071445506808188826,0.473
0.007142534822395276,0.474
0.007139577565215231,0.475
0.0071356904924484614,0.476
0.007130896635237039,0.477
0.007125228948524665,0.478
0.007118727464183626,0.479
0.00711143584657711,0.48
0.0071033982845093,0.481
0.007094657394740441,0.482
0.007085253195784771,0.483
0.007075222595689949,0.484
0.007064598740018839,0.485
0.007053410460413244,0.486
0.007041683092755361,0.487
0.007029441260367554,0.488
0.007016712460564379,0.489
0.007003529784062009,0.49
0.006989932868059149,0.491
0.006975967008624052,0.492
0.006961680950525158,0.493
0.006947124183875929,0.494
0.00693234447948023,0.495
0.006917385994899806,0.496
0.006902287964602167,0.497
0.006887084115031636,0.498
0.006871803145101894,0.499
0.006856470255281067,0.5
0.00684110913546276,0.501
0.006825743649946446,0.502
0.006810398588498417,0.503
0.0067950990790998445,0.504
0.0067798688249129345,0.505
0.006764728398258091,0.506
0.006749695217048798,0.507
0.006734785345904419,0.508
0.006720015588546731,0.509
0.006705404491411254,0.51
0.006690971913144966,0.511
0.006676737362820622,0.512
0.006662717798831824,0.513
0.006648926349977384,0.514
0.006635373075820834,0.515
0.006622067146290998,0.516
0.006609018936338373,0.517
0.006596241126822872,0.518
0.006583748574098085,0.519
0.0065715570265760465,0.52
0.006559681011964683,0.521
0.006548131678942856,0.522
0.006536915789784814,0.523
0.006526036286711227,0.524
0.006515493442654583,0.525
0.0065052855477178645,0.526
0.006495409044762474,0.527
0.006485858540740017,0.528
0.006476627085581162,0.529
0.006467706842469552,0.53
0.006459089930401868,0.531
0.006450769005631851,0.532
0.006442737171436212,0.533
0.00643498703242196,0.534
0.006427509043963642,0.535
0.006420289802799251,0.536
0.0064133113151004185,0.537
0.006406551736296164,0.538
0.006399987045132085,0.539
0.006393592984224506,0.54
0.006387347041306873,0.541
0.006381230318101109,0.542
0.006375229021447158,0.543
0.006369335312488318,0.544
0.006363547302959486,0.545
0.006357868017258642,0.546
0.00635230316151134,0.547
0.006346858180026918,0.548
0.006341536502216745,0.549
0.006336340753692379,0.55
0.0063312761769177845,0.551
0.006326353966720711,0.552
0.0063215930451349395,0.553
0.00631701990906823,0.554
0.00631266669309116,0.555
0.006308567877291401,0.556
0.006304756753954614,0.557
0.0063012636425444045,0.558
0.006298116770520751,0.559
0.006295344190550223,0.56
0.0062929746269488,0.561
0.00629103656892804,0.562
0.006289556310714697,0.563
0.006288556778046016,0.564
0.006288058368203423,0.565
0.00628808070375443,0.566
0.006288643395214311,0.567
0.006289765136744543,0.568
0.00629146202206237,0.569
0.006293746860437804,0.57
0.006296630184542066,0.571
0.00630012162283954,0.572
0.006304230203117341,0.573
0.006308963460153969,0.574
0.006314325970643407,0.575
0.0063203180325072834,0.576
0.006326935038837965,0.577
0.006334167748555212,0.578
0.006342003253079204,0.579
0.006350426118286808,0.58
0.006359419040054176,0.581
0.006368962489268098,0.582
0.006379033687022982,0.583
0.006389606510487442,0.584
0.00640065345197313,0.585
0.006412148579895722,0.586
0.00642406960121795,0.587
0.006436398021510894,0.588
0.006449117327012612,0.589
0.006462210071008112,0.59
0.00647565578772779,0.591
0.00648943101481786,0.592
0.006503510454185778,0.593
0.006517867456941649,0.594
0.006532473168715807,0.595
0.006547295024008209,0.596
0.006562295970201697,0.597
0.006577435086383792,0.598
0.006592668748975367,0.599
0.006607951150412933,0.6
0.006623233781978984,0.601
0.006638464646841024,0.602
0.006653588834875863,0.603
0.006668551150837434,0.604
0.006683299445799273,0.605
0.006697786762449904,0.606
0.00671197136431189,0.607
0.00672581469888269,0.608
0.00673927815859266,0.609
0.006752320269203586,0.61
0.006764895732752924,0.611
0.006776956118610923,0.612
0.006788450778344888,0.613
0.006799327125200101,0.614
0.006809530446663791,0.615
0.0068190037381019395,0.616
0.006827687934685712,0.617
0.006835522705600336,0.618
0.006842447720791291,0.619
0.006848404073806048,0.62
0.006853335430398656,0.621
0.006857188536244853,0.622
0.006859912918323629,0.623
0.006861459796133488,0.624
0.006861780232384208,0.625
0.0068608229725676696,0.626
0.0068585336810630185,0.627
0.006854857382517527,0.628
0.00684974377756955,0.629
0.006843153391358832,0.63
0.006835062530928297,0.631
0.006825465506358323,0.632
0.006814373192313266,0.633
0.006801807972389496,0.634
0.006787797000088796,0.635
0.006772368044320251,0.636
0.006755550764097486,0.637
0.00673738120142251,0.638
0.006717905488189473,0.639
0.006697181096046656,0.64
0.006675275822171418,0.641
0.006652265197409814,0.642
0.0066282291151280644,0.643
0.006603248403334826,0.644
0.00657740187513275,0.645
0.006550764172918033,0.646
0.006523404506841852,0.647
0.006495386178671222,0.648
0.006466766586984223,0.649
0.006437597339778278,0.65
0.006407924377863754,0.651
0.006377788457894144,0.652
0.006347226274356307,0.653
0.006316271940794292,0.654
0.00628495829493971,0.655
0.006253317673491346,0.656
0.006221382016437014,0.657
0.00618918230340564,0.658
0.006156747449247711,0.659
0.006124102931792886,0.66
0.006091269608728211,0.661
0.006058263144723542,0.662
0.0060250939550530805,0.663
0.005991767230073486,0.664
0.005958283107231901,0.665
0.00592463750500726,0.666
0.005890823717602641,0.667
0.005856834338842454,0.668
0.005822663004060087,0.669
0.005788305519945044,0.67
0.00575376001746625,0.671
0.005719025849257971,0.672
0.005684101603723471,0.673
0.0056489840210123205,0.674
0.0056136696248468305,0.675
0.005578158573057868,0.676
0.005542458578913715,0.677
0.0055065871999874704,0.678
0.005470571714731317,0.679
0.005434446515890265,0.68
0.0053982489902471,0.681
0.005362016132845963,0.682
0.005325783810944771,0.683
0.005289588110328844,0.684
0.005253466695374208,0.685
0.005217459111117198,0.686
0.005181606234832099,0.687
0.005145949343469049,0.688
0.005110529082328811,0.689
0.005075384463471695,0.69
0.005040551976116246,0.691
0.005006064920867156,0.692
0.004971953061131508,0.693
0.004938242534408209,0.694
0.0049049557804278915,0.695
0.0048721114233596,0.696
0.004839724623145885,0.697
0.0048078083804457186,0.698
0.004776375377557826,0.699
0.004745439410122968,0.7
0.004715015729770321,0.701
0.004685120066487097,0.702
0.0046557668737340855,0.703
0.004626968320563399,0.704
0.004598735000641489,0.705
0.004571077377324856,0.706
0.004544006397620571,0.707
0.004517532772255315,0.708
0.0044916656705414875,0.709
0.004466412325382011,0.71
0.004441779200241651,0.711
0.004417773648502059,0.712
0.004394404741087233,0.713
0.004371682877977803,0.714
0.004349618424527903,0.715
0.004328220115277741,0.716
0.004307494466653452,0.717
0.004287446804232234,0.718
0.004268083081800337,0.719
0.004249411321288666,0.72
0.0042314421492498765,0.721
0.0042141883625983634,0.722
0.004197663677383854,0.723
0.004181881036260428,0.724
0.004166851083648608,0.725
0.004152581391589286,0.726
0.004139076400922751,0.727
0.0041263374840230255,0.728
0.004114362815430345,0.729
0.004103147266445599,0.73
0.004092682576326241,0.731
0.004082957769278367,0.732
0.004073959540266518,0.733
0.004065672284481648,0.734
0.004058077707046588,0.735
0.004051154369640918,0.736
0.004044877501032021,0.737
0.004039219059059493,0.738
0.004034148246374997,0.739
0.004029632824267407,0.74
0.0040256408480559966,0.741
0.004022141895177305,0.742
0.004019107102020579,0.743
0.004016507999111427,0.744
0.00401431514221761,0.745
0.004012497995493246,0.746
0.004011026335924869,0.747
0.004009871979392803,0.748
0.004009009741663816,0.749
0.0040084174710951275,0.75
0.004008075431032577,0.751
0.00400796533778942,0.752
0.0040080693017788774,0.753
0.004008368862949946,0.754
0.004008844255253944,0.755
0.004009473916460358,0.756
0.004010234078991833,0.757
0.004011098330548511,0.758
0.004012037537673022,0.759
0.00401302074045361,0.76
0.00401401698732644,0.761
0.004014997461742763,0.762
0.004015937289137883,0.763
0.0040168166750968815,0.764
0.004017621225082139,0.765
0.0040183414657778155,0.766
0.004018971718411016,0.767
0.004019508538762777,0.768
0.004019948940131608,0.769
0.004020288673045637,0.77
0.004020521016854197,0.771
0.004020636430946573,0.772
0.004020622792919671,0.773
0.00402046556308273,0.774
0.004020147541273269,0.775
0.004019648398690152,0.776
0.004018944446621731,0.777
0.004018009146491482,0.778
0.0040168146561820476,0.779
0.004015334270250988,0.78
0.004013545140514258,0.781
0.004011430416711549,0.782
0.004008980066204036,0.783
0.004006190032670675,0.784
0.004003059855620178,0.785
0.003999589719332182,0.786
0.0039957789511931435,0.787
0.00399162709653205,0.788
0.00398713617565598,0.789
0.003982312098189659,0.79
0.003977164445446631,0.791
0.003971704799040045,0.792
0.003965944782115939,0.793
0.003959895706554294,0.794
0.003953570449725126,0.795
0.003946986058916228,0.796
0.0039401653515924884,0.797
0.003933136902362728,0.798
0.003925933489640272,0.799
0.003918589602410322,0.8
0.003911139542770895,0.801
0.003903617704173456,0.802
0.003896060830822629,0.803
0.003888510519308673,0.804
0.0038810145466132437,0.805
0.003873626617855914,0.806
0.003866404753262775,0.807
0.0038594088887295213,0.808
0.003852698435813159,0.809
0.003846330448660697,0.81
0.0038403586896947877,0.811
0.0038348334910111403,0.812
0.0038298020696085275,0.813
0.0038253088741355846,0.814
0.003821395640361565,0.815
0.003818101139978622,0.816
0.003815460933766246,0.817
0.0038135074030761526,0.818
0.003812269969714773,0.819
0.0038117752755518594,0.82
0.0038120472805374585,0.821
0.003813107383027013,0.822
0.0038149746536686752,0.823
0.0038176661855073113,0.824
0.003821197455247323,0.825
0.0038255825187938756,0.826
0.0038308338713333246,0.827
0.0038369619478618717,0.828
0.0038439745820286254,0.829
0.0038518769484386125,0.83
0.0038606720895212033,0.831
0.003870361500705056,0.832
0.0038809452182125047,0.833
0.003892421338979018,0.834
0.0039047854693335395,0.835
0.003918030743787159,0.836
0.003932148431210277,0.837
0.0039471285202023285,0.838
0.003962959837836363,0.839
0.0039796297571752445,0.84
0.003997123802736212,0.841
0.004015425468585521,0.842
0.0040345164304293165,0.843
0.0040543771195755,0.844
0.00407498741964013,0.845
0.0040963271405823854,0.846
0.004118375966899099,0.847
0.00414111274132188,0.848
0.004164514345118688,0.849
0.004188554954254823,0.85
0.004213206193943196,0.851
0.00423843771523304,0.852
0.004264217423397069,0.853
0.004290511178832383,0.854
0.004317282266891555,0.855
0.0043444910304045225,0.856
0.00437209495970819,0.857
0.004400049328912051,0.858
0.004428308244488563,0.859
0.004456825817892454,0.86
0.004485557138439549,0.861
0.0045144588074157175,0.862
0.00454348895454314,0.863
0.004572606817923882,0.864
0.004601772048265409,0.865
0.004630943857440861,0.866
0.0046600800084966995,0.867
0.0046891357529334175,0.868
0.00471806333367425,0.869
0.0047468127335469805,0.87
0.004775333495350234,0.871
0.004803576801142123,0.872
0.00483149714490246,0.873
0.004859053239065902,0.874
0.004886207984389682,0.875
0.004912927493072172,0.876
0.004939179280012007,0.877
0.004964930077814113,0.878
0.004990144406277384,0.879
0.0050147849389612625,0.88
0.0050388143589768,0.881
0.0050621974739619305,0.882
0.005084902708801205,0.883
0.005106902649566852,0.884
0.005128173534297833,0.885
0.005148693715613817,0.886
0.005168441453333563,0.887
0.005187393125076613,0.888
0.005205523207184709,0.889
0.005222806199127471,0.89
0.005239219322048573,0.891
0.005254744858226259,0.892
0.005269371637919899,0.893
0.005283095440821597,0.894
0.005295918152604524,0.895
0.005307845644451166,0.896
0.00531888485150533,0.897
0.005329041612053454,0.898
0.005338321004504683,0.899
0.005346730081514448,0.9
0.00535428123954787,0.901
0.005360994743859106,0.902
0.005366899822994861,0.903
0.005372034133803497,0.904
0.0053764415827476444,0.905
0.005380168934574599,0.906
0.005383262663088353,0.907
0.005385768030669442,0.908
0.005387730705943952,0.909
0.00538919901930253,0.91
0.005390225078755456,0.911
0.005390864380363567,0.912
0.005391174247175857,0.913
0.0053912115815052,0.914
0.005391030654569862,0.915
0.005390681830497882,0.916
0.005390211430663248,0.917
0.005389661908030096,0.918
0.005389071622117205,0.919
0.005388474330718665,0.92
0.005387898795383666,0.921
0.005387368675921654,0.922
0.0053869026714900145,0.923
0.00538651481627179,0.924
0.0053862148518915446,0.925
0.005386008637971879,0.926
0.005385898623435691,0.927
0.005385884382205866,0.928
0.005385963102155109,0.929
0.0053861297923051155,0.93
0.005386376932976484,0.931
0.005386693690207756,0.932
0.0053870656480356485,0.933
0.0053874759294546696,0.934
0.005387907280409707,0.935
0.005388344018427525,0.936
0.005388773136507781,0.937
0.0053891842589373,0.938
0.005389568377398365,0.939
0.00538991579573776,0.94
0.0053902145773267966,0.941
0.005390450827554082,0.942
0.005390610657984312,0.943
0.005390682490182691,0.944
0.005390658689838993,0.945
0.005390536249361162,0.946
0.005390316531776379,0.947
0.00539000415565392,0.948
0.0053896051108760275,0.949
0.00538912450294005,0.95
0.0053885651248230014,0.951
0.005387928051468323,0.952
0.005387214907973344,0.953
0.005386430267558489,0.954
0.005385582938548426,0.955
0.00538468564179992,0.956
0.0053837530950661,0.957
0.0053827993319684,0.958
0.005381836101301413,0.959
0.005380873522563057,0.96
0.0053799219307163896,0.961
0.005378993126657829,0.962
0.005378100388495169,0.963
0.005377257546696969,0.964
0.005376477733582149,0.965
0.005375772378228114,0.966
