VaMe,time
-0.0023323924626476667,0.001
-0.002180337323804407,0.002
-0.0020291529520458616,0.003
-0.0018789762330268954,0.004
-0.0017299372334981273,0.005
-0.0015821580407758098,0.006
-0.001435752981613959,0.007
-0.0012908301214427469,0.008
-0.0011474926428019084,0.009
-0.0010058383469224905,0.01
-0.0008659573303968008,0.011
-0.0007279296391519614,0.012
-0.0005918244434847353,0.013
-0.00045770118894692937,0.014
-0.000325612226734086,0.015
-0.00019560530637184552,0.016
-6.772404621984306e-05,0.017
5.799374637317001e-05,0.018
0.0001815182084477643,0.019
0.0003028285300010622,0.02
0.0004219126297788871,0.021
0.0005387654888898907,0.022
0.0006533866751501403,0.023
0.000765778407509457,0.024
0.0008759454645814603,0.025
0.000983896642222132,0.026
0.0010896462394929306,0.027
0.001193214474990131,0.028
0.001294626601466834,0.029
0.0013939110831960252,0.03
0.0014910978949481807,0.031
0.0015862181297507437,0.032
0.001679304879554781,0.033
0.0017703941771192622,0.034
0.0018595251103838068,0.035
0.0019467391395566274,0.036
0.002032079041869735,0.037
0.0021155878603124826,0.038
0.002197308031134275,0.039
0.002277280727240712,0.04
0.0023555455333122612,0.041
0.002432140623083024,0.042
0.002507103402287782,0.043
0.0025804713639064857,0.044
0.002652282872281235,0.045
0.0027225776115946433,0.046
0.002791396456071314,0.047
0.002858780659560507,0.048
0.002924770746560866,0.049
0.0029894060234340147,0.05
0.003052725138488561,0.051
0.0031147669424503666,0.052
0.0031755707264156338,0.053
0.0032351756460772055,0.054
0.003293619685679079,0.055
0.003350938742262031,0.056
0.003407166255784345,0.057
0.0034623332675805933,0.058
0.0035164684917707517,0.059
0.0035695982025278966,0.06
0.003621745997530274,0.061
0.003672932527525983,0.062
0.0037231752380532768,0.063
0.0037724881582524763,0.064
0.0038208817723054374,0.065
0.003868363019316119,0.066
0.003914935512427231,0.067
0.003960600079732947,0.068
0.004005355633840012,0.069
0.0040492002255349685,0.07
0.0040921319918174074,0.071
0.004134149596290444,0.072
0.004175251745454887,0.073
0.004215435994351395,0.074
0.004254698330222444,0.075
0.004293034809960152,0.076
0.004330444438636796,0.077
0.004366931493478703,0.078
0.0044025062582384545,0.079
0.004437183927368626,0.08
0.004470982075514146,0.081
0.004503918052610518,0.082
0.0045360081112716215,0.083
0.004567268649161969,0.084
0.004597718035670137,0.085
0.004627377518391363,0.086
0.004656270882589299,0.087
0.004684423194398909,0.088
0.004711859150530839,0.089
0.004738601582977756,0.09
0.00476467051213804,0.091
0.0047900828749784866,0.092
0.004814852789257995,0.093
0.004838992037227428,0.094
0.0048625103914337695,0.095
0.004885415459634315,0.096
0.0049077120456440726,0.097
0.004929401631109609,0.098
0.004950482706094618,0.099
0.004970951903784614,0.1
0.004990805279580171,0.101
0.005010039231132521,0.102
0.005028650830045075,0.103
0.005046637384089507,0.104
0.005063995210540968,0.105
0.005080718210444526,0.106
0.005096797300238757,0.107
0.005112220924445978,0.108
0.0051269755258761054,0.109
0.00514104517926794,0.11
0.005154411357915102,0.111
0.00516705426677353,0.112
0.005178955568481008,0.113
0.005190101047216999,0.114
0.0052004820328602885,0.115
0.005210095126763789,0.116
0.005218940246474399,0.117
0.005227017765794816,0.118
0.0052343266764546025,0.119
0.00524086537718466,0.12
0.005246634446152918,0.121
0.005251639510418061,0.122
0.0052558930741112226,0.123
0.00525941504901733,0.124
0.005262232076874412,0.125
0.005264375929030436,0.126
0.005265881405665073,0.127
0.005266784182406964,0.128
0.005267118951500516,0.129
0.005266918019831332,0.13
0.005266210331458123,0.131
0.005265020795178445,0.132
0.005263369965938955,0.133
0.005261274397709714,0.134
0.005258747910412363,0.135
0.00525580363688416,0.136
0.005252456479301139,0.137
0.005248725543205483,0.138
0.005244636080190644,0.139
0.005240220510742799,0.14
0.005235518255386597,0.141
0.005230574316656571,0.142
0.005225436763798819,0.143
0.00522015376208962,0.144
0.005214771608125999,0.145
0.005209334965649642,0.146
0.005203888741027191,0.147
0.005198480069480794,0.148
0.00519315954024066,0.149
0.005187981541763541,0.15
0.005183003816802723,0.151
0.005178286342187835,0.152
0.005173889661197584,0.153
0.005169872958808488,0.154
0.005166292606137814,0.155
0.005163201950036214,0.156
0.005160652184193979,0.157
0.005158693248661446,0.158
0.005157373906341244,0.159
0.0051567409334102345,0.16
0.005156838166688822,0.161
0.005157706434196842,0.162
0.005159384508715908,0.163
0.005161910138231726,0.164
0.005165320274940735,0.165
0.0051696503328197575,0.166
0.005174932925051135,0.167
0.0051811969992620055,0.168
0.005188467904752156,0.169
0.0051967678450368735,0.17
0.005206115898480577,0.171
0.005216527502210084,0.172
0.005228013919461082,0.173
0.005240582083433179,0.174
0.0052542346439170395,0.175
0.005268970124713469,0.176
0.005284783672043821,0.177
0.005301668656152818,0.178
0.0053196185924767585,0.179
0.005338628570769839,0.18
0.0053586956608258785,0.181
0.00537981815414234,0.182
0.00540199384678252,0.183
0.005425218049223731,0.184
0.00544948249786809,0.185
0.005474775748876433,0.186
0.005501084254783205,0.187
0.005528393072664979,0.188
0.005556685888283585,0.189
0.005585944453773154,0.19
0.005616147621636756,0.191
0.0056472702875862155,0.192
0.005679282692442041,0.193
0.00571215031781909,0.194
0.005745834098525123,0.195
0.0057802905244970886,0.196
0.005815471463712285,0.197
0.005851323818163135,0.198
0.005887789355296074,0.199
0.005924805000040925,0.2
0.005962303492217554,0.201
0.006000214138380289,0.202
0.006038463517234943,0.203
0.006076976107635066,0.204
0.006115674835744575,0.205
0.00615448153638666,0.206
0.00619331728499623,0.207
0.006232102479275258,0.208
0.006270756453661246,0.209
0.006309196452161445,0.21
0.006347336451065048,0.211
0.006385087275639391,0.212
0.006422358929746615,0.213
0.006459064234574175,0.214
0.006495122133650396,0.215
0.006530459534874142,0.216
0.006565011048608503,0.217
0.006598716398650149,0.218
0.006631516475192082,0.219
0.006663350783622641,0.22
0.006694158437866602,0.221
0.006723881480702054,0.222
0.00675246779506057,0.223
0.006779872277188687,0.224
0.006806056277476839,0.225
0.006830985688259803,0.226
0.006854628067042333,0.227
0.006876949534297845,0.228
0.0068979131588738,0.229
0.006917480255359647,0.23
0.006935613805921385,0.231
0.006952281952268798,0.232
0.006967460218933055,0.233
0.006981132076982325,0.234
0.006993287947775408,0.235
0.007003922981315515,0.236
0.007013033948984736,0.237
0.007020616001667267,0.238
0.007026661120010835,0.239
0.0070311596971314476,0.24
0.007034104318773303,0.241
0.007035493632520413,0.242
0.007035335024820767,0.243
0.0070336456938016245,0.244
0.007030452138808305,0.245
0.007025788402551733,0.246
0.00701969356805354,0.247
0.00701220899967458,0.248
0.007003375639504121,0.249
0.006993231616092225,0.25
0.006981810875258966,0.251
0.006969143804776377,0.252
0.006955259906752592,0.253
0.006940191377280159,0.254
0.006923976261861681,0.255
0.006906660304433008,0.256
0.006888297115748115,0.257
0.006868946857127127,0.258
0.006848674125504901,0.259
0.006827545862340238,0.26
0.0068056298281834035,0.261
0.00678299367159875,0.262
0.006759704176687953,0.263
0.006735826123273061,0.264
0.006711420785394682,0.265
0.006686545302087697,0.266
0.006661254034229673,0.267
0.006635601213865277,0.268
0.00660964332272197,0.269
0.006583440282114954,0.27
0.00655705517624392,0.271
0.00653055259755536,0.272
0.006503996112210478,0.273
0.006477445799113513,0.274
0.006450956810876569,0.275
0.0064245789896630965,0.276
0.006398356980222175,0.277
0.0063723308382150285,0.278
0.006346537271921503,0.279
0.006321010989681819,0.28
0.006295785525849183,0.281
0.006270893390905033,0.282
0.006246365687583165,0.283
0.006222231375049237,0.284
0.006198516286299116,0.285
0.00617524209407967,0.286
0.0061524258347247915,0.287
0.006130080596759494,0.288
0.0061082172029857905,0.289
0.006086846186189864,0.29
0.006065979512248612,0.291
0.006045631724370161,0.292
0.006025820273826422,0.293
0.006006564941881054,0.294
0.0059878864548693015,0.295
0.005969804539958869,0.296
0.005952335960735309,0.297
0.005935493574039552,0.298
0.0059192871347857135,0.299
0.005903725350347632,0.3
0.005888818180028047,0.301
0.005874578741041223,0.302
0.005861024360020223,0.303
0.0058481762955468,0.304
0.0058360578457460534,0.305
0.005824691591050119,0.306
0.005814098075134947,0.307
0.005804297376045149,0.308
0.0057953119760381045,0.309
0.005787168546839209,0.31
0.005779897903650723,0.311
0.005773533516340013,0.312
0.005768109240948751,0.313
0.005763656956246613,0.314
0.005760204739489374,0.315
0.00575777603143649,0.316
0.005756389676229784,0.317
0.005756060225419915,0.318
0.005756798060295341,0.319
0.005758609306497583,0.32
0.005761495700174624,0.321
0.005765454637228603,0.322
0.0057704796738719194,0.323
0.0057765616477181685,0.324
0.005783690329298988,0.325
0.005791856196361607,0.326
0.005801051726475882,0.327
0.00581127166225626,0.328
0.005822512013413135,0.329
0.005834768058902377,0.33
0.0058480322717546435,0.331
0.005862293321754599,0.332
0.005877536343842326,0.333
0.005893743545896541,0.334
0.005910894489076116,0.335
0.005928966191261612,0.336
0.0059479333666663655,0.337
0.00596776888192487,0.338
0.005988444332876105,0.339
0.006009930576566425,0.34
0.006032198044040366,0.341
0.006055216696653503,0.342
0.006078955606459116,0.343
0.006103382316592453,0.344
0.00612846223983266,0.345
0.0061541582648605275,0.346
0.006180430502989085,0.347
0.0062072359005895875,0.348
0.006234527556450263,0.349
0.006262254184282003,0.35
0.006290360551206774,0.351
0.006318789090680725,0.352
0.006347481982536695,0.353
0.006376382880539156,0.354
0.006405437824099499,0.355
0.00643459514437404,0.356
0.006463804425340419,0.357
0.006493014880313205,0.358
0.006522173759992089,0.359
0.00655122548601889,0.36
0.006580111978837373,0.361
0.00660877410269004,0.362
0.006637153469301892,0.363
0.006665193379382095,0.364
0.0066928379594262425,0.365
0.006720030346668598,0.366
0.006746712885171157,0.367
0.006772831052880468,0.368
0.006798339103376105,0.369
0.006823204290050087,0.37
0.006847408193237262,0.371
0.006870945120285804,0.372
0.006893818307160552,0.373
0.0069160350207825285,0.374
0.006937601886587016,0.375
0.0069585219789405645,0.376
0.006978794385310398,0.377
0.006998415244182035,0.378
0.0070173787991691505,0.379
0.007035677959509902,0.38
0.007053304552332664,0.381
0.0070702495545291255,0.382
0.0070865035474874626,0.383
0.007102057568697005,0.384
0.007116904432156408,0.385
0.007131040451884772,0.386
0.007144467340769617,0.387
0.007157193892219152,0.388
0.007169236914597426,0.389
0.007180620827962653,0.39
0.00719137542419265,0.391
0.007201532210610708,0.392
0.00721112176912792,0.393
0.0072201748423431035,0.394
0.007228726669774232,0.395
0.007236821449238696,0.396
0.007244514514751223,0.397
0.007251871666158561,0.398
0.00725896626656089,0.399
0.007265875345878046,0.4
0.007272676029154301,0.401
0.00727944314199152,0.402
0.007286248138175233,0.403
0.007293158915591065,0.404
0.007300239841503728,0.405
0.007307551391215055,0.406
0.0073151493089747945,0.407
0.0073230840729458764,0.408
0.007331401640172334,0.409
0.0073401454433142084,0.41
0.007349358781423973,0.411
0.007359086874338122,0.412
0.007369378171392535,0.413
0.0073802846157979655,0.414
0.007391860663545998,0.415
0.007404161044509437,0.416
0.007417237951241368,0.417
0.007431139396834527,0.418
0.007445909850769086,0.419
0.007461591967981562,0.42
0.0074782275135795604,0.421
0.007495856805967569,0.422
0.007514517071444573,0.423
0.007534240710571454,0.424
0.007555054546426863,0.425
0.007576980127162203,0.426
0.007600034127800985,0.427
0.0076242281285569275,0.428
0.007649567871383796,0.429
0.0076760524683293545,0.43
0.007703673956418908,0.431
0.007732417457635787,0.432
0.007762262137178058,0.433
0.007793182909630664,0.434
0.007825152425243717,0.435
0.007858142584941554,0.436
0.007892124799931805,0.437
0.007927068732109042,0.438
0.007962940746303078,0.439
0.007999704364869941,0.44
0.008037323411423245,0.441
0.008075765911213078,0.442
0.008115006441417235,0.443
0.008155025897093476,0.444
0.00819580869469233,0.445
0.008237338627020065,0.446
0.008279595931077416,0.447
0.008322557270845651,0.448
0.008366197356739982,0.449
0.008410489809293022,0.45
0.008455406320202842,0.451
0.008500914677577106,0.452
0.008546977072591574,0.453
0.008593549829705881,0.454
0.008640584185712463,0.455
0.008688026855404476,0.456
0.008735819709421538,0.457
0.008783898752503844,0.458
0.008832193106569108,0.459
0.008880624783504298,0.46
0.008929109390605256,0.461
0.008977557173909183,0.462
0.00902587380286215,0.463
0.009073960652801699,0.464
0.00912171449506707,0.465
0.009169026562244168,0.466
0.009215781301039502,0.467
0.00926185570706406,0.468
0.00930711988363481,0.469
0.009351438347360639,0.47
0.009394671213138809,0.471
0.00943667485779712,0.472
0.009477301937488082,0.473
0.009516400620062674,0.474
0.009553813264112676,0.475
0.009589375860423233,0.476
0.009622919881185027,0.477
0.009654276715452607,0.478
0.009683283434738307,0.479
0.009709788438623086,0.48
0.009733655656875496,0.481
0.009754766025160618,0.482
0.009773015239754225,0.483
0.009788307920673726,0.484
0.009800551359822166,0.485
0.00980965457125706,0.486
0.009815534844479222,0.487
0.009818127568680219,0.488
0.00981739418064846,0.489
0.009813326175394961,0.49
0.009805944847048999,0.491
0.009795296961852084,0.492
0.009781447118700791,0.493
0.009764468431278081,0.494
0.009744434785161583,0.495
0.009721418333148388,0.496
0.00969549246761605,0.497
0.009666736714030373,0.498
0.009635240557346667,0.499
0.009601105654214629,0.5
0.009564446689642458,0.501
0.009525390944939028,0.502
0.00948407648117494,0.503
0.009440648835469549,0.504
0.009395256321698646,0.505
0.00934804506295548,0.506
0.00929915638570215,0.507
0.00924872794079382,0.508
0.0091968964102571,0.509
0.009143799033926167,0.51
0.009089573215013337,0.511
0.009034354627261956,0.512
0.008978274668240136,0.513
0.00892145862438259,0.514
0.008864025526622554,0.515
0.008806089187491655,0.516
0.008747759166085221,0.517
0.008689141045926664,0.518
0.008630336110441665,0.519
0.008571440655101825,0.52
0.008512545095773072,0.521
0.008453733069450934,0.522
0.008395080983875664,0.523
0.008336658412082264,0.524
0.00827852913525398,0.525
0.008220752317267089,0.526
0.008163383534346568,0.527
0.008106475645259641,0.528
0.008050079546698218,0.529
0.007994244806648723,0.53
0.007939020075880567,0.531
0.007884453112913423,0.532
0.00783059027080689,0.533
0.007777475388375102,0.534
0.00772514824108268,0.535
0.007673643121194208,0.536
0.007622988299401572,0.537
0.007573206390123484,0.538
0.0075243147249965045,0.539
0.007476325111054084,0.54
0.0074292434200659285,0.541
0.007383069726769868,0.542
0.007337798806020712,0.543
0.00729342026487628,0.544
0.007249918547650131,0.545
0.00720727398895604,0.546
0.007165465316463217,0.547
0.007124472701823472,0.548
0.007084280310556185,0.549
0.00704487787402263,0.55
0.007006261212732994,0.551
0.006968431826514311,0.552
0.006931395725562101,0.553
0.0068951616100030545,0.554
0.006859738393278566,0.555
0.006825132634502429,0.556
0.006791347736631637,0.557
0.00675838622543963,0.558
0.0067262537769435206,0.559
0.006694962588870648,0.56
0.006664532742992714,0.561
0.006634991237202591,0.562
0.006606369074168212,0.563
0.006578697452943204,0.564
0.006552004502682527,0.565
0.006526313554008718,0.566
0.00650164268324788,0.567
0.00647800483151464,0.568
0.006455408547009919,0.569
0.00643385942890314,0.57
0.006413361591458872,0.571
0.006393918376207887,0.572
0.006375532024923752,0.573
0.006358202445784261,0.574
0.006341925720301888,0.575
0.006326693416308182,0.576
0.006312493113084344,0.577
0.0062993093142124845,0.578
0.006287123817098155,0.579
0.006275915382953985,0.58
0.006265659049760048,0.581
0.006256325598472237,0.582
0.006247881698611064,0.583
0.006240291084172997,0.584
0.006233516772792069,0.585
0.00622752392838892,0.586
0.006222282601946848,0.587
0.006217769400395633,0.588
0.006213967238037645,0.589
0.006210862865176988,0.59
0.00620844347079968,0.591
0.006206695428861637,0.592
0.006205606730527972,0.593
0.0062051708066555526,0.594
0.006205388688052655,0.595
0.006206268587033367,0.596
0.006207823493883665,0.597
0.0062100678577221785,0.598
0.006213014430973624,0.599
0.006216671989803925,0.6
0.006221044124058148,0.601
0.00622612884101922,0.602
0.006231918518192569,0.603
0.006238399935176763,0.604
0.006245554567902674,0.605
0.006253359398464628,0.606
0.00626178805986339,0.607
0.00627081188932588,0.608
0.006280400625350992,0.609
0.006290522708377084,0.61
0.006301145287318314,0.611
0.006312234091924107,0.612
0.006323753304978597,0.613
0.006335665500283844,0.614
0.006347931650524458,0.615
0.006360511178739643,0.616
0.00637336201730222,0.617
0.006386440615468396,0.618
0.006399701774495996,0.619
0.006413098094416654,0.62
0.006426578999988674,0.621
0.006440090123738843,0.622
0.0064535743002847295,0.623
0.006466974374258374,0.624
0.006480236602845897,0.625
0.0064933132605361245,0.626
0.006506163708478507,0.627
0.006518753819866465,0.628
0.006531054111507363,0.629
0.00654303717626849,0.63
0.006554675015715862,0.631
0.006565936721133522,0.632
0.006576786760419427,0.633
0.00658718398566765,0.634
0.00659708132646588,0.635
0.006606425932718434,0.636
0.006615159450789165,0.637
0.006623218230638919,0.638
0.006630533396695975,0.639
0.006637030800560497,0.64
0.006642630975526453,0.641
0.006647249342119013,0.642
0.00665079701867762,0.643
0.0066531825928203845,0.644
0.006654315037117412,0.645
0.00665410760396576,0.646
0.006652482103028718,0.647
0.0066493726035431406,0.648
0.00664472747092885,0.649
0.006638508840396241,0.65
0.00663068913378789,0.651
0.006621245671430134,0.652
0.006610156812045196,0.653
0.006597402774728862,0.654
0.006582970055372948,0.655
0.006566855714779917,0.656
0.006549069399975263,0.657
0.0065296331527002925,0.658
0.00650857982107912,0.659
0.006485950851323082,0.66
0.00646179392702359,0.661
0.006436160598550369,0.662
0.006409103875950851,0.663
0.006380675769066231,0.664
0.006350925057913622,0.665
0.006319896034248217,0.666
0.006287628660294619,0.667
0.00625415957890298,0.668
0.006219523131423315,0.669
0.006183752116996292,0.67
0.006146878441884565,0.671
0.006108933874951052,0.672
0.0060699510685294986,0.673
0.006029964868370454,0.674
0.0059890137453403915,0.675
0.005947140977376162,0.676
0.005904395063272177,0.677
0.005860828847594829,0.678
0.0058164972146291394,0.679
0.005771454480897521,0.68
0.005725753820062301,0.681
0.005679449644541592,0.682
0.005632601019986893,0.683
0.005585273783299417,0.684
0.005537540599260491,0.685
0.005489479216439996,0.686
0.005441169532876178,0.687
0.0053926904830412,0.688
0.005344118177743977,0.689
0.005295526022179937,0.69
0.005246985913346696,0.691
0.005198569195892683,0.692
0.005150346893202765,0.693
0.005102389316640455,0.694
0.0050547652908590375,0.695
0.005007541262102285,0.696
0.0049607805074396005,0.697
0.004914542543939237,0.698
0.0048688827219096455,0.699
0.004823851986767388,0.7
0.004779496877601742,0.701
0.004735859777394771,0.702
0.004692979248846403,0.703
0.004650890240626971,0.704
0.004609624049782902,0.705
0.004569208094759488,0.706
0.004529665753617396,0.707
0.004491016464245983,0.708
0.0044532759369971826,0.709
0.0044164561961253825,0.71
0.004380565432202091,0.711
0.004345607941967233,0.712
0.004311584338254914,0.713
0.00427849186750696,0.714
0.004246324599055505,0.715
0.004215073433402489,0.716
0.0041847259713608,0.717
0.004155266308764,0.718
0.004126674929347213,0.719
0.004098928954000274,0.72
0.004072002858080827,0.721
0.004045869515774587,0.722
0.004020501301080639,0.723
0.003995870911472787,0.724
0.003971951517496682,0.725
0.003948716056715939,0.726
0.003926136376081596,0.727
0.003904183703165218,0.728
0.0038828310365462615,0.729
0.003862056300406906,0.73
0.003841844679222237,0.731
0.003822189252157001,0.732
0.0038030897135183112,0.733
0.003784549562474094,0.734
0.003766573060938534,0.735
0.0037491638739729103,0.736
0.0037323260433301305,0.737
0.0037160658610594375,0.738
0.003700393106871229,0.739
0.0036853213388990296,0.74
0.003670867504833679,0.741
0.0036570511553413176,0.742
0.003643893479397955,0.743
0.003631416286805427,0.744
0.003619640986092515,0.745
0.003608587580889506,0.746
0.003598273773442255,0.747
0.0035887143735514986,0.748
0.0035799211225462113,0.749
0.0035719027496104077,0.75
0.003564664981702034,0.751
0.003558210424499451,0.752
0.003552538412398332,0.753
0.003547644922652952,0.754
0.003543522563998679,0.755
0.0035401606560937072,0.756
0.0035375454653790244,0.757
0.0035356606253303573,0.758
0.003534487713043179,0.759
0.003534006918365519,0.76
0.003534197669284842,0.761
0.00353503900568949,0.762
0.0035365094973085673,0.763
0.0035385866343864915,0.764
0.003541246013908221,0.765
0.003544461036445414,0.766
0.003548203407687286,0.767
0.0035524438083908523,0.768
0.0035571519295946163,0.769
0.003562295866105711,0.77
0.0035678418318330395,0.771
0.003573755064036232,0.772
0.0035800015344628323,0.773
0.0035865494403807376,0.774
0.0035933698801471087,0.775
0.003600436594990827,0.776
0.0036077248868590433,0.777
0.003615210031688787,0.778
0.0036228658629387897,0.779
0.0036306643546966575,0.78
0.0036385763577438815,0.781
0.0036465727792209537,0.782
0.003654625539394565,0.783
0.0036627081544845373,0.784
0.0036707960000396216,0.785
0.003678866288628673,0.786
0.003686897754492746,0.787
0.003694870008430932,0.788
0.0037027625338220665,0.789
0.003710553487692484,0.79
0.003718218883974891,0.791
0.0037257327161586973,0.792
0.0037330678045125274,0.793
0.003740196589603716,0.794
0.003747091289897014,0.795
0.003753723302250679,0.796
0.003760062331840648,0.797
0.003766076258950351,0.798
0.0037717322252666273,0.799
0.0037769982741905237,0.8
0.0037818446425670967,0.801
0.0037862443144469882,0.802
0.003790172744255477,0.803
0.003793606718207443,0.804
0.0037965227304987896,0.805
0.0037988961593017423,0.806
0.0038007024925434483,0.807
0.003801920279164328,0.808
0.0038025343902002287,0.809
0.003802538417012509,0.81
0.003801935523833596,0.811
0.0038007374590694615,0.812
0.003798961887076133,0.813
0.003796628928350901,0.814
0.0037937586973090525,0.815
0.0037903712216742413,0.816
0.0037864881012747995,0.817
0.0037821341583806497,0.818
0.003777338099371365,0.819
0.003772132131372172,0.82
0.003766550775319689,0.821
0.0037606291822662222,0.822
0.0037544013853734264,0.823
0.003747899082527282,0.824
0.0037411512734720326,0.825
0.003734184383415281,0.826
0.003727022260123241,0.827
0.003719685904514931,0.828
0.0037121933435710825,0.829
0.003704560036844398,0.83
0.003696799717915776,0.831
0.003688925326288621,0.832
0.0036809498133090345,0.833
0.0036728866781258777,0.834
0.0036647500300987404,0.835
0.0036565539483612015,0.836
0.0036483113592430333,0.837
0.0036400335629535783,0.838
0.0036317313375183583,0.839
0.003623416990552921,0.84
0.003615106031602063,0.841
0.003606817732622986,0.842
0.0035985744458071683,0.843
0.0035903999104842923,0.844
0.0035823172446704525,0.845
0.003574347722408715,0.846
0.00356651090275398,0.847
0.003558825483500426,0.848
0.0035513099943995604,0.849
0.003543983013942304,0.85
0.0035368628778800495,0.851
0.003529966918015291,0.852
0.003523310608955336,0.853
0.003516907314931496,0.854
0.003510768854799568,0.855
0.003504906268466403,0.856
0.0034993301388064474,0.857
0.003494050371401232,0.858
0.0034890756496042765,0.859
0.0034844128183727555,0.86
0.0034800663653009665,0.861
0.0034760380386820427,0.862
0.003472326631389111,0.863
0.003468928068213209,0.864
0.0034658358773663263,0.865
0.003463041879722154,0.866
0.0034605368336039465,0.867
0.0034583108766058908,0.868
0.0034563537060466457,0.869
0.0034546544839090996,0.87
0.003453201471315322,0.871
0.0034519814181893293,0.872
0.003450978855041681,0.873
0.003450175623840579,0.874
0.003449550840643878,0.875
0.0034490809990165854,0.876
0.0034487399093835473,0.877
0.00344849878189249,0.878
0.0034483269241315797,0.879
0.0034481929000191496,0.88
0.0034480655379265077,0.881
0.003447914246217253,0.882
0.003447708432344519,0.883
0.003447416621502691,0.884
0.0034470065996622334,0.885
0.003446447183590386,0.886
0.003445710695779156,0.887
0.003444774861182987,0.888
0.0034436234566200203,0.889
0.003442245514494569,0.89
0.0034406332057643554,0.891
0.003438779251807559,0.892
0.0034366755516597298,0.893
0.0034343138611699136,0.894
0.003431687266363873,0.895
0.00342879081499455,0.896
0.003425620856287842,0.897
0.003422173572785735,0.898
0.003418443760500718,0.899
0.003414424651321527,0.9
0.0034101083310584808,0.901
0.0034054857553956993,0.902
0.003400546323886316,0.903
0.0033952780208174626,0.904
0.0033896687069618924,0.905
0.003383707889171132,0.906
0.0033773879343299154,0.907
0.00337070418985308,0.908
0.00336365390538355,0.909
0.0033562344616784798,0.91
0.003348442279357262,0.911
0.003340273401101007,0.912
0.00333172503360033,0.913
0.003322796643280334,0.914
0.0033134899367375454,0.915
0.0033038077408950005,0.916
0.0032937524091080027,0.917
0.0032833250852445537,0.918
0.0032725265976511725,0.919
0.0032613591225292516,0.92
0.0032498272927706986,0.921
0.0032379381737712783,0.922
0.0032257001328151328,0.923
0.0032131213341984248,0.924
0.0032002093312541507,0.925
0.0031869725082772707,0.926
0.0031734224041561235,0.927
0.0031595755230451215,0.928
0.003145454013609117,0.929
0.0031310851466220466,0.93
0.00311649974905376,0.931
0.003101730050509094,0.932
0.0030868078923167405,0.933
0.0030717643080751555,0.934
0.0030566304451007838,0.935
0.00304143877554662,0.936
0.003026223761064965,0.937
0.0030110218351522924,0.938
0.002995870858837856,0.939
0.002980809237209251,0.94
0.00296587488155526,0.941
0.00295110422369563,0.942
0.0029365315495849956,0.943
0.0029221888225951266,0.944
0.002908105850495425,0.945
0.0028943104756517786,0.946
0.0028808285955531036,0.947
0.002867684004858943,0.948
0.0028548982202708695,0.949
0.0028424905757394032,0.95
0.002830478717960293,0.951
0.0028188793037006413,0.952
0.0028077085956266755,0.953
0.002796982758429069,0.954
0.0027867177677427845,0.955
0.002776928946217375,0.956
0.0027676302833810635,0.957
0.002758833869578452,0.958
0.0027505497558405964,0.959
0.002742786202769846,0.96
0.0027355500026076123,0.961
0.0027288466636676543,0.962
0.0027226804615489504,0.963
0.0027170544412215914,0.964
0.0027119704525366143,0.965
0.0027074292757430654,0.966
0.0027034308492535223,0.967
0.002699974562547264,0.968
0.0026970595367039334,0.969
0.0026946847923203384,0.97
0.0026928492017015675,0.971
0.0026915511406913556,0.972
0.0026907878902057503,0.973
0.002690555153808666,0.974
0.0026908471421043423,0.975
0.002691657170024697,0.976
0.002692978206140177,0.977
0.0026948028846522014,0.978
0.002697122984657504,0.979
0.0026999289917168266,0.98
0.0027032104219119647,0.981
0.0027069567933407485,0.982
0.002711158495284278,0.983
0.002715806994094663,0.984
0.0027208942552599527,0.985
0.002726411707242602,0.986
0.0027323495930651745,0.987
0.0027386973921781975,0.988
0.002745445012307638,0.989
0.0027525839437897107,0.99
0.002760107891970679,0.991
0.0027680127655927878,0.992
0.002776296071406019,0.993
0.0027849558899551226,0.994
0.00279398969052953,0.995
0.0028033933169303816,0.996
0.002813160467138484,0.997
0.0028232826743253684,0.998
0.0028337494267834233,0.999
0.0028445481290423047,1.0
0.0028556639036023397,1.001
0.0028670793720918164,1.002
0.002878774525177646,1.003
0.002890726713472142,1.004
0.0029029108127110984,1.005
0.0029152996351623764,1.006
0.002927864502254825,1.007
0.002940575752119131,1.008
0.0029534029929905743,1.009
0.002966315024275418,1.01
0.0029792794420184818,1.011
0.0029922620750710252,1.012
0.0030052265984582237,1.013
0.003018134659426865,1.014
0.003030946469230247,1.015
0.0030436215059396893,1.016
0.0030561190165361166,1.017
0.0030683981417601053,1.018
0.0030804175605373308,1.019
0.0030921347710334626,1.02
0.003103505585557398,1.021
0.0031144844794746295,1.022
0.003125025735960787,1.023
0.00313508476917589,1.024
0.0031446191563085585,1.025
0.003153589237027837,1.026
0.003161958292341323,1.027
0.003169692377380794,1.028
0.0031767599102394063,1.029
0.0031831311087457013,1.03
0.003188777318578444,1.031
0.0031936702068168926,1.032
0.0031977807878387668,1.033
0.00320107853175803,1.034
0.003203531223602199,1.035
0.003205105984523197,1.036
0.00320577107049623,1.037
0.0032054978475847284,1.038
0.0032042626614037432,1.039
0.003202048467535333,1.04
0.003198846059753389,1.041
0.003194654695151859,1.042
0.0031894819005476743,1.043
0.0031833422918762437,1.044
0.0031762553700311127,1.045
0.003168242766257876,1.046
0.0031593263337156377,1.047
0.003149528372087124,1.048
0.0031388735405017457,1.049
0.003127390883657742,1.05
0.003115114977917999,1.051
0.0031020860700117564,1.052
0.003088349419050642,1.053
0.003073954119512439,1.054
0.003058951648108893,1.055
0.0030433943136567347,1.056
0.003027333778756111,1.057
0.0030108198975263008,1.058
0.0029939001187190744,1.059
0.0029766194100760714,1.06
0.0029590203493637564,1.061
0.002941143116744131,1.062
0.0029230253905500056,1.063
0.002904702307069452,1.064
0.0028862066639724652,1.065
0.00286756938374002,1.066
0.002848820064063196,1.067
0.002829987408558657,1.068
0.0028110993875637338,1.069
0.0027921830471099446,1.07
0.002773264031910922,1.071
0.0027543661587956917,1.072
0.0027355114587295547,1.073
0.0027167207185030493,1.074
0.0026980141448725943,1.075
0.0026794118103473856,1.076
0.0026609337667270836,1.077
0.00264259983295585,1.078
0.002624429125572386,1.079
0.002606439469277713,1.08
0.0025886468917793674,1.081
0.002571065427967287,1.082
0.002553707380550163,1.083
0.002536584010055264,1.084
0.002519706438567233,1.085
0.002503086447908953,1.086
0.0024867368756128706,1.087
0.0024706714344068024,1.088
0.0024549039672488444,1.089
0.0024394475112815006,1.09
0.002424313910770889,1.091
0.0024095143437318344,1.092
0.0023950602486744817,1.093
0.0023809639723996853,1.094
0.002367238923097735,1.095
0.002353899297722247,1.096
0.0023409595177375196,1.097
0.002328433520720227,1.098
0.0023163340589573036,1.099
0.0023046721893639783,1.1
0.0022934570892349337,1.101
0.002282696111336395,1.102
0.0022723948350193033,1.103
0.002262556992136549,1.104
0.002253184373027329,1.105
0.0022442768583344702,1.106
0.0022358325462679186,1.107
0.002227847808318934,1.108
0.002220317242823945,1.109
0.002213233765417463,1.11
0.0022065890351412854,1.111
0.002200374048793579,1.112
0.00219457954864787,1.113
0.0021891960052698167,1.114
0.0021842131973048755,1.115
0.0021796197931510603,1.116
0.0021754034550914977,1.117
0.002171551496278318,1.118
0.002168051612402249,1.119
0.0021648922353202666,1.12
0.002162062314300097,1.121
0.0021595506246235357,1.122
0.0021573451295129795,1.123
0.002155432967208585,1.124
0.0021538009407593033,1.125
0.0021524358142069083,1.126
0.0021513240372014117,1.127
0.002150451328735679,1.128
0.00214980286365914,1.129
0.0021493641421634784,1.13
0.0021491218578643823,1.131
0.0021490641523515533,1.132
0.0021491801442628023,1.133
0.0021494589936525673,1.134
0.002149889061154264,1.135
0.002150457722451321,1.136
0.0021511518451160965,1.137
0.0021519584457920463,1.138
0.0021528651755454574,1.139
0.00215386059758553,1.14
0.0021549342957622583,1.141
0.0021560768020842938,1.142
0.002157279311352678,1.143
0.002158533184355931,1.144
0.0021598293027044633,1.145
0.002161157405170796,1.146
0.0021625055696103124,1.147
0.002163859960739073,1.148
0.002165204912725942,1.149
0.0021665233652218177,1.15
0.0021677975133089964,1.151
0.0021690093679909215,1.152
0.0021701409166416234,1.153
0.0021711737847747055,1.154
0.002172088781104103,1.155
0.002172866004244104,1.156
0.002173485680597737,1.157
0.0021739291498645303,1.158
0.0021741793624619485,1.159
0.002174220661207473,1.16
0.002174037925983254,1.161
0.002173615462426628,1.162
0.002172936250836383,1.163
0.0021719817667984996,1.164
0.0021707320674140616,1.165
0.0021691662207210024,1.166
0.002167263462502089,1.167
0.002165004848912939,1.168
0.0021623747153184515,1.169
0.0021593614155957534,1.17
0.0021559570944790557,1.171
0.0021521564975458436,1.172
0.0021479552947311197,1.173
0.0021433490121660027,1.174
0.0021383333750640385,1.175
0.002132905585639099,1.176
0.002127065518754761,1.177
0.0021208163658862846,1.178
0.0021141647513151732,1.179
0.002107120474415234,1.18
0.0020996960431627363,1.181
0.0020919061285637505,1.182
0.0020837670146022958,1.183
0.0020752960734937596,1.184
0.0020665112752945984,1.185
0.002057430734472964,1.186
0.0020480722819345176,1.187
0.0020384530168782223,1.188
0.0020285888688626533,1.189
0.00201849446063322,1.19
0.0020081835718411645,1.191
0.001997670066781365,1.192
0.0019869688506461013,1.193
0.0019760964992906176,1.194
0.0019650713701539783,1.195
0.0019539131628007627,1.196
0.0019426420786651736,1.197
0.0019312778610749563,1.198
0.0019198390199133286,1.199
0.0019083424562808642,1.2
0.0018968035469703788,1.201
0.0018852365923224597,1.202
0.0018736554252172073,1.203
0.001862073942559458,1.204
0.0018505063506802767,1.205
0.0018389670024107905,1.206
0.0018274698924574076,1.207
0.0018160281853160784,1.208
0.0018046542292923923,1.209
0.0017933600768172812,1.21
0.0017821580978659292,1.211
0.001771061343960365,1.212
0.001760083596292903,1.213
0.0017492391665800168,1.214
0.0017385425481647673,1.215
0.0017280080114910243,1.216
0.0017176492200657444,1.217
0.001707478917449126,1.218
0.0016975086994956354,1.219
0.0016877488454461397,1.22
0.0016782081928742698,1.221
0.0016688941303269428,1.222
0.0016598128022082233,1.223
0.0016509695084103138,1.224
0.0016423692014802915,1.225
0.0016340169815709155,1.226
0.0016259184804125054,1.227
0.0016180800202742647,1.228
0.0016105084633374945,1.229
0.0016032107352871928,1.23
0.0015961932153645386,1.231
0.0015894614479101312,1.232
0.001583020423313498,1.233
0.0015768751012664502,1.234
0.001571030726502712,1.235
0.0015654927983233318,1.236
0.0015602667610807657,1.237
0.0015553575432566975,1.238
0.0015507691045598415,1.239
0.0015465041415357553,1.24
0.0015425639877442003,1.241
0.00153894859883135,1.242
0.0015356565276730628,1.243
0.0015326849098101088,1.244
0.0015300294886191005,1.245
0.0015276846405585828,1.246
0.0015256433647228237,1.247
0.0015238972795904734,1.248
0.0015224367058590859,1.249
0.001521250862836512,1.25
0.0015203281406958305,1.251
0.001519656384918437,1.252
0.0015192231305489775,1.253
0.0015190157494827446,1.254
0.0015190215133977652,1.255
0.0015192275864261066,1.256
0.0015196209297250697,1.257
0.0015201880666773308,1.258
0.0015209147451360188,1.259
0.001521785746852822,1.26
0.0015227850791154614,1.261
0.0015238964496453445,1.262
0.0015251037521178037,1.263
0.0015263914071228187,1.264
0.0015277445112336081,1.265
0.0015291487674055622,1.266
0.0015305901819993143,1.267
0.0015320545663148211,1.268
0.0015335270423051544,1.269
0.0015349918954006211,1.27
0.0015364329046200734,1.271
0.0015378338848800785,1.272
0.0015391791255916383,1.273
0.0015404536151998906,1.274
0.001541643054859355,1.275
0.001542733684320642,1.276
0.0015437119438865775,1.277
0.0015445639999493736,1.278
0.0015452752746890918,1.279
0.001545830307195356,1.28
0.001546213155016528,1.281
0.001546408153525524,1.282
0.0015464007270986114,1.283
0.0015461780840742613,1.284
0.001545729687187805,1.285
0.0015450473889104133,1.286
0.001544125157565122,1.287
0.0015429583922847074,1.288
0.0015415429834830193,1.289
0.0015398745671134524,1.29
0.001537948493078147,1.291
0.0015357605398297251,1.292
0.001533307905016165,1.293
0.0015305900609632254,1.294
0.0015276093350977272,1.295
0.0015243711644019496,1.296
0.0015208839622819735,1.297
0.0015171585455996893,1.298
0.0015132071293366153,1.299
0.0015090421902613854,1.3
0.0015046759284141572,1.301
0.0015001207466410363,1.302
0.0014953902246742177,1.303
0.0014904998209196657,1.304
0.0014854669945334976,1.305
0.0014803107467032432,1.306
0.0014750507505690623,1.307
0.0014697065150336447,1.308
0.0014642971142037442,1.309
0.0014588415367357312,1.31
0.0014533591595965423,1.311
0.001447869921005456,1.312
0.0014423941436056322,1.313
0.001436952133868686,1.314
0.00143156370024992,1.315
0.0014262477253431764,1.316
0.0014210218988062967,1.317
0.0014159026183314302,1.318
0.0014109049646553649,1.319
0.001406042683592347,1.32
0.0014013281899549661,1.321
0.0013967726416955675,1.322
0.0013923861251013009,1.323
0.0013881779397962209,1.324
0.0013841569150520182,1.325
0.0013803316814309005,1.326
0.0013767108466117125,1.327
0.001373303052009608,1.328
0.0013701169097215188,1.329
0.0013671608390812802,1.33
0.0013644428362441924,1.331
0.001361970207034926,1.332
0.0013597493161531039,1.333
0.0013577854848592116,1.334
0.0013560831446488954,1.335
0.0013546461705720592,1.336
0.0013534782123750375,1.337
0.0013525828889215813,1.338
0.0013519637778521003,1.339
0.001351624186467574,1.34
0.0013515667958326574,1.341
0.0013517934129273817,1.342
0.00135230501423754,1.343
0.0013531019867350264,1.344
0.0013541843414101988,1.345
0.001355551793211825,1.346
0.0013572037176478205,1.347
0.0013591390194335087,1.348
0.0013613559450837331,1.349
0.0013638518712224352,1.35
0.001366623108430245,1.351
0.001369664769969899,1.352
0.0013729707435353243,1.353
0.0013765337666288692,1.354
0.0013803455798848132,1.355
0.0013843971335056225,1.356
0.0013886788209168536,1.357
0.0013931807045645943,1.358
0.0013978926989599398,1.359
0.0014028046861137833,1.36
0.0014079065490335439,1.361
0.0014131881154183182,1.362
0.001418639004615045,1.363
0.0014242483673322993,1.364
0.0014300045711841698,1.365
0.0014358950424522964,1.366
0.0014419064616365868,1.367
0.0014480252295590388,1.368
0.0014542379467935838,1.369
0.001460531726890315,1.37
0.0014668942808504974,1.371
0.0014733137871508568,1.372
0.0014797786177735423,1.373
0.0014862770093345458,1.374
0.0014927967422673932,1.375
0.0014993248357447172,1.376
0.0015058472853676592,1.377
0.0015123490237321418,1.378
0.0015188143003289061,1.379
0.001525227429007909,1.38
0.0015315736773642281,1.381
0.001537840091213927,1.382
0.0015440160865566241,1.383
0.0015500936795330043,1.384
0.0015560672895052869,1.385
0.0015619331201290703,1.386
0.0015676882108518486,1.387
0.0015733294843114942,1.388
0.0015788533570820049,1.389
0.0015842561463755575,1.39
0.0015895348207089631,1.391
0.001594687557187329,1.392
0.0015997139645296218,1.393
0.0016046150602270005,1.394
0.0016093931313910731,1.395
0.0016140515942686744,1.396
0.001618594908852921,1.397
0.0016230285282952655,1.398
0.0016273587977073082,1.399
0.0016315926899373157,1.4
0.001635737293740888,1.401
0.001639799182784038,1.402
0.0016437841341325529,1.403
0.0016476975086161742,1.404
0.0016515449701308446,1.405
0.0016553330357798948,1.406
0.0016590692667071173,1.407
0.0016627621344723611,1.408
0.0016664206640300068,1.409
0.0016700539676088265,1.41
0.0016736707471563682,1.411
0.0016772788318860131,1.412
0.0016808848982224017,1.413
0.0016844945230069994,1.414
0.001688112505590262,1.415
0.0016917432113523298,1.416
0.0016953907363831855,1.417
0.001699058819010171,1.418
0.001702750527727983,1.419
0.0017064679140330538,1.42
0.0017102119311319282,1.421
0.0017139827182933746,1.422
0.001717780017366115,1.423
0.001721603455986702,1.424
0.001725452609861375,1.425
0.001729326856813942,1.426
0.001733225058831889,1.427
0.0017371451615939043,1.428
0.0017410839167228012,1.429
0.001745036934310752,1.43
0.0017489990475340587,1.431
0.0017529647840804207,1.432
0.0017569287671955203,1.433
0.0017608859464990397,1.434
0.0017648315863163797,1.435
0.0017687609698773894,1.436
0.0017726688925982345,1.437
0.0017765492524451313,1.438
0.001780395119803519,1.439
0.001784199319087036,1.44
0.0017879551680242062,1.441
0.0017916570145816069,1.442
0.001795300385535582,1.443
0.0017988816830877986,1.444
0.0018023974942318263,1.445
0.0018058438255807519,1.446
0.0018092157757781844,1.447
0.0018125078517208305,1.448
0.0018157145851427237,1.449
0.0018188310752868335,1.45
0.0018218533956042464,1.451
0.0018247789093502498,1.452
0.0018276064751664542,1.453
0.0018303364592162953,1.454
0.0018329704501491692,1.455
0.0018355106142635084,1.456
0.0018379588584389575,1.457
0.0018403163590235269,1.458
0.001842583915852472,1.459
0.0018447628938688622,1.46
0.0018468561746159773,1.461
0.0018488687801259374,1.462
0.0018508080713504891,1.463
0.0018526835311658402,1.464
0.0018545062290743508,1.465
0.0018562881204815056,1.466
0.0018580413393993196,1.467
0.0018597776047865595,1.468
0.001861507791920827,1.469
0.0018632416361713067,1.47
0.00186498751678664,1.471
0.0018667524010314805,1.472
0.0018685421334557382,1.473
0.0018703620980187183,1.474
0.0018722180453495238,1.475
0.0018741168207510913,1.476
0.0018760668008816056,1.477
0.0018780779477141573,1.478
0.0018801614952214834,1.479
0.001882329367353538,1.48
0.0018845934611660866,1.481
0.0018869649386920827,1.482
0.0018894536985681852,1.483
0.001892068172288658,1.484
0.001894815406400574,1.485
0.0018977012233215003,1.486
0.0019007303016792374,1.487
0.0019039061423256826,1.488
0.0019072309355542788,1.489
0.0019107053688218365,1.49
0.0019143284510362694,1.491
0.0019180974521137745,1.492
0.0019220080401474075,1.493
0.0019260546432813888,1.494
0.0019302309934374105,1.495
0.0019345307514803528,1.496
0.0019389480832884731,1.497
0.0019434780571267038,1.498
0.0019481167603201766,1.499
0.0019528610783780685,1.5
0.0019577081346720325,1.501
0.0019626545507334245,1.502
0.001967695969969719,1.503
0.001972827234126033,1.504
0.0019780430647994753,1.505
0.001983338773401045,1.506
0.001988710675658226,1.507
0.001994156097097536,1.508
0.00199967295618759,1.509
0.0020052590307955863,1.51
0.002010911240881537,1.511
0.002016625390039019,1.512
0.0020223964284862618,1.513
0.0020282187912293334,1.514
0.0020340863757302074,1.515
0.002039992179346448,1.516
0.002045928106146602,1.517
0.0020518854321143836,1.518
0.002057855792020283,1.519
0.0020638321422647102,1.52
0.002069809285368678,1.521
0.0020757837677992923,1.522
0.002081753122466097,1.523
0.002087714778051799,1.524
0.0020936654552029623,1.525
0.002099601621358572,1.526
0.0021055205818630088,1.527
0.002111421438169124,1.528
0.0021173055869796093,1.529
0.0021231767662592115,1.53
0.0021290407452188385,1.531
0.0021349047875185777,1.532
0.0021407770031391616,1.533
0.0021466656614345836,1.534
0.002152578493830704,1.535
0.0021585220578995484,1.536
0.0021645013756907915,1.537
0.002170520000281657,1.538
0.002176580337650109,1.539
0.0021826839044655445,1.54
0.0021888313651635695,1.541
0.0021950223728123947,1.542
0.0022012553290646207,1.543
0.002207527209955817,1.544
0.0022138335767940337,1.545
0.0022201688190545774,1.546
0.0022265265924092986,1.547
0.0022329003510122973,1.548
0.00223928384705796,1.549
0.002245671482636288,1.55
0.0022520584300898014,1.551
0.002258440464147133,1.552
0.0022648134692687815,1.553
0.0022711727243876945,1.554
0.002277512395061964,1.555
0.002283825710848782,1.556
0.002290105761133908,1.557
0.0022963463782858444,1.558
0.002302542678698616,1.559
0.002308691103511753,1.56
0.0023147889376804896,1.561
0.002320833435480386,1.562
0.002326821004779455,1.563
0.0023327470576099785,1.564
0.0023386066208981675,1.565
0.0023443951437029827,1.566
0.0023501089552160426,1.567
0.002355745217923978,1.568
0.0023613014313843238,1.569
0.002366774643806132,1.57
0.0023721607274204705,1.571
0.0023774542025875637,1.572
0.0023826487643867633,1.573
0.002387738155328022,1.574
0.0023927169728652524,1.575
0.0023975812359821607,1.576
0.0024023286517745406,1.577
0.0024069585599936732,1.578
0.0024114715776726203,1.579
0.002415868995636572,1.58
0.0024201519837343385,1.581
0.0024243207578116105,1.582
0.002428374106290488,1.583
0.002432309645042712,1.584
0.002436124690456457,1.585
0.002439817337045039,1.586
0.00244338744414075,1.587
0.0024468373718837685,1.588
0.0024501723222156526,1.589
0.0024534001633015677,1.59
0.0024565306926421352,1.591
0.002459574432481022,1.592
0.0024625413944723545,1.593
0.002465440605017138,1.594
0.002468280745633557,1.595
0.0024710713144618424,1.596
0.002473823535395315,1.597
0.00247655070806902,1.598
0.002479267975178708,1.599
0.0024819915826950574,1.6
0.0024847378042828767,1.601
0.0024875218861800602,1.602
0.002490357544764464,1.603
0.0024932572165279093,1.604
0.0024962326337775293,1.605
0.0024992952363435492,1.606
0.002502456289796073,1.607
0.002505726762416141,1.608
0.0025091170344324,1.609
0.0025126365181412373,1.61
0.0025162932613597257,1.611
0.002520093594528902,1.612
0.0025240418640722524,1.613
0.002528140269926442,1.614
0.0025323887969170254,1.615
0.0025367852052079858,1.616
0.002541325028487077,1.617
0.002546001543310723,1.618
0.0025508057573762353,1.619
0.0025557265477354776,1.62
0.0025607510291243436,1.621
0.0025658651093205015,1.622
0.002571054143886342,1.623
0.0025763036143940654,1.624
0.0025815997467057436,1.625
0.0025869299690776787,1.626
0.0025922831092243543,1.627
0.0025976492495932207,1.628
0.0026030192012419266,1.629
0.002608383626300056,1.63
0.0026137320787814507,1.631
0.002619052559056582,1.632
0.0026243319204105483,1.633
0.0026295567450054388,1.634
0.0026347141635192244,1.635
0.0026397924733791724,1.636
0.002644781608568984,1.637
0.0026496735084945468,1.638
0.0026544623850804326,1.639
0.0026591448222736294,1.64
0.0026637196057628415,1.641
0.0026681872011659878,1.642
0.0026725488625941457,1.643
0.0026768055222365266,1.644
0.0026809569557181144,1.645
0.0026850018112122087,1.646
0.0026889385110164237,1.647
0.0026927664258212768,1.648
0.002696486773403023,1.649
0.0027001030314146735,1.65
0.00270362083937533,1.651
0.0027070474584083262,1.652
0.002710390931885191,1.653
0.0027136591302702818,1.654
0.002716858866315235,1.655
0.002719995234576625,1.656
0.002723071265607763,1.657
0.0027260878989400815,1.658
0.0027290441887170514,1.659
0.0027319375896914418,1.66
0.002734764156640869,1.661
0.0027375185343795167,1.662
0.00274019370629065,1.663
0.002742780648264,1.664
0.002745268230258211,1.665
0.0027476435889152804,1.666
0.0027498928313137677,1.667
0.0027520018247160507,1.668
0.002753956960240054,1.669
0.00275574582910324,1.67
0.0027573577222218828,1.671
0.002758783849965085,1.672
0.0027600171998687787,1.673
0.002761052011890126,1.674
0.0027618829329947654,1.675
0.0027625039921695626,1.676
0.002762907677469259,1.677
0.0027630845214992954,1.678
0.002763023346924273,1.679
0.002762711876320445,1.68
0.0027621373965391396,1.681
0.002761287422323128,1.682
0.0027601503670240386,1.683
0.002758716164757005,1.684
0.0027569767480499323,1.685
0.0027549262796390597,1.686
0.0027525610636455564,1.687
0.002749879108146054,1.688
0.0027468793571347435,1.689
0.0027435606530528773,1.69
0.00273992071460971,1.691
0.0027359557682039987,1.692
0.0027316612159455425,1.693
0.0027270329196828424,1.694
0.0027220684359624586,1.695
0.002716767859907849,1.696
0.00271113413662856,1.697
0.0027051727770177024,1.698
0.002698891021701191,1.699
0.0026922965953216586,1.7
0.0026853964092856683,1.701
0.0026781958686280865,1.702
0.0026706991501998945,1.703
0.002662910022985133,1.704
0.002654832583393497,1.705
0.0026464716794265346,1.706
0.0026378330325182134,1.707
0.0026289230804857787,1.708
0.002619748548109232,1.709
0.0026103157386767775,1.71
0.002600629730717844,1.711
0.002590694056547934,1.712
0.002580511273091577,1.713
0.0025700840528192284,1.714
0.0025594161307577585,1.715
0.002548512754209399,1.716
0.0025373805128415,1.717
0.002526026531225001,1.718
0.002514457364335932,1.719
0.002502678481225687,1.72
0.0024906949012943953,1.721
0.0024785123994781307,1.722
0.00246613833531727,1.723
0.002453581687607184,1.724
0.002440852284459686,1.725
0.0024279596241495623,1.726
0.002414912200828353,1.727
0.002401717909980364,1.728
0.0023883849983207563,1.729
0.0023749226909370045,1.73
0.0023613411572783057,1.731
0.0023476508545791125,1.732
0.002333861582238068,1.733
0.0023199819819306913,1.734
0.0023060199510969845,1.735
0.002291983531216947,1.736
0.0022778815555042674,1.737
0.0022637237934070866,1.738
0.0022495206746421556,1.739
0.002235282781333975,1.74
0.002221020314608539,1.741
0.002206742692172619,1.742
0.002192458343843955,1.743
0.0021781746679042572,1.744
0.002163898019346538,1.745
0.0021496335742409384,1.746
0.0021353850942170825,1.747
0.0021211549263335868,1.748
0.0021069444878706127,1.749
0.0020927550022162406,1.75
0.0020785880851634134,1.751
0.0020644460106329825,1.752
0.0020503316825663904,1.753
0.002036248426982174,1.754
0.002022199751514003,1.755
0.00200818919263306,1.756
0.001994220293138405,1.757
0.001980296651961644,1.758
0.0019664219059307,1.759
0.0019525994764379002,1.76
0.001938832100316867,1.761
0.0019251215884655145,1.762
0.0019114692818484604,1.763
0.001897877035505301,1.764
0.0018843481133796797,1.765
0.0018708875273457124,1.766
0.0018575016488547504,1.767
0.0018441972898244903,1.768
0.001830980966340915,1.769
0.0018178590389340105,1.77
0.0018048385709701436,1.771
0.0017919281433739678,1.772
0.0017791381024014083,1.773
0.0017664801396073372,1.774
0.0017539664094506342,1.775
0.0017416087715143448,1.776
0.001729418788173339,1.777
0.0017174084355549909,1.778
0.0017055908781216159,1.779
0.001693980801419941,1.78
0.0016825942151863257,1.781
0.0016714478465919263,1.782
0.0016605583369805029,1.783
0.0016499415687815152,1.784
0.001639612430543006,1.785
0.0016295849964427674,1.786
0.0016198727703176836,1.787
0.001610488702089284,1.788
0.0016014449623713211,1.789
0.0015927527093450137,1.79
0.0015844221180049138,1.791
0.0015764626580218805,1.792
0.0015688833520534145,1.793
0.00156169283155795,1.794
0.0015548992168049028,1.795
0.0015485099420740707,1.796
0.00154253163084164,1.797
0.0015369700547472054,1.798
0.0015318301338116617,1.799
0.001527115900197078,1.8
0.0015228303752458715,1.801
0.0015189754071301847,1.802
0.0015155515980549501,1.803
0.001512558351259652,1.804
0.001509993906572825,1.805
0.0015078553128568884,1.806
0.00150613846709501,1.807
0.001504838269332499,1.808
0.0015039487257610365,1.809
0.0015034628784162541,1.81
0.0015033727281634605,1.811
0.0015036693991045825,1.812
0.00150434353360527,1.813
0.0015053857241045581,1.814
0.0015067868773567313,1.815
0.0015085385259971306,1.816
0.0015106331089002924,1.817
0.001513064185887908,1.818
0.0015158264965184054,1.819
0.001518915762542886,1.82
0.0015223281867483226,1.821
0.001526059774013581,1.822
0.00153010585674876,1.823
0.001534461148828495,1.824
0.0015391201887960614,1.825
0.0015440777820295878,1.826
0.0015493292373266769,1.827
0.0015548704082227075,1.828
0.0015606976097048556,1.829
0.001566807470708216,1.83
0.0015731967556068508,1.831
0.0015798621643730599,1.832
0.0015868001048431899,1.833
0.001594006411810316,1.834
0.0016014760339606777,1.835
0.0016092028790671694,1.836
0.0016171800496725815,1.837
0.0016254004329521099,1.838
0.0016338573655199817,1.839
0.0016425451195540275,1.84
0.001651459080031579,1.841
0.0016605955795707236,1.842
0.0016699514401422638,1.843
0.0016795233367510932,1.844
0.0016893071595436714,1.845
0.001699297592027142,1.846
0.0017094880144607172,1.847
0.001719870622707415,1.848
0.0017304365951222984,1.849
0.0017411762573458277,1.85
0.0017520792777333842,1.851
0.0017631349306781545,1.852
0.001774332446119606,1.853
0.0017856614360094896,1.854
0.0017971123567261994,1.855
0.001808676940908832,1.856
0.0018203485220643534,1.857
0.0018321221815808832,1.858
0.001843994664060624,1.859
0.0018559640261444313,1.86
0.0018680290029465122,1.861
0.0018801882034236808,1.862
0.0018924395618649785,1.863
0.0019047805366730764,1.864
0.0019172090132844085,1.865
0.0019297243667214295,1.866
0.0019423282075837617,1.867
0.001955024628551878,1.868
0.0019678199565984576,1.869
0.001980722116813903,1.87
0.001993739752955672,1.871
0.0020068812726710605,1.872
0.002020154079546727,1.873
0.0020335642695739537,1.874
0.0020471167548122516,1.875
0.0020608154389730967,1.876
0.002074663161648124,1.877
0.002088661427163506,1.878
0.0021028100807239584,1.879
0.0021171070981290917,1.88
0.0021315485883100387,1.881
0.002146129006263244,1.882
0.002160841495959599,1.883
0.002175678262141522,1.884
0.0021906308924393527,1.885
0.0022056905798830163,1.886
0.002220848207761011,1.887
0.0022360942568323476,1.888
0.0022514184972866652,1.889
0.0022668095293957055,1.89
0.0022822544721461547,1.891
0.0022977391183531923,1.892
0.0023132484838957403,1.893
0.0023287673688982516,1.894
0.0023442806247643655,1.895
0.002359773007166811,1.896
0.0023752286521709722,1.897
0.0023906304824176288,1.898
0.0024059600579000836,1.899
0.0024211980617119375,1.9
0.0024363250449493373,1.901
0.0024513219870243726,1.902
0.002466170505692346,1.903
0.0024808526897420378,1.904
0.0024953505482286846,1.905
0.0025096452384990604,1.906
0.00252371660404457,1.907
0.002537543526972309,1.908
0.0025511049464335524,1.909
0.00256438098356599,1.91
0.0025773538143761053,1.911
0.002590008209469914,1.912
0.0026023317636674074,1.913
0.0026143148498854224,1.914
0.0026259502977325298,1.915
0.0026372327600047425,1.916
0.0026481577271663987,1.917
0.0026587203556686255,1.918
0.0026689147404967755,1.919
0.0026787342603888354,1.92
0.0026881728106304763,1.921
0.0026972261518920008,1.922
0.002705892793645618,1.923
0.0027141741933967584,1.924
0.0027220742692218984,1.925
0.002729598392048275,1.926
0.0027367521485159516,1.927
0.0027435401946767197,1.928
0.002749965447831243,1.929
0.002756028726433842,1.93
0.002761728805462419,1.931
0.002767062757141094,1.932
0.002772026416447253,1.933
0.0027766148394505956,1.934
0.0027808226827388924,1.935
0.0027846444901537286,1.936
0.002788074902184757,1.937
0.002791108798114707,1.938
0.002793741357962602,1.939
0.0027959680104543204,1.94
0.0027977842214697746,1.941
0.0027991850743973126,1.942
0.00280016464166734,1.943
0.002800715379220342,1.944
0.0028008280436691083,1.945
0.002800492398975357,1.946
0.0027996984169815615,1.947
0.0027984375556864886,1.948
0.002796703945008587,1.949
0.0027944954306016105,1.95
0.002791814418546702,1.951
0.0027886684397926023,1.952
0.002785070329197507,1.953
0.0027810379129421673,1.954
0.002776593139061915,1.955
0.002771760671317404,1.956
0.0027665661396207544,1.957
0.0027610346160463228,1.958
0.0027551901064798703,1.959
0.002749056214046968,1.96
0.002742657224489828,1.961
0.002736018863161624,1.962
0.0027291685069100145,1.963
0.0027221348905724103,1.964
0.0027149474068485896,1.965
0.0027076351604273328,1.966
0.0027002259991710403,1.967
0.002692745760681261,1.968
0.0026852178925652827,1.969
0.0026776635010937098,1.97
0.0026701018058935587,1.971
0.002662550867505222,1.972
0.0026550283547551023,1.973
0.0026475521119158443,1.974
0.0026401403519223264,1.975
0.0026328114137826536,1.976
0.0026255831554065543,1.977
0.002618472181638,1.978
0.002611493184205507,1.979
0.0026046585932034357,1.98
0.0025979785859037057,1.981
0.0025914614691050926,1.982
0.0025851144212925697,1.983
0.0025789444056895598,1.984
0.002572958951683117,1.985
0.0025671665614655716,1.986
0.002561576620959048,1.987
0.0025561988114732952,1.988
0.002551042224060965,1.989
0.002546114725508027,1.99
0.002541423125423193,1.991
0.0025369740522703313,1.992
0.0025327749305674094,1.993
0.002528834586621027,1.994
0.0025251633428050556,1.995
0.0025217726509766474,1.996
0.0025186744241880413,1.997
0.0025158802787879856,1.998
0.002513400873050549,1.999
0.0025112454380956904,2.0
0.0025094214891913953,2.001
0.0025079346341507058,2.002
0.0025067884029188656,2.003
0.0025059841047051605,2.004
0.002505520758388437,2.005
0.0025053950937694515,2.006
0.0025056016670014186,2.007
0.002506133238145363,2.008
0.0025069814653821314,2.009
0.0025081377719793343,2.01
0.0025095941604523415,2.011
0.0025113437650016424,2.012
0.002513380996633933,2.013
0.0025157012389446145,2.014
0.002518300160937931,2.015
0.002521172813954625,2.016
0.002524312822260696,2.017
0.0025277120249141668,2.018
0.002531360608744668,2.019
0.002535247394979709,2.02
0.002539360025683436,2.021
0.002543685099194739,2.022
0.002548208406400764,2.023
0.0025529153669600377,2.024
0.0025577916830723537,2.025
0.0025628241511550407,2.026
0.002568001517966805,2.027
0.0025733152432757794,2.028
0.002578760032725981,2.029
0.0025843340251274537,2.03
0.0025900385554166586,2.031
0.0025958774691269147,2.032
0.002601856030873593,2.033
0.002607979608003158,2.034
0.002614252611151319,2.035
0.002620678291063004,2.036
0.0026272594557976378,2.037
0.0026339995294158073,2.038
0.002640903395041438,2.039
0.0026479778123485688,2.04
0.0026552313640821573,2.041
0.002662673948481757,2.042
0.0026703159046019775,2.043
0.002678166959656191,2.044
0.0026862353613187544,2.045
0.0026945275649857226,2.046
0.002703048419487176,2.047
0.0027118013761846423,2.048
0.0027207883630610196,2.049
0.00273000940328858,2.05
0.0027394623678874677,2.051
0.0027491430762683856,2.052
0.0027590454827802757,2.053
0.0027691616252371308,2.054
0.002779481396158111,2.055
0.002789992428319724,2.056
0.0028006801681302934,2.057
0.0028115279213392005,2.058
0.002822516849691442,2.059
0.002833626257843331,2.06
0.002844834357017456,2.061
0.0028561192590591624,2.062
0.0028674598311683227,2.063
0.0028788361827066103,2.064
0.0028902296918739685,2.065
0.0029016225863699374,2.066
0.002912997187977943,2.067
0.002924334987352333,2.068
0.0029356157707669866,2.069
0.0029468170849633467,2.07
0.0029579141942756605,2.071
0.0029688803762445578,2.072
0.0029796873145805794,2.073
0.0029903055051328383,2.074
0.003000704686866882,2.075
0.0030108543045151387,2.076
0.0030207240002571487,2.077
0.0030302841336126646,2.078
0.003039506321667359,2.079
0.0030483639647062655,2.08
0.00305683268636393,2.081
0.0030648905969482263,2.082
0.0030725182959009823,2.083
0.00307969855339048,2.084
0.003086415638500034,2.085
0.0030926542997897566,2.086
0.003098398559743045,2.087
0.0031036308032956323,2.088
0.003108331667780511,2.089
0.0031124806709923155,2.09
0.003116057053258115,2.091
0.0031190404919332424,2.092
0.003121411683318343,2.093
0.003123152873772973,2.094
0.003124248371953556,2.095
0.0031246850091981217,2.096
0.003124452464645367,2.097
0.0031235433527283386,2.098
0.003121952986067769,2.099
0.003119678767548976,2.1
0.003116719216049103,2.101
0.0031130727119384584,2.102
0.0031087363239260144,2.103
0.003103705383129942,2.104
0.0030979740866530344,2.105
0.003091536607448667,2.106
0.0030843880922997373,2.107
0.003076525389060833,2.108
0.00306794757071831,2.109
0.0030586563047778252,2.11
0.0030486560428169378,2.111
0.0030379539257261463,2.112
0.003026559263841627,2.113
0.0030144824820511683,2.114
0.0030017337523683754,2.115
0.0029883221920771388,2.116
0.002974256423998633,2.117
0.0029595461459472282,2.118
0.0029442036928307674,2.119
0.002928244969939914,2.12
0.002911689631719164,2.121
0.002894560592295768,2.122
0.0028768830423377073,2.123
0.0028586831593178045,2.124
0.002839986750852794,2.125
0.002820818296915648,2.126
0.002801200888810502,2.127
0.002781157009948124,2.128
0.002760709569896504,2.129
0.002739882712112546,2.13
0.002718702265957329,2.131
0.0026971958691237,2.132
0.002675392824049967,2.133
0.0026533237681336803,2.134
0.0026310202332731117,2.135
0.0026085141496967204,2.136
0.0025858373236581182,2.137
0.002563020899374818,2.138
0.002540094802906179,2.139
0.0025170872372040328,2.14
0.0024940244725923087,2.141
0.0024709311352102406,2.142
0.002447830865703578,2.143
0.0024247470666717797,2.144
0.002401703572537626,2.145
0.002378725160906734,2.146
0.00235583782792871,2.147
0.0023330687531013905,2.148
0.0023104459154658094,2.149
0.00228799739866716,2.15
0.0022657505567417525,2.151
0.002243731389381079,2.152
0.002221964427907565,2.153
0.0022004730295953666,2.154
0.002179279677840315,2.155
0.0021584060005175342,2.156
0.0021378725046051475,2.157
0.0021176983001131335,2.158
0.002097901167510187,2.159
0.0020784979987055236,2.16
0.0020595052634303475,2.161
0.002040939155892973,2.162
0.00202281532716785,2.163
0.002005148455176448,2.164
0.0019879521801480834,2.165
0.0019712396529450505,2.166
0.0019550243236666773,2.167
0.0019393204522976583,2.168
0.0019241431078116232,2.169
0.0019095076644456276,2.17
0.001895429025494362,2.171
0.0018819210138690968,2.172
0.0018689962135603508,2.173
0.001856666069832902,2.174
0.0018449408793408395,2.175
0.001833829601275578,2.176
0.0018233397386559858,2.177
0.0018134774669696237,2.178
0.0018042478606754711,2.179
0.0017956549648894399,2.18
0.0017877016613252672,2.181
0.0017803895257587172,2.182
0.0017737189071433766,2.183
0.0017676892027875147,2.184
0.0017622991024988188,2.185
0.0017575466557948067,2.186
0.0017534291730996255,2.187
0.0017499430345490792,2.188
0.0017470834676979348,2.189
0.0017448443430609249,2.19
0.001743218081578683,2.191
0.0017421957756632337,2.192
0.0017417675089460565,2.193
0.0017419227586829276,2.194
0.0017426507781705869,2.195
0.0017439409010735585,2.196
0.0017457827281411498,2.197
0.0017481661622433097,2.198
0.0017510812666463114,2.199
0.0017545179458393128,2.2
0.0017584654873238766,2.201
0.001762912098994257,2.202
0.0017678446931473283,2.203
0.001773249044132564,2.204
0.0017791101387256202,2.205
0.0017854124729420357,2.206
0.001792140208047418,2.207
0.0017992772033696503,2.208
0.001806806987039781,2.209
0.0018147127553619455,2.21
0.001822977487649433,2.211
0.0018315842222204047,2.212
0.0018405164760273594,2.213
0.0018497587282629204,2.214
0.0018592968428680571,2.215
0.001869118281174393,2.216
0.0018792119602056955,2.217
0.0018895676590967906,2.218
0.0019001751315416455,2.219
0.00191102353966663,2.22
0.0019221017395163907,2.221
0.001933399131467639,2.222
0.001944906350187891,2.223
0.0019566153945304154,2.224
0.0019685192045280782,2.225
0.001980610891694701,2.226
0.0019928829051448663,2.227
0.0020053263926376416,2.228
0.0020179309133626405,2.229
0.0020306845232100456,2.23
0.002043574131641241,2.231
0.0020565859562720113,2.232
0.0020697058885405547,2.233
0.0020829196203248326,2.234
0.0020962124443880807,2.235
0.002109568798218785,2.236
0.002122971903140407,2.237
0.0021364038788701445,2.238
0.0021498462624682554,2.239
0.002163280500200368,2.24
0.0021766881078594245,2.241
0.0021900504759819707,2.242
0.0022033484503175597,2.243
0.0022165618573408564,2.244
0.0022296691020126744,2.245
0.002242646872829121,2.246
0.002255469946519302,2.247
0.002268111161619363,2.248
0.0022805416810878884,2.249
0.002292731571708835,2.25
0.002304650638245068,2.251
0.0023162694346682395,2.252
0.002327560345102772,2.253
0.002338498573255738,2.254
0.0023490628454510636,2.255
0.002359235642059628,2.256
0.0023690028311383923,2.257
0.002378352676230292,2.258
0.0023872744012603912,2.259
0.0023957569397012116,2.26
0.0024037887179853192,2.261
0.0024113586496895237,2.262
0.0024184576343285664,2.263
0.0024250798550205475,2.264
0.0024312236380836494,2.265
0.0024368918519457232,2.266
0.0024420918651903386,2.267
0.0024468351151264115,2.268
0.0024511363506957155,2.269
0.002455012611935609,2.27
0.0024584820079769794,2.271
0.0024615624510670115,2.272
0.002464270751238795,2.273
0.002466622478695458,2.274
0.002468632453190566,2.275
0.0024703152527231318,2.276
0.002471685296493342,2.277
0.0024727564526010846,2.278
0.0024735413887859415,2.279
0.0024740510488950236,2.28
0.002474294537687348,2.281
0.002474279333545964,2.282
0.002474011571140045,2.283
0.002473496266043931,2.284
0.0024727374584227802,2.285
0.0024717382175764285,2.286
0.002470500420570893,2.287
0.002469024412169072,2.288
0.002467309007708457,2.289
0.0024653522043232394,2.29
0.002463152390319369,2.291
0.0024607096000847936,2.292
0.002458026547585835,2.293
0.0024551093143857002,2.294
0.002451967622748649,2.295
0.0024486146812968397,2.296
0.0024450666386541405,2.297
0.0024413417163492747,2.298
0.002437459123743314,2.299
0.002433437889984277,2.3
0.0024292958383226523,2.301
0.0024250490257199018,2.302
0.002420711773318216,2.303
0.002416297058421229,2.304
0.002411817050872241,2.305
0.0024072837982647513,2.306
0.0024027100718838133,2.307
0.002398110256787801,2.308
0.002393501087366874,2.309
0.0023889020264694963,2.31
0.0023843351498742094,2.311
0.0023798245066903104,2.312
0.0023753950542874636,2.313
0.002371071440635878,2.314
0.0023668770982174297,2.315
0.002362833982793207,2.316
0.002358962761215345,2.317
0.00235528296326979,2.318
0.002351812848979835,2.319
0.0023485690831732283,2.32
0.002345566493396594,2.321
0.0023428181252868364,2.322
0.002340335528634396,2.323
0.0023381290471932215,2.324
0.0023362079682902256,2.325
0.002334580500447908,2.326
0.0023332536034689454,2.327
0.002332232737275737,2.328
0.002331521619437343,2.329
0.0023311220615957634,2.33
0.00233103388900859,2.331
0.002331254900269831,2.332
0.0023317809078154147,2.333
0.002332606040313803,2.334
0.0023337234357300616,2.335
0.0023351262259786133,2.336
0.0023368085677141054,2.337
0.0023387664768906467,2.338
0.0023409982983544743,2.339
0.0023435047435575473,2.34
0.00234628852044906,2.341
0.0023493536294121554,2.342
0.0023527044147747976,2.343
0.0023563445651879227,2.344
0.0023602764877236233,2.345
0.0023645014060007957,2.346
0.0023690199993444006,2.347
0.0023738330855158636,2.348
0.0023789420293879567,2.349
0.0023843487934174265,2.35
0.002390055641717119,2.351
0.0023960645638135556,2.352
0.0024023765604277944,2.353
0.0024089910521283915,2.354
0.0024159056655268492,2.355
0.0024231163612354165,2.356
0.002430617602102939,2.357
0.002438402338440835,2.358
0.0024464618105201393,2.359
0.002454785338459651,2.36
0.0024633603452295346,2.361
0.0024721727138977087,2.362
0.0024812073435256914,2.363
0.0024904487200694938,2.364
0.002499881396711812,2.365
0.0025094903218539017,2.366
0.0025192609843802615,2.367
0.0025291793903677424,2.368
0.0025392319109612898,2.369
0.002549405027684721,2.37
0.002559684964571448,2.371
0.0025700571757366984,2.372
0.002580505748241999,2.373
0.002591013000859409,2.374
0.002601559576735916,2.375
0.002612124980198541,2.376
0.0026226882664555184,2.377
0.002633228709019863,2.378
0.0026437264304343963,2.379
0.0026541630098448135,2.38
0.0026645220522668513,2.381
0.002674789673269869,2.382
0.00268495483146778,2.383
0.002695009435437122,2.384
0.002704948161338903,2.385
0.002714767939766304,2.386
0.0027244671038111784,2.387
0.0027340442335186785,2.388
0.002743496962074007,2.389
0.002752821395920173,2.39
0.002762012561638694,2.391
0.0027710654536153975,2.392
0.0027799760245178257,2.393
0.002788741863519322,2.394
0.002797362549757374,2.395
0.002805839717977497,2.396
0.0028141769144171356,2.397
0.0028223793461888192,2.398
0.0028304536233358457,2.399
0.0028384075523671575,2.4
0.0028462499719956766,2.401
0.0028539905552084073,2.402
0.0028616394731063935,2.403
0.0028692068421980236,2.404
0.002876701948615314,2.405
0.002884132453773316,2.406
0.0028915040709562357,2.407
0.0028988210160383557,2.408
0.002906086933737926,2.409
0.0029133058071977953,2.41
0.002920482575336913,2.411
0.0029276233116272282,2.412
0.002934734887641587,2.413
0.0029418241678848605,2.414
0.002948896980509286,2.415
0.002955957345717114,2.416
0.002963007339702804,2.417
0.002970047428272029,2.418
0.0029770767864212063,2.419
0.002984093324053035,2.42
0.002991093401407392,2.421
0.0029980713853787256,2.422
0.0030050194201790797,2.423
0.0030119277715377007,2.424
0.003018785710433243,2.425
0.0030255826357801956,2.426
0.003032309176562123,2.427
0.00303895805328512,2.428
0.003045524453927371,2.429
0.0030520057182332485,2.43
0.003058400259391786,2.431
0.003064706099422402,2.432
0.003070920070449769,2.433
0.003077038456064001,2.434
0.0030830585528502114,2.435
0.0030889801231081745,2.436
0.00309480623468678,2.437
0.0031005433949231323,2.438
0.003106200999001475,2.439
0.0031117901739458062,2.44
0.0031173222635267903,2.441
0.0031228076282907922,2.442
0.0031282555932231684,2.443
0.003133675596770497,2.444
0.0031390786909797777,2.445
0.0031444785789544677,2.446
0.003149891892807381,2.447
0.0031553377200347556,2.448
0.0031608365193784675,2.449
0.0031664086886188554,2.45
0.003172073288877809,2.451
0.0031778475804571807,2.452
0.0031837475287837687,2.453
0.0031897887208298973,2.454
0.0031959871371946788,2.455
0.003202359650658583,2.456
0.0032089242924011083,2.457
0.0032157003128533415,2.458
0.0032227080479087906,2.459
0.003229968591453845,2.46
0.003237503268815211,2.461
0.0032453329036708253,2.462
0.0032534769531329232,2.463
0.0032619528390267012,2.464
0.00327077591945314,2.465
0.003279960143471705,2.466
0.003289518949524953,2.467
0.0032994659808435653,2.468
0.0033098154449430956,2.469
0.003320582078841933,2.47
0.003331780744344937,2.471
0.003343425732532487,2.472
0.00335552990146545,2.473
0.003368103899901718,2.474
0.003381155870994379,2.475
0.0033946917812534127,2.476
0.0034087160125264282,2.477
0.003423231734030843,2.478
0.003438240793119021,2.479
0.003453743200481658,2.48
0.003469736783622109,2.481
0.0034862175980775035,2.482
0.003503180927880089,2.483
0.0035206222133150897,2.484
0.0035385374735308257,2.485
0.003556923119094944,2.486
0.003575775180710057,2.487
0.003595088239514258,2.488
0.0036148548274586817,2.489
0.0036350659189828003,2.49
0.0036557121621554178,2.491
0.003676785004942775,2.492
0.0036982772315801962,2.493
0.0037201828328683297,2.494
0.003742496336581075,2.495
0.0037652118288210956,2.496
0.003788321900413703,2.497
0.003811816721410616,2.498
0.003835683481883692,2.499
0.003859906395188348,2.5
0.0038844671936611405,2.501
0.003909345814321951,2.502
0.003934520976948496,2.503
0.003959970438710422,2.504
0.003985670770094038,2.505
0.004011596692674511,2.506
0.004037720470696224,2.507
0.00406401207364352,2.508
0.0040904402587003275,2.509
0.0041169739806137225,2.51
0.004143583477958529,2.511
0.0041702407094052875,2.512
0.004196919021242841,2.513
0.004223592049641285,2.514
0.004250232217733232,2.515
0.004276809824443474,2.516
0.0043032936199843075,2.517
0.004329652602695007,2.518
0.004355858087234722,2.519
0.004381885433293961,2.52
0.004407715227960445,2.521
0.004433333842544288,2.522
0.0044587333480972866,2.523
0.004483910826714908,2.524
0.00450886714244659,2.525
0.004533605242511589,2.526
0.004558128123915042,2.527
0.004582436991220054,2.528
0.004606530589720529,2.529
0.004630406132717194,2.53
0.004654061039937557,2.531
0.004677494543358162,2.532
0.004700708858533308,2.533
0.004723709924751996,2.534
0.004746507717255051,2.535
0.004769116126385686,2.536
0.004791552414676056,2.537
0.004813836304703153,2.538
0.004835988794064904,2.539
0.0048580308180623125,2.54
0.004879981881438668,2.541
0.004901858781620505,2.542
0.004923674620980247,2.543
0.004945438357345272,2.544
0.004967154881135066,2.545
0.004988825253568427,2.546
0.0050104468013163535,2.547
0.005032013060553717,2.548
0.005053513705366035,2.549
0.005074934609025506,2.55
0.00509625816728737,2.551
0.005117463964402295,2.552
0.005138529783634746,2.553
0.005159432860382863,2.554
0.005180151176567079,2.555
0.005200664538866149,2.556
0.00522095519172735,2.557
0.005241007786059445,2.558
0.0052608086404376956,2.559
0.005280344368928864,2.56
0.005299600117958478,2.561
0.0053185579678049315,2.562
0.005337196254066547,2.563
0.0053554900021800175,2.564
0.005373411844836793,2.565
0.005390932846611474,2.566
0.005408023217639552,2.567
0.005424653098756872,2.568
0.005440793507446107,2.569
0.0054564173936980835,2.57
0.00547150063456411,2.571
0.005486022736535064,2.572
0.005499967009735697,2.573
0.005513320003425102,2.574
0.005526070047933074,2.575
0.005538205122107899,2.576
0.005549711200946485,2.577
0.0055605725669379165,2.578
0.005570774145381411,2.579
0.005580304382472859,2.58
0.0055891572671259784,2.581
0.005597332895656703,2.582
0.005604836458535924,2.583
0.005611675875865553,2.584
0.005617858791149057,2.585
0.005623390083469339,2.586
0.005628270673308766,2.587
0.005632497243533556,2.588
0.005636062321426079,2.589
0.005638954995206231,2.59
0.005641162407425634,2.591
0.005642671288168645,2.592
0.005643468659325166,2.593
0.005643541274759102,2.594
0.005642874159457785,2.595
0.005641449906895173,2.596
0.005639250329482281,2.597
0.005636259959629719,2.598
0.005632469581706896,2.599
0.0056278785017359,2.6
0.005622495036328038,2.601
0.005616335138361989,2.602
0.005609419400306379,2.603
0.005601769369209523,2.604
0.005593405216782269,2.605
0.005584346310171092,2.606
0.00557461373195262,2.607
0.005564232585252803,2.608
0.005553232952213097,2.609
0.005541649481712164,2.61
0.005529519971879135,2.611
0.005516883394772837,2.612
0.005503777751918221,2.613
0.005490238168554939,2.614
0.0054762958067470745,2.615
0.00546197791466149,2.616
0.005447308564903519,2.617
0.005432309353368825,2.618
0.005416999701519729,2.619
0.005401396741247688,2.62
0.005385514899355468,2.621
0.005369365373750394,2.622
0.005352955699628933,2.623
0.005336289527861279,2.624
0.005319366624718377,2.625
0.005302183024154494,2.626
0.0052847312615294725,2.627
0.005267000673194424,2.628
0.0052489778080792495,2.629
0.005230647017614462,2.63
0.005211991244625422,2.631
0.005192992923670869,2.632
0.005173634767232411,2.633
0.005153900101553859,2.634
0.005133772396423251,2.635
0.005113234018611535,2.636
0.005092265247107269,2.637
0.0050708450104191925,2.638
0.0050489535055283224,2.639
0.005026575408579059,2.64
0.0050037024371322415,2.641
0.004980334741445142,2.642
0.004956481013034339,2.643
0.004932157413786593,2.644
0.004907385601951605,2.645
0.004882190209395037,2.646
0.004856596173337119,2.647
0.0048306266716836264,2.648
0.004804302752970878,2.649
0.004777645010740967,2.65
0.004750676341662134,2.651
0.00472342456872947,2.652
0.004695924230699693,2.653
0.004668217159110985,2.654
0.004640351683108699,2.655
0.00461238061533677,2.656
0.004584358477330331,2.657
0.0045563387431563,2.658
0.004528372017974279,2.659
0.004500505387097829,2.66
0.004472782269792831,2.661
0.0044452423376387905,2.662
0.004417921570473764,2.663
0.004390852368693571,2.664
0.004364063851128921,2.665
0.0043375828905299965,2.666
0.004311435952006865,2.667
0.0042856510517402914,2.668
0.004260259050977958,2.669
0.004235293801146769,2.67
0.00421079103684341,2.671
0.00418678646509499,2.672
0.0041633141687199915,2.673
0.004140406349577683,2.674
0.0041180942142440705,2.675
0.004096408926765566,2.676
0.004075381921388464,2.677
0.004055044502772325,2.678
0.004035426889707035,2.679
0.004016557109206981,2.68
0.003998460514414417,2.681
0.003981160336700436,2.682
0.003964678717012731,2.683
0.003949037421072536,2.684
0.003934257906749228,2.685
0.003920360715173709,2.686
0.003907364483609029,2.687
0.0038952853997700474,2.688
0.0038841376757658605,2.689
0.0038739345374843833,2.69
0.0038646887938640524,2.691
0.00385641255168706,2.692
0.003849116308186082,2.693
0.00384280823026187,2.694
0.0038374942720859726,2.695
0.0038331788113910438,2.696
0.0038298650178433275,2.697
0.0038275545890293678,2.698
0.003826247054889915,2.699
0.0038259392405614987,2.7
0.0038266253626335327,2.701
0.003828297586822559,2.702
0.0038309465325517,2.703
0.0038345614489241897,2.704
0.00383913005523472,2.705
0.0038446381111921276,2.706
0.003851068842343011,2.707
0.0038584025160376444,2.708
0.0038666164989515565,2.709
0.0038756857847746635,2.71
0.0038855836262550398,2.711
0.0038962819161362404,2.712
0.003907751139423657,2.713
0.003919959878433478,2.714
0.0039328741632581755,2.715
0.003946457298805371,2.716
0.003960670524802361,2.717
0.00397547416057972,2.718
0.0039908286992090085,2.719
0.004006695578555405,2.72
0.00402303748417033,2.721
0.0040398180615248145,2.722
0.004057000987905059,2.723
0.0040745486730216435,2.724
0.004092421481202728,2.725
0.004110578391006863,2.726
0.004128978988486379,2.727
0.004147585896407113,2.728
0.004166366840997107,2.729
0.004185295860251951,2.73
0.0042043533646422574,2.731
0.004223525022343929,2.732
0.004242799714142729,2.733
0.0042621670386504265,2.734
0.004281615201976946,2.735
0.004301130291292553,2.736
0.004320697141063712,2.737
0.0043403009159235645,2.738
0.004359928523595009,2.739
0.004379569584363419,2.74
0.004399216965190198,2.741
0.004418866942676937,2.742
0.004438519107287735,2.743
0.004458176126942045,2.744
0.004477843430877358,2.745
0.004497528765589095,2.746
0.004517241460297043,2.747
0.004536991183700382,2.748
0.0045567863694867755,2.749
0.0045766334148512125,2.75
0.0045965377223063,2.751
0.004616506139488294,2.752
0.004636549425684211,2.753
0.004656683808787352,2.754
0.00467693129188538,2.755
0.004697318695250052,2.756
0.004717875659812998,2.757
0.004738632125561992,2.758
0.004759616269087438,2.759
0.004780853933956837,2.76
0.004802369530171656,2.761
0.004824187310417064,2.762
0.004846332117746348,2.763
0.004868829402763456,2.764
0.004891704615820533,2.765
0.0049149821518394195,2.766
0.004938684075254545,2.767
0.004962828948492326,2.768
0.004987431161552356,2.769
0.005012500835325052,2.77
0.005038043868999583,2.771
0.005064061838090263,2.772
0.005090552025032774,2.773
0.005117507896793512,2.774
0.005144919833840617,2.775
0.005172775647945697,2.776
0.005201060549444648,2.777
0.005229756593800248,2.778
0.005258842275912041,2.779
0.005288293088678662,2.78
0.005318083025028538,2.781
0.0053481862876245114,2.782
0.005378578606795122,2.783
0.0054092379381059,2.784
0.005440144495583728,2.785
0.005471280179356827,2.786
0.005502627540118487,2.787
0.0055341684718260556,2.788
0.005565882829563936,2.789
0.005597747136131538,2.79
0.005629733557477766,2.791
0.005661809413428528,2.792
0.0056939373743491025,2.793
0.005726076213676594,2.794
0.005758181971677557,2.795
0.005790209534592364,2.796
0.005822114587887383,2.797
0.0058538557147546815,2.798
0.005885396245306768,2.799
0.00591670539928326,2.8
0.005947758354448766,2.801
0.005978535097340587,2.802
0.006009018195805036,2.803
0.006039189964084338,2.804
0.00606902996527579,2.805
0.0060985139099424745,2.806
0.006127613988864,2.807
0.006156299532144754,2.808
0.0061845371381912565,2.809
0.006212290326761663,2.81
0.006239519147877284,2.811
0.006266180140912688,2.812
0.006292226879844589,2.813
0.006317611111430037,2.814
0.006342284273001344,2.815
0.006366199051197792,2.816
0.006389310652367963,2.817
0.006411577564943524,2.818
0.006432961729678694,2.819
0.006453428142353273,2.82
0.006472943983185014,2.821
0.006491477399503658,2.822
0.00650899605497621,2.823
0.006525465495829208,2.824
0.006540847561215163,2.825
0.0065550996508004005,2.826
0.006568175703240188,2.827
0.006580028786188882,2.828
0.00659061454512152,2.829
0.0065998948800591855,2.83
0.006607841314109287,2.831
0.00661443741108335,2.832
0.006619679583107893,2.833
0.006623575803441028,2.834
0.006626142095224308,2.835
0.0066273976910951925,2.836
0.006627361495834419,2.837
0.006626052302559973,2.838
0.006623492032890427,2.839
0.0066197092022688125,2.84
0.006614740936961341,2.841
0.006608633453789207,2.842
0.006601441379750722,2.843
0.006593226242208269,2.844
0.006584054347252085,2.845
0.006573994193318588,2.846
0.006563113612883177,2.847
0.006551477220717978,2.848
0.00653914520009174,2.849
0.0065261737970533865,2.85
0.006512616571534642,2.851
0.006498525386929738,2.852
0.006483950958370181,2.853
0.006468943146998879,2.854
0.006453551147572271,2.855
0.006437823634435813,2.856
0.006421808842559125,2.857
0.006405554492416094,2.858
0.006389107433748491,2.859
0.006372512889887254,2.86
0.0063558132644890505,2.861
0.006339046863062156,2.862
0.006322247405092852,2.863
0.0063054447776235605,2.864
0.006288666298292963,2.865
0.0062719374656710685,2.866
0.006255281781755824,2.867
0.00623871977297301,2.868
0.006222267858192098,2.869
0.006205937960796005,2.87
0.006189738007101449,2.871
0.0061736724410525745,2.872
0.00615774203525905,2.873
0.006141943402058455,2.874
0.006126269302706203,2.875
0.006110710177579103,2.876
0.006095256107803267,2.877
0.006079898147799597,2.878
0.006064628478165991,2.879
0.006049439312088655,2.88
0.0060343210079211035,2.881
0.006019260481445687,2.882
0.006004240946376361,2.883
0.005989242848047332,2.884
0.005974244980962105,2.885
0.005959225120830171,2.886
0.005944160146024573,2.887
0.005929025877739298,2.888
0.0059137969222590086,2.889
0.005898446788459911,2.89
0.0058829484484815954,2.891
0.005867275314478716,2.892
0.005851402370205996,2.893
0.005835307005378602,2.894
0.0058189690388088045,2.895
0.005802369528378182,2.896
0.005785488695712944,2.897
0.005768304686414653,2.898
0.005750794869718164,2.899
0.005732939184110676,2.9
0.0057147235963639605,2.901
0.005696142318317135,2.902
0.005677198322215943,2.903
0.005657902208572299,2.904
0.005638269888272166,2.905
0.0056183198031362095,2.906
0.005598070392792127,2.907
0.005577538228645367,2.908
0.005556736821029501,2.909
0.005535675850769873,2.91
0.005514360842651116,2.911
0.005492793818567631,2.912
0.005470975318280541,2.913
0.005448907391268473,2.914
0.005426596709477627,2.915
0.005404056989669161,2.916
0.00538131007198781,2.917
0.00535838524918172,2.918
0.005335316800085794,2.919
0.005312140513691928,2.92
0.0052888912592983835,2.921
0.00526560326442465,2.922
0.005242312182798272,2.923
0.005219056636379869,2.924
0.005195877973840368,2.925
0.0051728184153780445,2.926
0.005149918801217292,2.927
0.005127217640308424,2.928
0.005104751903747334,2.929
0.005082558107721179,2.93
0.005060672169098661,2.931
0.005039128217583305,2.932
0.005017958179415577,2.933
0.004997193417224389,2.934
0.0049768674234297846,2.935
0.004957017740241896,2.936
0.004937686260905483,2.937
0.004918917902164878,2.938
0.004900758212205511,2.939
0.004883251239254422,2.94
0.0048664390382450635,2.941
0.004850362799020582,2.942
0.004835064298948811,2.943
0.004820586688482611,2.944
0.004806974469563561,2.945
0.004794272835179604,2.946
0.004782526540618346,2.947
0.004771778520484573,2.948
0.004762068685055355,2.949
0.004753433458639756,2.95
0.004745906114829271,2.951
0.0047395172630450835,2.952
0.00473429485877624,2.953
0.00473026372909044,2.954
0.004727445219801296,2.955
0.004725857505075765,2.956
0.004725516273213197,2.957
0.004726435027999694,2.958
0.00472862470038404,2.959
0.004732093055849889,2.96
0.004736844625999691,2.961
0.00474288116225379,2.962
0.004750201833918072,2.963
0.0047588028740484485,2.964
0.004768677574462333,2.965
0.004779817409648464,2.966
0.0047922136069496685,2.967
0.004805857882746273,2.968
0.00482074178568268,2.969
0.004836855278404607,2.97
0.004854186164421553,2.971
0.004872721189092547,2.972
0.004892447675232305,2.973
0.004913354162556926,2.974
0.00493542962752974,2.975
0.00495866178418335,2.976
0.004983035438441492,2.977
0.005008531594555539,2.978
0.005035127265270844,2.979
0.005062795995904625,2.98
0.00509150936304422,2.981
0.005121238992501497,2.982
0.005151958047661419,2.983
0.005183641439831696,2.984
0.005216264572383831,2.985
0.0052498013213863794,2.986
0.0052842229377926325,2.987
0.005319498793213727,2.988
0.005355597841888534,2.989
0.0053924893282994634,2.99
0.005430142504643673,2.991
0.005468525876598091,2.992
0.005507606569752248,2.993
0.005547350217423944,2.994
0.0055877214288007244,2.995
0.005628684565030963,2.996
0.005670204359548011,2.997
0.0057122459292324995,2.998
0.005754773914419393,2.999
0.00579775095225597,3.0
0.0058411364377009365,3.001
0.005884886660401307,3.002
0.005928956315337297,3.003
0.005973300392914257,3.004
0.006017875624082353,3.005
0.006062641211863647,3.006
0.006107558837369733,3.007
0.006152592013689117,3.008
0.006197704880367851,3.009
0.006242860491134163,3.01
0.006288018946086734,3.011
0.00633313645928872,3.012
0.006378166263979106,3.013
0.006423060836090261,3.014
0.006467774243327485,3.015
0.006512263910574054,3.016
0.006556491475975707,3.017
0.006600422499647404,3.018
0.006644024923435667,3.019
0.006687266529539036,3.02
0.006730112431089086,3.021
0.00677252412577116,3.022
0.006814460435495818,3.023
0.00685587884813645,3.024
0.006896735756817928,3.025
0.006936985344438363,3.026
0.006976578015006282,3.027
0.007015459782785498,3.028
0.007053572954325581,3.029
0.007090856726183982,3.03
0.007127246727653826,3.031
0.007162674849226735,3.032
0.007197071272700303,3.033
0.007230368417066636,3.034
0.007262504878274742,3.035
0.0072934279432803496,3.036
0.00732309426124092,3.037
0.007351468819217873,3.038
0.007378522593862543,3.039
0.007404229244644094,3.04
0.007428561519552931,3.041
0.007451488959787361,3.042
0.007472978440686138,3.043
0.007492997211606671,3.044
0.0075115167557786395,3.045
0.007528516262763762,3.046
0.007543985234093823,3.047
0.007557924903513994,3.048
0.007570348191948395,3.049
0.007581278089070144,3.05
0.007590744628983493,3.051
0.007598780912019871,3.052
0.007605418994239126,3.053
0.007610686912168321,3.054
0.007614607757440008,3.055
0.007617200290247827,3.056
0.0076184798167559025,3.057
0.007618458803779069,3.058
0.007617147571256547,3.059
0.0076145555007932865,3.06
0.007610692883170494,3.061
0.007605573166953154,3.062
0.007599215112223881,3.063
0.007591644266713839,3.064
0.007582893269485237,3.065
0.00757300072928871,3.066
0.007562008763472821,3.067
0.007549959627200702,3.068
0.007536892453251517,3.069
0.007522841711505947,3.07
0.0075078380721472085,3.071
0.007491910478094675,3.072
0.007475087995711201,3.073
0.0074574010444284815,3.074
0.007438882098653723,3.075
0.007419565987956866,3.076
0.007399489943573358,3.077
0.007378693546554522,3.078
0.007357218711568192,3.079
0.007335109759836576,3.08
0.007312413479181109,3.081
0.007289178888006173,3.082
0.007265456321895136,3.083
0.00724129554687164,3.084
0.007216743427324523,3.085
0.007191843070639399,3.086
0.007166635861721927,3.087
0.007141165290618369,3.088
0.007115480525609104,3.089
0.007089638650433142,3.09
0.0070637052422843054,3.091
0.007037753344708539,3.092
0.007011861238640519,3.093
0.006986109589957182,3.094
0.006960578504019817,3.095
0.00693534494556856,3.096
0.0069104811080915205,3.097
0.006886054192836045,3.098
0.0068621273010659265,3.099
0.006838760576753394,3.1
0.006816011975454132,3.101
0.00679393748673443,3.102
0.0067725908546656145,3.103
0.006752022952442956,3.104
0.006732281043689923,3.105
0.006713408165354774,3.106
0.006695442783917491,3.107
0.006678418725209536,3.108
0.006662365206032861,3.109
0.006647306685192444,3.11
0.006633262446731841,3.111
0.006620246346360192,3.112
0.006608267162717256,3.113
0.006597329203184719,3.114
0.006587432405188016,3.115
0.006578571873903038,3.116
0.006570737683064149,3.117
0.006563915427672453,3.118
0.006558086882688343,3.119
0.006553229973658899,3.12
0.0065493180623592655,3.121
0.006546319099386117,3.122
0.006544195264416888,3.123
0.0065429034877520645,3.124
0.006542396844270829,3.125
0.006542626419231567,3.126
0.00654354301774862,3.127
0.006545098081710028,3.128
0.006547243363950307,3.129
0.006549929394656713,3.13
0.006553103769537653,3.131
0.006556710926598655,3.132
0.006560693932050657,3.133
0.006564997048242558,3.134
0.006569567759469805,3.135
0.006574357852123726,3.136
0.006579323623800044,3.137
0.006584425401790655,3.138
0.0065896265724347015,3.139
0.006594892231592056,3.14
0.00660018739833401,3.141
0.006605474968237902,3.142
0.006610714547682078,3.143
0.006615863554215202,3.144
0.006620880442220065,3.145
0.006625728556818634,3.146
0.006630379313257804,3.147
0.006634814033230801,3.148
0.006639024068288746,3.149
0.006643009038487398,3.15
0.006646773298247263,3.151
0.006650321667111882,3.152
0.0066536568302823056,3.153
0.006656779980767721,3.154
0.006659693282089056,3.155
0.006662401806053315,3.156
0.006664914210891389,3.157
0.00666724265286775,3.158
0.006669402628899998,3.159
0.006671413208779743,3.16
0.006673297648807298,3.161
0.006675083928314746,3.162
0.0066768045529889426,3.163
0.006678495108920472,3.164
0.006680191638516269,3.165
0.006681928089564672,3.166
0.006683735727424207,3.167
0.006685644878376461,3.168
0.006687687302537447,3.169
0.006689897561567215,3.17
0.00669231302734431,3.171
0.0066949728465337845,3.172
0.006697916312757103,3.173
0.0067011810769112105,3.174
0.0067048014745318945,3.175
0.006708807163255125,3.176
0.006713222407203557,3.177
0.006718066295372047,3.178
0.006723353666457134,3.179
0.006729096165414037,3.18
0.006735302988514624,3.181
0.006741981052341036,3.182
0.006749134385590727,3.183
0.0067567629892481456,3.184
0.006764862316045737,3.185
0.006773424404173209,3.186
0.006782440258270732,3.187
0.006791902372472951,3.188
0.0068018067623461876,3.189
0.006812154228542698,3.19
0.006822950597513755,3.191
0.006834205716034791,3.192
0.006845931117731796,3.193
0.0068581370165760845,3.194
0.006870830520533312,3.195
0.0068840164890722425,3.196
0.006897700038529156,3.197
0.006911888704239315,3.198
0.0069265933620049165,3.199
0.006941827977062787,3.2
0.006957608511499667,3.201
0.006973951329026754,3.202
0.006990871340349353,3.203
0.007008380097353238,3.204
0.007026484254404293,3.205
0.0070451849365126586,3.206
0.007064477984947804,3.207
0.007084354360803955,3.208
0.00710480013888821,3.209
0.007125796064055017,3.21
0.00714731698010595,3.211
0.007169331724555146,3.212
0.007191803990851146,3.213
0.007214694099108148,3.214
0.007237961279709651,3.215
0.007261566024634061,3.216
0.007285471937761531,3.217
0.007309646465692303,3.218
0.007334060108284299,3.219
0.0073586841113878225,3.22
0.0073834874824104104,3.221
0.007408435240972242,3.222
0.007433489202915053,3.223
0.007458610384190997,3.224
0.007483761414920873,3.225
0.007508908421080722,3.226
0.007534022515563923,3.227
0.007559081001932914,3.228
0.0075840681762100026,3.229
0.007608975421358924,3.23
0.007633800242831708,3.231
0.007658544023274655,3.232
0.0076832087097309255,3.233
0.007707793697673552,3.234
0.007732294907745797,3.235
0.0077567065855986056,3.236
0.007781024051286493,3.237
0.007805245502926029,3.238
0.007829372270170509,3.239
0.007853407604971408,3.24
0.007877354298331878,3.241
0.00790121186984386,3.242
0.007924974693029385,3.243
0.007948631792614624,3.244
0.007972167287844329,3.245
0.007995560178473221,3.246
0.008018783769985643,3.247
0.008041805843763964,3.248
0.008064589530517818,3.249
0.00808709364165646,3.25
0.008109272076017733,3.251
0.008131073961246392,3.252
0.008152445995869364,3.253
0.008173335835888447,3.254
0.008193694077428275,3.255
0.008213473356893005,3.256
0.008232625500494702,3.257
0.008251100607940756,3.258
0.008268850851403747,3.259
0.008285836705932725,3.26
0.008302031544352089,3.261
0.008317422794624612,3.262
0.008332009771328388,3.263
0.008345799121229113,3.264
0.008358799323722816,3.265
0.008371016173113232,3.266
0.008382451166829244,3.267
0.008393103093188555,3.268
0.008402971234336198,3.269
0.008412058702741247,3.27
0.008420375401398107,3.271
0.008427940289630235,3.272
0.008434782467638733,3.273
0.008440940605331465,3.274
0.008446460456231077,3.275
0.00845139065911769,3.276
0.008455778230748221,3.277
0.00845966638736508,3.278
0.008463095742459601,3.279
0.008466106585168923,3.28
0.008468739551046593,3.281
0.008471034072762439,3.282
0.008473025771104729,3.283
0.008474744993024759,3.284
0.008476217624337963,3.285
0.008477466765859039,3.286
0.008478513392361029,3.287
0.008479375451128304,3.288
0.00848006614106892,3.289
0.008480593294065291,3.29
0.008480961289378591,3.291
0.008481174643432694,3.292
0.008481241487559939,3.293
0.008481175921319884,3.294
0.008480998779942425,3.295
0.008480736534879667,3.296
0.008480418302967266,3.297
0.008480071922748859,3.298
0.008479721683648756,3.299
0.008479389615575468,3.3
0.008479098947915759,3.301
0.00847887695160769,3.302
0.008478755766706581,3.303
0.008478771112623233,3.304
0.008478959315967066,3.305
0.008479353765677608,3.306
0.008479982617265399,3.307
0.008480868654569169,3.308
0.008482029991382551,3.309
0.00848347995843869,3.31
0.008485226558156058,3.311
0.008487273159130176,3.312
0.008489620757297409,3.313
0.008492270043829957,3.314
0.008495221307708765,3.315
0.00849847243576862,3.316
0.00850201830227491,3.317
0.008505854118081961,3.318
0.008509980760572938,3.319
0.00851440825936046,3.32
0.008519155584406322,3.321
0.00852424686804855,3.322
0.008529706085396875,3.323
0.008535553974486076,3.324
0.00854180905874328,3.325
0.008548490279866447,3.326
0.00855561808123635,3.327
0.008563213236727764,3.328
0.00857129425696522,3.329
0.008579874907708982,3.33
0.008588963355694451,3.331
0.008598562911673215,3.332
0.008608672864101562,3.333
0.008619288199905298,3.334
0.008630398399072042,3.335
0.008641986678696966,3.336
0.008654030732721975,3.337
0.00866650432750146,3.338
0.00867937844048926,3.339
0.008692621428499157,3.34
0.008706198457754409,3.341
0.008720070679170343,3.342
0.00873419459122981,3.343
0.008748521756276065,3.344
0.008762998659171947,3.345
0.008777566260926307,3.346
0.00879215931801119,3.347
0.00880670675705082,3.348
0.008821134339577784,3.349
0.008835369034135503,3.35
0.008849343335224129,3.351
0.008862997928225372,3.352
0.008876281507456448,3.353
0.008889147444629875,3.354
0.008901549465404989,3.355
0.008913440708844598,3.356
0.008924777984938218,3.357
0.00893552788323936,3.358
0.008945670586553909,3.359
0.008955199999233021,3.36
0.00896412067033835,3.361
0.008972442703846627,3.362
0.008980176203562323,3.363
0.008987326918365056,3.364
0.008993894305689133,3.365
0.008999871810657235,3.366
0.009005248055813446,3.367
0.00901000812335517,3.368
0.009014135019084364,3.369
0.009017611565504,3.37
0.009020422752582762,3.371
0.009022558368583232,3.372
0.009024015576175763,3.373
0.009024800997745762,3.374
0.009024931813964389,3.375
0.009024435396617344,3.376
0.009023347155924141,3.377
0.009021706583493582,3.378
0.009019552510718499,3.379
0.009016920297027817,3.38
0.009013842989427886,3.381
0.009010355050332685,3.382
0.009006495748803212,3.383
0.009002310801645451,3.384
0.008997852255930944,3.385
0.008993177072719929,3.386
0.008988345021779552,3.387
0.008983416488575655,3.388
0.008978450672650892,3.389
0.008973504460254614,3.39
0.008968632020897411,3.391
0.008963884968865571,3.392
0.008959312813745655,3.393
0.008954963415050839,3.394
0.008950883208579084,3.395
0.008947117025309216,3.396
0.008943707355096631,3.397
0.00894069294989435,3.398
0.008938107076495888,3.399
0.00893597654507722,3.4
0.008934322470731865,3.401
0.008933162287023736,3.402
0.00893251186825549,3.403
0.008932387238544526,3.404
0.008932805932868262,3.405
0.008933788219158665,3.406
0.008935358292085216,3.407
0.00893754528934634,3.408
0.00894038371761113,3.409
0.008943912798077637,3.41
0.008948174445303285,3.411
0.00895321002181238,3.412
0.008959056811191864,3.413
0.008965745880298595,3.414
0.0089733019811165,3.415
0.00898174414123233,3.416
0.00899108559271823,3.417
0.009001333186452465,3.418
0.00901248714531621,3.419
0.009024541793574843,3.42
0.009037487315991768,3.421
0.009051311954081645,3.422
0.009066003714204358,3.423
0.0090815508321925,3.424
0.009097940789065177,3.425
0.009115158281684832,3.426
0.009133182925034997,3.427
0.00915198747812836,3.428
0.00917153709595101,3.429
0.00919178964938852,3.43
0.009212696675934193,3.431
0.009234204191703718,3.432
0.00925625264562198,3.433
0.009278776225099174,3.434
0.009301703067469726,3.435
0.009324957531235085,3.436
0.00934846360927258,3.437
0.009372147674423834,3.438
0.009395939398873487,3.439
0.009419770384521294,3.44
0.009443571019333581,3.441
0.009467267705312263,3.442
0.00949078284390663,3.443
0.009514037537205138,3.444
0.009536954922588273,3.445
0.00955946268025949,3.446
0.009581494536605385,3.447
0.009602990884966696,3.448
0.009623898427073932,3.449
0.009644168506341385,3.45
0.009663753873124,3.451
0.009682605057742318,3.452
0.009700669632429328,3.453
0.00971789622949248,3.454
0.009734240742833647,3.455
0.009749670703679767,3.456
0.009764165751984848,3.457
0.009777713902990636,3.458
0.009790305372555546,3.459
0.009801928284769869,3.46
0.009812569247025867,3.461
0.00982221648480412,3.462
0.009830861150400733,3.463
0.009838495279907272,3.464
0.009845108634651488,3.465
0.009850688400822519,3.466
0.009855223178284854,3.467
0.009858708499716352,3.468
0.009861150552741001,3.469
0.009862566823697074,3.47
0.009862983752113088,3.471
0.009862432081022702,3.472
0.009860941484919469,3.473
0.00985853725924847,3.474
0.009855241003176293,3.475
0.009851074125614633,3.476
0.009846061678088195,3.477
0.009840235253035127,3.478
0.009833634726120815,3.479
0.009826308809584792,3.48
0.00981831445109346,3.481
0.009809715259128392,3.482
0.009800579294732591,3.483
0.009790976624333099,3.484
0.009780976926441781,3.485
0.009770647261644035,3.486
0.009760049981225889,3.487
0.009749240859062678,3.488
0.009738267944722157,3.489
0.009727171753744521,3.49
0.00971598680097933,3.491
0.009704743915069024,3.492
0.00969347281618613,3.493
0.009682204615355697,3.494
0.009670973911091153,3.495
0.009659820177883624,3.496
0.00964878820672087,3.497
0.009637927442154184,3.498
0.009627290184410463,3.499
0.009616928794542437,3.5
0.009606892420044042,3.501
0.009597224465753812,3.502
0.009587962087286822,3.503
0.009579137541197517,3.504
0.00957077992460128,3.505
0.009562916227430114,3.506
0.009555571593765381,3.507
0.009548769048295321,3.508
0.009542528855654481,3.509
0.009536867476206263,3.51
0.009531796097023893,3.511
0.009527319360163204,3.512
0.009523435486848988,3.513
0.009520138121986035,3.514
0.009517418679887216,3.515
0.009515267695437228,3.516
0.009513674417067899,3.517
0.009512624895190155,3.518
0.009512100367677372,3.519
0.009512078269758752,3.52
0.009512536098253789,3.521
0.00951345599144224,3.522
0.009514827715592034,3.523
0.009516648725693327,3.524
0.009518920904562364,3.525
0.009521645566564072,3.526
0.009524820716167554,3.527
0.009528442635361088,3.528
0.009532508669948878,3.529
0.009537017206669421,3.53
0.00954196475342594,3.531
0.009547343308288011,3.532
0.009553140218179504,3.533
0.009559338836848693,3.534
0.009565917861351815,3.535
0.009572851099259979,3.536
0.009580110316981727,3.537
0.009587670174263208,3.538
0.009595512242172336,3.539
0.009603626331753231,3.54
0.009612008723065198,3.541
0.009620657947105999,3.542
0.009629570586252478,3.543
0.009638740431848683,3.544
0.009648161647403503,3.545
0.009657833056809678,3.546
0.009667760722347148,3.547
0.00967795800110538,3.548
0.00968844325765847,3.549
0.00969923586949063,3.55
0.009710352469543309,3.551
0.009721806387012805,3.552
0.009733611178533653,3.553
0.009745785675251662,3.554
0.009758357437464083,3.555
0.009771363196472515,3.556
0.009784846146295652,3.557
0.009798851076022365,3.558
0.009813419901863825,3.559
0.009828590421998986,3.56
0.009844398500653731,3.561
0.009860881272162609,3.562
0.009878079422837015,3.563
0.009896038266308235,3.564
0.009914807946025197,3.565
0.009934443077675338,3.566
0.009955002005303236,3.567
0.009976545623200045,3.568
0.009999135532466001,3.569
0.010022831331000783,3.57
0.01004768769476559,3.571
0.010073753231397255,3.572
0.010101072212021923,3.573
0.010129687483206433,3.574
0.010159642134831946,3.575
0.010190979072002572,3.576
0.010223738981368703,3.577
0.010257957797516922,3.578
0.010293664831961844,3.579
0.010330882203794009,3.58
0.010369625447979607,3.581
0.010409904598864839,3.582
0.010451724881223182,3.583
0.010495086358929406,3.584
0.01053998261471293,3.585
0.010586399655829849,3.586
0.010634316278375081,3.587
0.010683705464464288,3.588
0.010734535221368524,3.589
0.010786767914666344,3.59
0.010840358668467267,3.591
0.010895254486399754,3.592
0.010951394881746847,3.593
0.011008712867898203,3.594
0.011067134949503404,3.595
0.011126580032286277,3.596
0.011186958065262003,3.597
0.011248169166129423,3.598
0.011310103371678214,3.599
0.011372641238662452,3.6
0.01143565592203056,3.601
0.011499016662271495,3.602
0.011562592728519533,3.603
0.011626256785433216,3.604
0.011689886778782145,3.605
0.011753365486428538,3.606
0.011816577350390023,3.607
0.011879404380089753,3.608
0.011941725601483497,3.609
0.012003422541746052,3.61
0.01206438774202479,3.611
0.012124531796593493,3.612
0.012183786881804595,3.613
0.012242106557745599,3.614
0.012299462359254847,3.615
0.012355838093846072,3.616
0.012411222798031097,3.617
0.012465603822579703,3.618
0.012518962890377383,3.619
0.012571277331044971,3.62
0.012622525218947364,3.621
0.012672691287427124,3.622
0.01272177155089059,3.623
0.012769775602364348,3.624
0.01281672585086436,3.625
0.012862653416408415,3.626
0.012907591617521518,3.627
0.012951570100038192,3.628
0.01299461311134318,3.629
0.013036741861205592,3.63
0.013077977377973744,3.631
0.013118341124717015,3.632
0.013157853193491567,3.633
0.013196528968350245,3.634
0.013234375671108455,3.635
0.013271390665973559,3.636
0.013307562131935265,3.637
0.013342870510587414,3.638
0.013377289009934429,3.639
0.013410782919980005,3.64
0.01344330839504189,3.641
0.013474811578604428,3.642
0.01350522892388219,3.643
0.013534489335709388,3.644
0.013562518333317286,3.645
0.013589243793434135,3.646
0.013614602112488607,3.647
0.013638543168110001,3.648
0.013661032575824978,3.649
0.013682050405598953,3.65
0.013701586402788133,3.651
0.013719632905853792,3.652
0.013736178622188353,3.653
0.01375120736109845,3.654
0.013764702709697553,3.655
0.01377665557362849,3.656
0.013787071508943571,3.657
0.013795976796281447,3.658
0.01380342281956185,3.659
0.013809488085536985,3.66
0.013814277180598798,3.661
0.013817916230868893,3.662
0.013820545036994506,3.663
0.013822307485117489,3.664
0.013823343976334486,3.665
0.013823789082494306,3.666
0.01382377292437217,3.667
0.013823421679478197,3.668
