VaMe,time
0.0020459538892169424,0.001
-0.001795501663353603,0.002
-0.00556744014660793,0.003
-0.009018546266394327,0.004
-0.011711402669283555,0.005
-0.013135927387932084,0.006
-0.01286306911231579,0.007
-0.010709778591259914,0.008
-0.006841049159592818,0.009
-0.0017020116793515965,0.01
0.004146621990576925,0.011
0.0100781628794895,0.012
0.015316844495487597,0.013
0.018916182430180763,0.014
0.019926165200737377,0.015
0.017695401920487797,0.016
0.012150272906403666,0.017
0.003906543924285853,0.018
-0.005860815977654716,0.019
-0.015730751111822847,0.02
-0.024336583043775804,0.021
-0.030536377913951838,0.022
-0.03351840424981134,0.023
-0.03291903942347921,0.024
-0.02891160245784378,0.025
-0.022151473182569752,0.026
-0.013546791593005774,0.027
-0.00400119795374924,0.028
0.005684365097945687,0.029
0.014732072152689984,0.03
0.022275110623655843,0.031
0.027349108283846915,0.032
0.0290307770454076,0.033
0.02670318981860523,0.034
0.0203650515409869,0.035
0.010837104888695888,0.036
-0.0002683673028118662,0.037
-0.010832421599140048,0.038
-0.01868308884245105,0.039
-0.022100757341177897,0.04
-0.02022058414559798,0.041
-0.013199428484967088,0.042
-0.0021411457958385566,0.043
0.011124986409081373,0.044
0.024310173335502425,0.045
0.03499080886603328,0.046
0.041081470144726843,0.047
0.04134052469251456,0.048
0.03560893110681093,0.049
0.02468358542555644,0.05
0.01001207802294809,0.051
-0.006597428451018332,0.052
-0.023211961305575412,0.053
-0.03798927676908372,0.054
-0.04936121396831553,0.055
-0.05615076504437286,0.056
-0.057642093105290365,0.057
-0.05362471911767687,0.058
-0.044399921651605584,0.059
-0.030779342730033424,0.06
-0.01409080828840143,0.061
0.003921028038625816,0.062
0.021370968144728275,0.063
0.036545250436132194,0.064
0.04807976981832224,0.065
0.05500213041560868,0.066
0.0567363538408009,0.067
0.05313904614207198,0.068
0.044559375317172294,0.069
0.031885282323016656,0.07
0.016545741390837063,0.071
0.000418222107189299,0.072
-0.014425034893185475,0.073
-0.026132469189322074,0.074
-0.03350060514001659,0.075
-0.036180785223444985,0.076
-0.034572204701974196,0.077
-0.029529412406257692,0.078
-0.022074996569639967,0.079
-0.01323120712897794,0.08
-0.003997513352591577,0.081
0.0045786708645145485,0.082
0.011382573387096178,0.083
0.015410826774011557,0.084
0.016101188842364746,0.085
0.013579400726062072,0.086
0.008661075187228655,0.087
0.0026288574491641283,0.088
-0.0031186973903104946,0.089
-0.007447837012378658,0.09
-0.009785733286559576,0.091
-0.010190156738678393,0.092
-0.00912367589059148,0.093
-0.007087856666217929,0.094
-0.0043926549074093865,0.095
-0.0011641742456166106,0.096
0.0025142518260606525,0.097
0.006455033729076541,0.098
0.010261668160898716,0.099
0.01329009150256794,0.1
0.014755535061699842,0.101
0.01400768770526312,0.102
0.010818270736992333,0.103
0.005508051656584408,0.104
-0.0011124281381584744,0.105
-0.007940342165659935,0.106
-0.013874575336836364,0.107
-0.01812219539786389,0.108
-0.020374549774245656,0.109
-0.020758789811578252,0.11
-0.019615891461808626,0.111
-0.0172435622342525,0.112
-0.013720112493362942,0.113
-0.008889634485005687,0.114
-0.0025293164326565757,0.115
0.005407936548761369,0.116
0.014641765720504338,0.117
0.02453023113896927,0.118
0.034018946861966375,0.119
0.04156911910733614,0.12
0.045335698225717536,0.121
0.04376265019252907,0.122
0.03629558648102477,0.123
0.02375176333908771,0.124
0.00819028764768953,0.125
-0.007626144757803613,0.126
-0.02097999931183218,0.127
-0.029877581620223453,0.128
-0.03345446785179981,0.129
-0.03204383707906272,0.13
-0.026959492802952078,0.131
-0.020114943275398655,0.132
-0.013532756860693447,0.133
-0.008802921174438696,0.134
-0.006687973925446609,0.135
-0.007052131230391423,0.136
-0.009081420355726346,0.137
-0.011618516242090223,0.138
-0.013480301180095383,0.139
-0.013747714068326476,0.14
-0.012023539630653295,0.141
-0.00853929892319609,0.142
-0.00399353112410411,0.143
0.0008118815155953984,0.144
0.005313547065009569,0.145
0.009300895161961292,0.146
0.0127774165011919,0.147
0.015754881841862325,0.148
0.018172385872072493,0.149
0.019945073789541416,0.15
0.02103153261020599,0.151
0.021395005190033334,0.152
0.02085042821880188,0.153
0.019011700703456726,0.154
0.015512459627893629,0.155
0.010343103797328314,0.156
0.003986891969041458,0.157
-0.0027310235171829314,0.158
-0.008882001445188964,0.159
-0.013601099366306962,0.16
-0.016197278376800017,0.161
-0.016236819817388237,0.162
-0.013618974489563071,0.163
-0.008675225432753158,0.164
-0.002243072627682074,0.165
0.004400328919748667,0.166
0.009796314405139625,0.167
0.012668054410660518,0.168
0.012217621425623054,0.169
0.008295582001310765,0.17
0.00149517968845875,0.171
-0.006886384357969713,0.172
-0.015121396699870756,0.173
-0.021493248912133438,0.174
-0.024726634766895798,0.175
-0.024241931907115318,0.176
-0.020159885743647528,0.177
-0.01313188910427301,0.178
-0.004148389567094991,0.179
0.005588032593544674,0.18
0.014746327371864725,0.181
0.021969695380287844,0.182
0.02603851770404154,0.183
0.026109513274989705,0.184
0.02198443204072382,0.185
0.014251822508072099,0.186
0.00417604105414912,0.187
-0.006601144867099419,0.188
-0.016405356380666564,0.189
-0.023844463568033217,0.19
-0.028031202464261933,0.191
-0.02863392003489518,0.192
-0.025741166180732637,0.193
-0.019676024437534453,0.194
-0.01094906683731833,0.195
-0.0003509371369133748,0.196
0.010987494862526712,0.197
0.021657021879939512,0.198
0.030121002374860494,0.199
0.0349628772015437,0.2
0.03526556611094894,0.201
0.030986042294861977,0.202
0.02305550966506815,0.203
0.013125035790773194,0.204
0.003120556625262445,0.205
-0.005241393234587414,0.206
-0.010874005112575594,0.207
-0.01350417373909914,0.208
-0.013524946468162994,0.209
-0.011671661975356363,0.21
-0.00874559107610114,0.211
-0.005445635357611094,0.212
-0.002292435775029685,0.213
0.0003442443890498396,0.214
0.002154097837134306,0.215
0.0028127358498332097,0.216
0.002003583085698204,0.217
-0.00043494767171532093,0.218
-0.004349533308123334,0.219
-0.009237021952332782,0.22
-0.014313677092642668,0.221
-0.018621510029802755,0.222
-0.021197456217919106,0.223
-0.021334893637034644,0.224
-0.018850172343104155,0.225
-0.014159075692218788,0.226
-0.008050209233481986,0.227
-0.0013247036325399766,0.228
0.005417140134474741,0.229
0.011774415118586103,0.23
0.017427252787338296,0.231
0.021996756085909838,0.232
0.024999452293188583,0.233
0.025969762229012906,0.234
0.02464706154418777,0.235
0.02107470397322638,0.236
0.015603689691806985,0.237
0.008858375636228228,0.238
0.0016529180269737995,0.239
-0.0051740190456781065,0.24
-0.010962407823345973,0.241
-0.01533473636035506,0.242
-0.018110281054502166,0.243
-0.019123130862166566,0.244
-0.018109981579379784,0.245
-0.014766924966558887,0.246
-0.009026701769900995,0.247
-0.0014645084855454357,0.248
0.006509439842588662,0.249
0.012973384876711421,0.25
0.01622028633712014,0.251
0.015425323449310155,0.252
0.01087691401058317,0.253
0.003780335039423613,0.254
-0.004119879814131481,0.255
-0.010945894561811033,0.256
-0.01511947096801361,0.257
-0.015781640276177306,0.258
-0.013027276617194432,0.259
-0.007779990157216625,0.26
-0.0013518902145162025,0.261
0.0050119745544413286,0.262
0.010361232594753978,0.263
0.014057636396892014,0.264
0.015690129470508105,0.265
0.014984827845224221,0.266
0.011829240262150608,0.267
0.006433990058920434,0.268
-0.0005226992579099062,0.269
-0.007918154613496936,0.27
-0.014348005241409544,0.271
-0.018355135088195515,0.272
-0.018748017419351105,0.273
-0.014976048982279826,0.274
-0.007391119411273654,0.275
0.002734884217614314,0.276
0.01343974190478288,0.277
0.022523707503080182,0.278
0.028161126020178576,0.279
0.029410628317958928,0.28
0.02632078454026168,0.281
0.019648529217063736,0.282
0.010470251502124413,0.283
-8.346897666350146e-05,0.284
-0.010924115023912525,0.285
-0.021025953037523363,0.286
-0.02944850204107423,0.287
-0.03536838063982833,0.288
-0.03812703303466963,0.289
-0.037336676117417665,0.29
-0.03304553834432496,0.291
-0.025803128387793285,0.292
-0.01648674210959748,0.293
-0.00602913164505213,0.294
0.004732671719660058,0.295
0.01505521852998084,0.296
0.024207472194364456,0.297
0.03139697926611367,0.298
0.035797855208270404,0.299
0.03672114999867037,0.3
0.03387212869363126,0.301
0.027553932873927895,0.302
0.018680047269309132,0.303
0.008577523098980485,0.304
-0.0013100491621782485,0.305
-0.009681646149853703,0.306
-0.015548593783473886,0.307
-0.018335741365633873,0.308
-0.017916212855942772,0.309
-0.01458394865650773,0.31
-0.00899436850421798,0.311
-0.002089742909988744,0.312
0.004990189195772282,0.313
0.011011933128983933,0.314
0.01476774971941917,0.315
0.015254858954749618,0.316
0.01197466313551939,0.317
0.0052460729360067244,0.318
-0.0037367528779586228,0.319
-0.013201583157658755,0.32
-0.021238407134771424,0.321
-0.02619400468831756,0.322
-0.027056846686716245,0.323
-0.02377899214310934,0.324
-0.017287500315592095,0.325
-0.009105453322589063,0.326
-0.0007888633770114791,0.327
0.006524899964608232,0.328
0.012252517345558487,0.329
0.01619032502467881,0.33
0.01823144959046951,0.331
0.018215000318681566,0.332
0.015996779365823055,0.333
0.011630085994955934,0.334
0.0054996367319148235,0.335
-0.0016677572472857958,0.336
-0.008904060014262432,0.337
-0.015134651687802118,0.338
-0.019292958628465858,0.339
-0.02045549230218918,0.34
-0.018028405535989514,0.341
-0.011908515031012482,0.342
-0.0025321606879805817,0.343
0.00915350164178757,0.344
0.021712313104487305,0.345
0.03328141799052229,0.346
0.04182718121815825,0.347
0.045626504428876224,0.348
0.043770927749528274,0.349
0.036403049474838495,0.35
0.024584748082916726,0.351
0.00996546870180479,0.352
-0.005537817670743582,0.353
-0.020001140987214006,0.354
-0.03175357744811282,0.355
-0.0396249718539533,0.356
-0.043100988014893434,0.357
-0.04234443298740794,0.358
-0.03807267512282387,0.359
-0.03131451081709585,0.36
-0.023147627653998665,0.361
-0.014531455516092954,0.362
-0.006261902902703092,0.363
0.0010048095260407595,0.364
0.006713601382401521,0.365
0.010400213944663846,0.366
0.011764806932472645,0.367
0.010814211991980727,0.368
0.007944312421911355,0.369
0.003893106135263291,0.37
-0.0003819371952784317,0.371
-0.003857512219592877,0.372
-0.005638432709226881,0.373
-0.00517711499914984,0.374
-0.0024111412860591706,0.375
0.0022731704000325224,0.376
0.008198074262728033,0.377
0.014554113380154022,0.378
0.020501713028145484,0.379
0.02523214202841428,0.38
0.028022547287709948,0.381
0.028287747357489866,0.382
0.02564657441686905,0.383
0.02005537744347071,0.384
0.011973505622074583,0.385
0.002403586817534662,0.386
-0.007275372453437888,0.387
-0.015595370161860255,0.388
-0.02130440471099934,0.389
-0.023648765646996684,0.39
-0.0225713561565669,0.391
-0.018715893933630542,0.392
-0.013172349260433334,0.393
-0.007059646796424343,0.394
-0.0011840001327800365,0.395
0.0040373788055133525,0.396
0.008399107027579438,0.397
0.011652164408720488,0.398
0.013360049628031797,0.399
0.01295355858003344,0.4
0.009960003286364219,0.401
0.00429577278617868,0.402
-0.003539964928390434,0.403
-0.012451899873661984,0.404
-0.02088317542547257,0.405
-0.027099617293791862,0.406
-0.02963701202651395,0.407
-0.027750096645993833,0.408
-0.021607830162663655,0.409
-0.012165038061467976,0.41
-0.000859343040828801,0.411
0.01069899289158076,0.412
0.020974823745550947,0.413
0.028681517860455363,0.414
0.032879940523478694,0.415
0.03304367391648953,0.416
0.029148036071651416,0.417
0.021750640774762544,0.418
0.011956634379945843,0.419
0.0012359909662873984,0.42
-0.008831114403819099,0.421
-0.016809608618560352,0.422
-0.02164635441249407,0.423
-0.022856801644515288,0.424
-0.020586849319387195,0.425
-0.01549547196028218,0.426
-0.008514415086388314,0.427
-0.0006223942695793099,0.428
0.007290961532807373,0.429
0.014471438785364155,0.43
0.020251036613987083,0.431
0.023941518219889667,0.432
0.02482368625979122,0.433
0.022356898264695464,0.434
0.01648283341025729,0.435
0.007760922415895082,0.436
-0.0027313117764113325,0.437
-0.013601106153634848,0.438
-0.023360418125475343,0.439
-0.030672723748970187,0.44
-0.03460089486610777,0.441
-0.034749411318096966,0.442
-0.031242883367132043,0.443
-0.024620678174441846,0.444
-0.015736729392918924,0.445
-0.005655455303368879,0.446
0.004474347291266131,0.447
0.013528709338265223,0.448
0.020477145158744527,0.449
0.02447156678576479,0.45
0.02502210415506309,0.451
0.0221935866629798,0.452
0.016674321436096543,0.453
0.009661807844862461,0.454
0.0026421652842619162,0.455
-0.0028814080690552526,0.456
-0.005750239740988441,0.457
-0.005518677820779153,0.458
-0.002580668985847551,0.459
0.002044560233582214,0.46
0.007112484353194865,0.461
0.01152706396998744,0.462
0.014546071398001514,0.463
0.015765164514374513,0.464
0.01496684958415085,0.465
0.012023662776244974,0.466
0.006963314841396326,0.467
0.00012685053198472875,0.468
-0.007749821585140583,0.469
-0.015631291775362162,0.47
-0.02238001722609949,0.471
-0.026955744914599553,0.472
-0.028626757823505804,0.473
-0.027177033057661514,0.474
-0.02297011863497246,0.475
-0.016769443291035815,0.476
-0.009431074339638643,0.477
-0.0016962180036945895,0.478
0.00583035280814045,0.479
0.01261010190142749,0.48
0.01811409054295575,0.481
0.021803527976174783,0.482
0.023171973931644392,0.483
0.021902085773296578,0.484
0.018077424137212743,0.485
0.012280516372766375,0.486
0.005499350715235384,0.487
-0.0011008337821069919,0.488
-0.006456349211387373,0.489
-0.009857694228497213,0.49
-0.011089058600271741,0.491
-0.010376922319274654,0.492
-0.008168246409627157,0.493
-0.004909888519570409,0.494
-0.0009964523187404283,0.495
0.0031400722419345556,0.496
0.006948856876655954,0.497
0.009770508213946054,0.498
0.010931877214718336,0.499
0.009923052071708167,0.5
0.006624774012951913,0.501
0.0014453025517196906,0.502
-0.004732849405212653,0.503
-0.010744557390077852,0.504
-0.015404143232431921,0.505
-0.017792751006237634,0.506
-0.0174838977676669,0.507
-0.014616616252437153,0.508
-0.009787006263552956,0.509
-0.003813425067070698,0.51
0.0024982277744340265,0.511
0.008472174139613396,0.512
0.013550442425194443,0.513
0.01722764296855976,0.514
0.019018221031570907,0.515
0.018512321889291295,0.516
0.015527896236718101,0.517
0.010281373087056364,0.518
0.003453179349382243,0.519
-0.0039024040691004783,0.52
-0.01056576062527216,0.521
-0.015425900540718804,0.522
-0.017750910789207448,0.523
-0.017356592506643342,0.524
-0.014590976587709208,0.525
-0.010132702262542505,0.526
-0.004732516911884009,0.527
0.0009326696336386925,0.528
0.006277012083066059,0.529
0.01078961523694579,0.53
0.014012999285794235,0.531
0.015516724577615233,0.532
0.01493649723705006,0.533
0.012131958895956646,0.534
0.007372903797676331,0.535
0.0013827754323364845,0.536
-0.004818705227655225,0.537
-0.010167655145882472,0.538
-0.01378182492633775,0.539
-0.015132345888403523,0.54
-0.014147513270672957,0.541
-0.011185757403151196,0.542
-0.006859558420004028,0.543
-0.001813213475243206,0.544
0.0034033227856535456,0.545
0.008326980499085689,0.546
0.012502836234317524,0.547
0.01541367134424714,0.548
0.01650434259661206,0.549
0.015339813469428592,0.55
0.011817032448631248,0.551
0.006296012462668516,0.552
-0.00041909322917033076,0.553
-0.0072308494024093265,0.554
-0.012982919342478564,0.555
-0.01672434387270259,0.556
-0.017929503016081233,0.557
-0.01658802200513396,0.558
-0.013123907689668606,0.559
-0.00819635905817444,0.56
-0.0025022940454141394,0.561
0.0033307591621339915,0.562
0.008752849272564487,0.563
0.013225767522649852,0.564
0.016155033961193044,0.565
0.016942456047599794,0.566
0.015189207225998397,0.567
0.010921644356778488,0.568
0.004693259967539972,0.569
-0.002479751049806059,0.57
-0.009314789165670486,0.571
-0.014552913586770208,0.572
-0.01729016577063253,0.573
-0.01722076160356953,0.574
-0.014643619000747432,0.575
-0.01023276485921284,0.576
-0.0047496305993245036,0.577
0.0011242466799228734,0.578
0.006808165283880307,0.579
0.011774518306604538,0.58
0.015495873258866068,0.581
0.017435262325825856,0.582
0.01713612230617737,0.583
0.014410110285614917,0.584
0.009510871819254592,0.585
0.003158820352136815,0.586
-0.0035991262303196616,0.587
-0.009604593134171205,0.588
-0.013820207974404626,0.589
-0.015567206556233455,0.59
-0.014696748949600706,0.591
-0.011583004194056013,0.592
-0.006926670780682061,0.593
-0.00151364178469564,0.594
0.003919449080182271,0.595
0.008719638348018519,0.596
0.01233264125267091,0.597
0.014306676294604002,0.598
0.014292849239183522,0.599
0.012117138421712746,0.6
0.007919860818927758,0.601
0.0022318957991254757,0.602
-0.004078091206465729,0.603
-0.009945958105093097,0.604
-0.014324812643217541,0.605
-0.016443658778650387,0.606
-0.016011459614885988,0.607
-0.01326178007081527,0.608
-0.008823757730793469,0.609
-0.0034913434688788017,0.61
0.001990704504668486,0.611
0.007030694097289584,0.612
0.011182048289566824,0.613
0.014069807088469333,0.614
0.015321485338958673,0.615
0.014595307951346975,0.616
0.011733797901962174,0.617
0.006947241848628282,0.618
0.0008772774078695179,0.619
-0.0055144726713058,0.62
-0.011152828556425501,0.621
-0.015066666737271554,0.622
-0.016604227762810377,0.623
-0.015612000215455262,0.624
-0.012458690133935028,0.625
-0.007843468465223866,0.626
-0.002522772280425052,0.627
0.002861619787348529,0.628
0.007815829721141712,0.629
0.011943356244186484,0.63
0.014860218214202895,0.631
0.016147823382707722,0.632
0.015432580269913882,0.633
0.012586591489328603,0.634
0.007898670051740168,0.635
0.0020666462541876988,0.636
-0.003971574537575528,0.637
-0.009240207407621694,0.638
-0.012896612511202632,0.639
-0.014400380031733178,0.64
-0.013654852283696244,0.641
-0.01099776429552125,0.642
-0.007014068640484133,0.643
-0.0023228729667505166,0.644
0.0025226445485134123,0.645
0.007028163014104405,0.646
0.010719709610648439,0.647
0.013121620962116168,0.648
0.01377814280569493,0.649
0.012365227574891724,0.65
0.008872073097918315,0.651
0.0037155931659901575,0.652
-0.002299083535712796,0.653
-0.008134465834518594,0.654
-0.012742613452851746,0.655
-0.015314519847538488,0.656
-0.015482010088075884,0.657
-0.013378273225317988,0.658
-0.009519551985086102,0.659
-0.0045863914987751345,0.66
0.0007627028300236075,0.661
0.005971502705857042,0.662
0.010566666149551077,0.663
0.014095642175418957,0.664
0.016086956130094084,0.665
0.01608639930730469,0.666
0.013810489958150242,0.667
0.009354589216057911,0.668
0.003288813115449242,0.669
-0.0034306652570915514,0.67
-0.009665926476248681,0.671
-0.014351165948821852,0.672
-0.01674874261987576,0.673
-0.016613568299670936,0.674
-0.014181645453748254,0.675
-0.01000080166416612,0.676
-0.004728203626519365,0.677
0.000983457957732,0.678
0.006507827956565961,0.679
0.011239607151086217,0.68
0.01459876704357675,0.681
0.016067285110669467,0.682
0.015291344259603159,0.683
0.012238809602295043,0.684
0.007312405757906865,0.685
0.0013159778619210387,0.686
-0.004718415084287118,0.687
-0.009753849533271347,0.688
-0.012962278037371735,0.689
-0.013911717610384598,0.69
-0.012660582485621574,0.691
-0.009674579656587341,0.692
-0.005608364553653846,0.693
-0.001101814425594557,0.694
0.00331393205937426,0.695
0.007215213722828015,0.696
0.010232369499309453,0.697
0.01198316578558834,0.698
0.012068479377815241,0.699
0.010201216741197163,0.7
0.006416007089548432,0.701
0.0011979907804377382,0.702
-0.004569339027189838,0.703
-0.00980429598787835,0.704
-0.013488716630623569,0.705
-0.014918082039136051,0.706
-0.013875832569391714,0.707
-0.010663025171990087,0.708
-0.00595815865252814,0.709
-0.000578880672791983,0.71
0.0047286823746994795,0.711
0.009390508424560936,0.712
0.012993094249939247,0.713
0.015213065258737102,0.714
0.01576851757626161,0.715
0.014454192723484614,0.716
0.011253581679938953,0.717
0.006448302239984604,0.718
0.0006364247228674415,0.719
-0.005356349816036362,0.72
-0.010624177229556194,0.721
-0.014348490371478478,0.722
-0.015975557401757056,0.723
-0.015356151344770815,0.724
-0.012754591684082045,0.725
-0.008710318400136833,0.726
-0.003848128875380856,0.727
0.0012572862648670522,0.728
0.006121083722210269,0.729
0.010312279186614105,0.73
0.013393812142310996,0.731
0.014900527016598305,0.732
0.014417535744257418,0.733
0.011767377887653592,0.734
0.0071875888537729846,0.735
0.0013488154579531257,0.736
-0.004784303456548786,0.737
-0.010145247738156893,0.738
-0.013781317418936807,0.739
-0.015092481799671785,0.74
-0.013988161638290201,0.741
-0.010845025174589478,0.742
-0.006302902767224206,0.743
-0.001054270296990781,0.744
0.004263368465039362,0.745
0.009075035355071325,0.746
0.012829155151714204,0.747
0.014974705659296575,0.748
0.015012581399266083,0.749
0.01263873099564053,0.75
0.007935997008460257,0.751
0.0015047530493739595,0.752
-0.005583498329594298,0.753
-0.012011007187043685,0.754
-0.016518154613250027,0.755
-0.018208851475327605,0.756
-0.01678982525108549,0.757
-0.01263613277542219,0.758
-0.006628680408416513,0.759
0.0001437220639967452,0.76
0.006657639816461406,0.761
0.012116387091405431,0.762
0.015993518578842052,0.763
0.01797442375338483,0.764
0.017857634383453017,0.765
0.015534363894733965,0.766
0.011106319871832939,0.767
0.005031273434038402,0.768
-0.0018710864811439152,0.769
-0.008564683130670067,0.77
-0.013990310099441019,0.771
-0.017267538476175393,0.772
-0.017905527611132746,0.773
-0.01593979351563368,0.774
-0.011888517290315662,0.775
-0.006545096145599337,0.776
-0.0007391830369153312,0.777
0.004814662076775303,0.778
0.009555642925341166,0.779
0.013056077868461498,0.78
0.014992279148662135,0.781
0.015116209773857333,0.782
0.013273242341382097,0.783
0.00952197524346228,0.784
0.004266650215629445,0.785
-0.0017502807823531492,0.786
-0.00759602295483286,0.787
-0.01232981933081791,0.788
-0.015183275601940088,0.789
-0.015749276582455785,0.79
-0.014091099344193772,0.791
-0.01065953586323941,0.792
-0.0060760756719289155,0.793
-0.000943615933924232,0.794
0.004226628300243661,0.795
0.008977473825455431,0.796
0.01282624773009546,0.797
0.015237679932231442,0.798
0.01570210553733828,0.799
0.013909806126650546,0.8
0.009941996787238512,0.801
0.0043458464968499045,0.802
-0.0019650154387765182,0.803
-0.007911104312045943,0.804
-0.012468425569713455,0.805
-0.014887908290698696,0.806
-0.014866503421666403,0.807
-0.012584877705016088,0.808
-0.008585867024286776,0.809
-0.0035725638456297437,0.81
0.0017585108580224667,0.811
0.00679292547764078,0.812
0.011001871260946898,0.813
0.013906676974234415,0.814
0.015053527285398079,0.815
0.014087050142460226,0.816
0.01092872931750982,0.817
0.005922419644993834,0.818
-0.00017561248886794123,0.819
-0.006351748826601014,0.82
-0.011550282699759539,0.821
-0.014891912747147563,0.822
-0.01587248035385788,0.823
-0.014482442972854783,0.824
-0.011160133776426995,0.825
-0.006577895482309327,0.826
-0.0014053169799378754,0.827
0.0037960768081147216,0.828
0.008546148699592013,0.829
0.012386544682291566,0.83
0.014850712462768824,0.831
0.01548840480548002,0.832
0.013983917769783633,0.833
0.010346524815566882,0.834
0.005033340436118715,0.835
-0.0010963195146852787,0.836
-0.006961701579880273,0.837
-0.011512263536870251,0.838
-0.013997257312416479,0.839
-0.014165630716220866,0.84
-0.01229410861894681,0.841
-0.009010683264899401,0.842
-0.005004043820513994,0.843
-0.0007951883353682387,0.844
0.0032982810543841193,0.845
0.007037328689302092,0.846
0.010125093096773848,0.847
0.012158771806902424,0.848
0.012677873292521506,0.849
0.011313345995304619,0.85
0.007994640085986379,0.851
0.003084962621072366,0.852
-0.0026375898579118493,0.853
-0.00814073685510222,0.854
-0.012387351369589883,0.855
-0.014600451838772385,0.856
-0.014460692442702984,0.857
-0.012150899236887789,0.858
-0.008221220241645087,0.859
-0.0033626455196209015,0.86
0.00177957298383266,0.861
0.006679037984359968,0.862
0.010889749643394531,0.863
0.013965256811448501,0.864
0.015434380589381298,0.865
0.014887376855723285,0.866
0.012150630648686263,0.867
0.007452689871620939,0.868
0.0014714822828455806,0.869
-0.0047778554702103595,0.87
-0.010173955695569637,0.871
-0.013749794994098414,0.872
-0.014917886805265602,0.873
-0.013612856174440273,0.874
-0.010267956616710242,0.875
-0.005612537894350275,0.876
-0.0004283347298552437,0.877
0.004600231517432461,0.878
0.008935259875581943,0.879
0.01217155759737413,0.88
0.013975348034057153,0.881
0.01403794773081397,0.882
0.012147173157660795,0.883
0.008358767585586251,0.884
0.003104307808800715,0.885
-0.002862409273654714,0.886
-0.008614641751146767,0.887
-0.013211101730806212,0.888
-0.015869070369545345,0.889
-0.016159808212590044,0.89
-0.014134101896305318,0.891
-0.010273225094073335,0.892
-0.0052851070356160585,0.893
0.00011888872784802704,0.894
0.005347886848192751,0.895
0.009935941705369196,0.896
0.013477018102055737,0.897
0.015556975425276244,0.898
0.01575472697566152,0.899
0.01377287898258008,0.9
0.009643826932708294,0.901
0.003856820271059246,0.902
-0.002676059754353729,0.903
-0.008802490114500409,0.904
-0.013418767337230755,0.905
-0.01576497576277459,0.906
-0.01559600654863507,0.907
-0.013164003361533092,0.908
-0.009050382410591674,0.909
-0.003950606077300141,0.91
0.0014887450386395383,0.911
0.00672567291865033,0.912
0.011274623817766264,0.913
0.014625257386121407,0.914
0.016226198590628942,0.915
0.015591370043904228,0.916
0.012507746165135482,0.917
0.007228617411234012,0.918
0.000513754775919035,0.919
-0.006515089915209581,0.92
-0.012623568445058016,0.921
-0.016734732694306163,0.922
-0.018181635213115204,0.923
-0.016872271430626407,0.924
-0.013242053826576143,0.925
-0.008004528766815597,0.926
-0.001906507384523672,0.927
0.004370573668683493,0.928
0.01020707937262575,0.929
0.015006808618895152,0.93
0.01815424913259336,0.931
0.019036194182127392,0.932
0.01720377120446568,0.933
0.01262163767224148,0.934
0.005818023809421223,0.935
-0.0021735812877066696,0.936
-0.010018265892343683,0.937
-0.016340457589922433,0.938
-0.02001678683031588,0.939
-0.020461205790146302,0.94
-0.017777322128171173,0.941
-0.012657833436118905,0.942
-0.00608088281245399,0.943
0.0009869730276646214,0.944
0.007727429588187906,0.945
0.013470220078406127,0.946
0.017649252185644514,0.947
0.019768615517231414,0.948
0.019419872351753156,0.949
0.016403952990091487,0.95
0.010918789854850976,0.951
0.003660822596493246,0.952
-0.004249729674101384,0.953
-0.011484868510206485,0.954
-0.0168047622259839,0.955
-0.019365122116869807,0.956
-0.018916804720636983,0.957
-0.01579373643935206,0.958
-0.010715012283839687,0.959
-0.004531083013996733,0.96
0.0019614621688571953,0.961
0.008081683150954394,0.962
0.013226547356581294,0.963
0.016808931312636288,0.964
0.01825852509719833,0.965
0.01714068015530244,0.966
0.013364562733641535,0.967
0.0073430208151957265,0.968
-2.667997751594847e-05,0.969
-0.007529394924414208,0.97
-0.013848168246290867,0.971
-0.017835946721828862,0.972
-0.01883252846412073,0.973
-0.016855050098462183,0.974
-0.012504442037038382,0.975
-0.006660630539588972,0.976
-0.0001985934885643695,0.977
0.006128185578861373,0.978
0.011675605474649773,0.979
0.015863661309094303,0.98
0.018153276030720478,0.981
0.01809196666926897,0.982
0.015456014887952957,0.983
0.010427475693175852,0.984
0.0036709484418523124,0.985
-0.0037675689830421032,0.986
-0.010682832493702216,0.987
-0.015955322579899036,0.988
-0.01877549789161351,0.989
-0.018811477505602203,0.99
-0.016245500815204,0.991
-0.011643533058373737,0.992
-0.005748351439148527,0.993
0.0006713113676201553,0.994
0.006884798201625,0.995
0.01221887361842277,0.996
0.01606000418635669,0.997
0.017866907194273682,0.998
0.017244833883608722,0.999
0.014096220401918118,1.0
0.008760190515815757,1.001
0.002025717643476502,1.002
-0.004998473710642647,1.003
-0.011097726993301965,1.004
-0.015213207752399444,1.005
-0.01671146967932479,1.006
-0.015539805143739469,1.007
-0.012163118647239997,1.008
-0.007333660792728149,1.009
-0.0018405224117140518,1.01
0.0036528744131652004,1.011
0.008650361237148019,1.012
0.012757564753927598,1.013
0.015567718840334973,1.014
0.01660801576895801,1.015
0.015443910745568092,1.016
0.011914218686729141,1.017
0.00632691746337165,1.018
-0.0005325004402749871,1.019
-0.007562476267503995,1.02
-0.013572246149447596,1.021
-0.017526595045982973,1.022
-0.018792168605361512,1.023
-0.01729583576132874,1.024
-0.013485888598169085,1.025
-0.008108791767000023,1.026
-0.0019492359803657878,1.027
0.004314673069021822,1.028
0.010105220739594264,1.029
0.014858041935098284,1.03
0.017957154692094048,1.031
0.018783886385762845,1.032
0.016914883363247868,1.033
0.012376786540125695,1.034
0.0057723700967114685,1.035
-0.0018227908944341638,1.036
-0.009118293248746556,1.037
-0.014883687324207454,1.038
-0.018187908040858368,1.039
-0.018597276955357848,1.04
-0.016252056953258886,1.041
-0.011746827626880972,1.042
-0.005887535891657267,1.043
0.000517976150645029,1.044
0.0067504159538816924,1.045
0.012169054235368038,1.046
0.016167176331923973,1.047
0.018161878884792294,1.048
0.017676212332510283,1.049
0.014521305497446273,1.05
0.008973069796688623,1.051
0.0018116021260854971,1.052
-0.005792813254706473,1.053
-0.01250411825670385,1.054
-0.0171260931182747,1.055
-0.018909077815375767,1.056
-0.017724324875709675,1.057
-0.014019606655664643,1.058
-0.00858920055491577,1.059
-0.0022982805995841716,1.06
0.004093082503983675,1.061
0.009958218327881749,1.062
0.014737887461560914,1.063
0.017869285971775638,1.064
0.01879048188175346,1.065
0.017085696759936868,1.066
0.012737900881585242,1.067
0.006290009769237166,1.068
-0.0012397446580120976,1.069
-0.008599807960752917,1.07
-0.014555989791577694,1.071
-0.018130114525395317,1.072
-0.018819290824408825,1.073
-0.016704427224480123,1.074
-0.012368302835134591,1.075
-0.006656996099779771,1.076
-0.00041630847701644295,1.077
0.005658605428633936,1.078
0.011012929487694839,1.079
0.015140607532315466,1.08
0.017526809958824528,1.081
0.01768247276114474,1.082
0.015293154854360322,1.083
0.010437908086697513,1.084
0.0037229529451592676,1.085
-0.003788108816341878,1.086
-0.010799544419412424,1.087
-0.01606431564201672,1.088
-0.018685632391246692,1.089
-0.018362357646635994,1.09
-0.015416683664921315,1.091
-0.010571181971772235,1.092
-0.004649734519180146,1.093
0.001612543151878571,1.094
0.007601553431028226,1.095
0.012760063130142241,1.096
0.016517139817154074,1.097
0.01828927013816893,1.098
0.017601821290658,1.099
0.014298191006878846,1.1
0.00870642899172521,1.101
0.0016402568736622136,1.102
-0.005765614639928112,1.103
-0.01228659788037501,1.104
-0.016831538655069235,1.105
-0.018655529118900293,1.106
-0.01753752869216851,1.107
-0.013822248213511133,1.108
-0.008265751825273573,1.109
-0.0017851853472863424,1.11
0.004731500593658743,1.111
0.010512051627136308,1.112
0.014913513047407576,1.113
0.017401243575069274,1.114
0.01755847284261227,1.115
0.015188730886216728,1.116
0.010479605421930467,1.117
0.004081726829196055,1.118
-0.00299446070359659,1.119
-0.009594487732474496,1.12
-0.014639393563741988,1.121
-0.017320296858209416,1.122
-0.01726986741913546,1.123
-0.014654526730427699,1.124
-0.010094258951934667,1.125
-0.004426963396129201,1.126
0.0015260499592007711,1.127
0.007079977433465778,1.128
0.011703614716666054,1.129
0.014972670394312009,1.13
0.01650259867044449,1.131
0.015943002624180705,1.132
0.013098913426406714,1.133
0.008128934525079021,1.134
0.0016621500148726197,1.135
-0.005273145572103632,1.136
-0.011471109063715176,1.137
-0.015819430087175717,1.138
-0.017556956907435882,1.139
-0.016476109412285785,1.14
-0.012966062453203784,1.141
-0.007817225032835157,1.142
-0.001899567855502281,1.143
0.004060600238115733,1.144
0.009503671702168918,1.145
0.013942337756004033,1.146
0.016877842573018175,1.147
0.017806684341059163,1.148
0.016345984513726035,1.149
0.012426003097472665,1.15
0.006431602140982565,1.151
-0.0008005883046230947,1.152
-0.008126091282379077,1.153
-0.014305817343612736,1.154
-0.018253555471608892,1.155
-0.01930957315020195,1.156
-0.01743441108473822,1.157
-0.013179312216860542,1.158
-0.007445098622879019,1.159
-0.0011921966946314565,1.16
0.0047608608989242575,1.161
0.009819068223808649,1.162
0.013582396879519726,1.163
0.015735680248118396,1.164
0.01596718026091392,1.165
0.014046071554850787,1.166
0.010016655879497365,1.167
0.004325708337072908,1.168
-0.0021974878518075083,1.169
-0.0084670869902832,1.17
-0.013352042510564002,1.171
-0.015955371411737983,1.172
-0.015871478567751354,1.173
-0.01328559102710358,1.174
-0.008841824444372226,1.175
-0.0033635805265803376,1.176
0.002393764434833495,1.177
0.007844666600654308,1.178
0.012534175700953734,1.179
0.016030352033075953,1.18
0.017849078448756692,1.181
0.01750137231906991,1.182
0.014691504208012589,1.183
0.009560772995149422,1.184
0.002785106869258934,1.185
-0.004549163717022418,1.186
-0.011203066161982791,1.187
-0.01607066715265039,1.188
-0.018429634541144106,1.189
-0.018091393742975283,1.19
-0.015382363336810784,1.191
-0.01095411150373298,1.192
-0.00553639854021836,1.193
0.0002220283386776813,1.194
0.005776797082703748,1.195
0.010619590070985539,1.196
0.014196107219501472,1.197
0.01590168548351981,1.198
0.015219082569950837,1.199
0.011961272657431495,1.2
0.006471178985121997,1.201
-0.0003603393598938105,1.202
-0.007280428120000729,1.203
-0.012979124836601788,1.204
-0.016399856798878204,1.205
-0.016985478382392973,1.206
-0.014797455321331367,1.207
-0.010433705516280246,1.208
-0.004774242589100213,1.209
0.0012914195944482953,1.21
0.0070291147299199105,1.211
0.011899389354211051,1.212
0.01549957154606409,1.213
0.01746468318520693,1.214
0.017439916629927846,1.215
0.015197931079191498,1.216
0.010818829082669797,1.217
0.004784842201482086,1.218
-0.002057898965121136,1.219
-0.008633108003490889,1.22
-0.013840917481598271,1.221
-0.016819192872580106,1.222
-0.01717916320634275,1.223
-0.015084716399386564,1.224
-0.011112120580102807,1.225
-0.00598356713637516,1.226
-0.00036552191146189896,1.227
0.005167933677891821,1.228
0.01008775902010741,1.229
0.013871517910376647,1.23
0.015983039379096314,1.231
0.01591845068673459,1.232
0.013387253055838799,1.233
0.008549221796038429,1.234
0.00211160689019351,1.235
-0.004805047766277989,1.236
-0.010945466465343372,1.237
-0.015217757555038895,1.238
-0.016951141330526217,1.239
-0.016049959891658763,1.24
-0.012947013992361495,1.241
-0.00836337943086618,1.242
-0.0030347284756313654,1.243
0.002441119293260551,1.244
0.007606924944830657,1.245
0.012054357873124743,1.246
0.015315333156550627,1.247
0.016830853510901172,1.248
0.01607966316508579,1.249
0.01283868790688885,1.25
0.007397041276752946,1.251
0.0005660806005082541,1.252
-0.006494052899539597,1.253
-0.012529238351207544,1.254
-0.01647228461440642,1.255
-0.01770448001163324,1.256
-0.01619208710058548,1.257
-0.012406683529524499,1.258
-0.007093689864650888,1.259
-0.0010594385605435267,1.26
0.004942212903532169,1.261
0.010250310348396697,1.262
0.014288209216563616,1.263
0.016532699278889118,1.264
0.01652994067036281,1.265
0.014027971885858964,1.266
0.009177762167904384,1.267
0.002628757278144213,1.268
-0.004563119647376355,1.269
-0.01113377077073182,1.27
-0.01585532819503668,1.271
-0.017831411471932974,1.272
-0.016771373226950076,1.273
-0.01307617303894402,1.274
-0.007641083994673045,1.275
-0.0014891585440940176,1.276
0.004525676482512686,1.277
0.009811622952846865,1.278
0.013976234194681553,1.279
0.016713812203422423,1.28
0.01771695051578641,1.281
0.016674060820848203,1.282
0.01340044503559598,1.283
0.008044238043022732,1.284
0.0012109573425193969,1.285
-0.006088563823891911,1.286
-0.012639465737376869,1.287
-0.017290086064856033,1.288
-0.019218800802411822,1.289
-0.01815291884221494,1.29
-0.014447545062214592,1.291
-0.008934755360140371,1.292
-0.002613071959023083,1.293
0.003622335495140114,1.294
0.009094257679481566,1.295
0.013317582696093158,1.296
0.01589394177197075,1.297
0.01644223506425189,1.298
0.014676591648782072,1.299
0.010603877759733541,1.3
0.004679694022238755,1.301
-0.0022075804639717822,1.302
-0.008910878817263365,1.303
-0.014265265829995356,1.304
-0.017339717936110433,1.305
-0.017659642534610998,1.306
-0.015306535147761587,1.307
-0.010829458669734343,1.308
-0.005030564702813003,1.309
0.001248824650833761,1.31
0.007254297830909984,1.311
0.012345402427258696,1.312
0.015968215769680785,1.313
0.01763845648910656,1.314
0.016993463230444518,1.315
0.01392701455364317,1.316
0.008735407885146151,1.317
0.002150225089173803,1.318
-0.004788418234210186,1.319
-0.010942116285693736,1.32
-0.01528778088653091,1.321
-0.0171236847602378,1.322
-0.016250463480500566,1.323
-0.013019983519416597,1.324
-0.008161471679793891,1.325
-0.002497453823122583,1.326
0.003244892445314563,1.327
0.008487868727236236,1.328
0.012785753631949984,1.329
0.01574837691637349,1.33
0.01696172419826817,1.331
0.016037625160018398,1.332
0.01281687820078764,1.333
0.007566032446799886,1.334
0.0010084662197047051,1.335
-0.005819454453679749,1.336
-0.011798184775666787,1.337
-0.015953101295894462,1.338
-0.017647556056125405,1.339
-0.016722585041398428,1.34
-0.013517218873097165,1.341
-0.008722314711959677,1.342
-0.003140634263431801,1.343
0.0025065704562269937,1.344
0.007647714099471965,1.345
0.011820466276683836,1.346
0.014588031960515321,1.347
0.015500049225116896,1.348
0.014190210243537007,1.349
0.01059331797709899,1.35
0.005108763216216362,1.351
-0.0014170283809145311,1.352
-0.007848811622934146,1.353
-0.012996318753513147,1.354
-0.015905212593687646,1.355
-0.01612643046478036,1.356
-0.013816767640808685,1.357
-0.009605996440327794,1.358
-0.004325563424641303,1.359
0.001239772214883099,1.36
0.006474936353408879,1.361
0.010932269614726651,1.362
0.01426104655558025,1.363
0.016118928154676807,1.364
0.01613980654594964,1.365
0.01405510416644221,1.366
0.009921442633316279,1.367
0.004243396829970316,1.368
-0.002118712131824786,1.369
-0.008148141568400517,1.37
-0.012864618737180254,1.371
-0.015519195802892677,1.372
-0.01577779227241868,1.373
-0.013783319074492782,1.374
-0.010041428344699864,1.375
-0.005218156785565324,1.376
2.7879553742708474e-05,1.377
0.005115388044892634,1.378
0.009519776194883334,1.379
0.012724535072030703,1.38
0.014220184388340176,1.381
0.013606835491346501,1.382
0.010780382131160783,1.383
0.006068720265522855,1.384
0.00020419942779007668,1.385
-0.005830449033175539,1.386
-0.010993939804486184,1.387
-0.014385378272654067,1.388
-0.01543982100022261,1.389
-0.014072310025632565,1.39
-0.01067526221690293,1.391
-0.005937219083559627,1.392
-0.0006023642978477447,1.393
0.004685792911489443,1.394
0.009413662854741028,1.395
0.013144218526715906,1.396
0.015459399014258971,1.397
0.015956293894034912,1.398
0.014335795897848667,1.399
0.010574080382756642,1.4
0.0050588872950749235,1.401
-0.0014216853484013319,1.402
-0.007823213192659974,1.403
-0.013057819340355319,1.404
-0.016231546825446322,1.405
-0.016852797128553372,1.406
-0.014936644295729974,1.407
-0.010942462813110036,1.408
-0.005577845184597136,1.409
0.000396208410342823,1.41
0.006271735081576918,1.411
0.011424637309081161,1.412
0.015292846231854203,1.413
0.017339350803654865,1.414
0.017090076713976433,1.415
0.01430701498405675,1.416
0.009202831474202575,1.417
0.002506747811456474,1.418
-0.004681696636622243,1.419
-0.011138184775509178,1.42
-0.015753485104500083,1.421
-0.01776494380657298,1.422
-0.016950380676493255,1.423
-0.0136689012021209,1.424
-0.008691825474619894,1.425
-0.002918608459005019,1.426
0.0028491066499636486,1.427
0.00798317055353101,1.428
0.01200075325720288,1.429
0.014503594863213273,1.43
0.015142339758079626,1.431
0.013672055661607087,1.432
0.010092233484221386,1.433
0.0047739018559346995,1.434
-0.0015231692896976463,1.435
-0.007774006020297428,1.436
-0.012896118544190142,1.437
-0.015976393608371206,1.438
-0.016497267710220805,1.439
-0.014481411128630476,1.44
-0.010438467965208663,1.441
-0.0051375100678045195,1.442
0.0006372947495720354,1.443
0.006223550658310387,1.444
0.011099634106285589,1.445
0.014827021042654135,1.446
0.016975173972410062,1.447
0.01712692577369364,1.448
0.015021538772425385,1.449
0.010747836709500257,1.45
0.004832825544255039,1.451
-0.0018279460522371874,1.452
-0.008147297631621874,1.453
-0.01307389245126099,1.454
-0.01582583971385531,1.455
-0.016072814155260712,1.456
-0.013991212476241398,1.457
-0.010145383441436623,1.458
-0.005261350027949978,1.459
-3.146674659939216e-05,1.46
0.00498027416740398,1.461
0.009332602827066354,1.462
0.012618628180158178,1.463
0.014372740762504997,1.464
0.014101381780701656,1.465
0.011497966858564485,1.466
0.006717004749727652,1.467
0.00047177994982511057,1.468
-0.006115546779938935,1.469
-0.01178317559848767,1.47
-0.015426669360175413,1.471
-0.016388298989324163,1.472
-0.014638202615998235,1.473
-0.010732892973494718,1.474
-0.005557164216929215,1.475
-6.946238482702117e-06,1.476
0.005216228119101139,1.477
0.00964928053758823,1.478
0.01299440630994332,1.479
0.015002153996136643,1.48
0.015391744614793713,1.481
0.013885347256199856,1.482
0.010376309366827211,1.483
0.0051241770313242415,1.484
-0.0011824423129680249,1.485
-0.007537566714020488,1.486
-0.012832863608645247,1.487
-0.016113074167755374,1.488
-0.016820835398373982,1.489
-0.014936583186205325,1.49
-0.010927614009152325,1.491
-0.0055390836818395755,1.492
0.0004352317008132721,1.493
0.006293718201478495,1.494
0.011451147383760027,1.495
0.015378844821364998,1.496
0.017547353749587286,1.497
0.017468944036185867,1.498
0.014868201112331569,1.499
0.00988077436269429,1.5
0.003128204982763173,1.501
-0.004374951628753277,1.502
-0.011405966992300398,1.503
-0.016751934242596002,1.504
-0.019469884396113177,1.505
-0.01914487823054662,1.506
-0.015997495115171175,1.507
-0.01074971224848468,1.508
-0.004342150994389778,1.509
0.0023123875333116873,1.51
0.008444565106630103,1.511
0.013446628529350867,1.512
0.016833103984564238,1.513
0.01818008462129555,1.514
0.017149713815893062,1.515
0.013659613495483704,1.516
0.008064896594156098,1.517
0.001169392927146674,1.518
-0.005939304794996869,1.519
-0.012108514638085493,1.52
-0.01633628820633972,1.521
-0.017985295048405316,1.522
-0.016935548398275664,1.523
-0.013576897055814302,1.524
-0.008618864285201056,1.525
-0.002835882838257382,1.526
0.0030880515106725065,1.527
0.008570996224222282,1.528
0.01308070130790698,1.529
0.01609808050425659,1.53
0.017127193506387636,1.531
0.01579434669883838,1.532
0.012052085287982428,1.533
0.006347793097176141,1.534
-0.0004035237810375464,1.535
-0.007021139283064443,1.536
-0.012329760521090135,1.537
-0.015435257491680327,1.538
-0.0159421793768466,1.539
-0.01401735026397193,1.54
-0.010247306189208043,1.541
-0.00537349870514941,1.542
-6.986293528710356e-05,1.543
0.00514055137370692,1.544
0.009839393599160634,1.545
0.013598228065839017,1.546
0.015893026953576167,1.547
0.016150381012026045,1.548
0.01394808335441155,1.549
0.009267562825827478,1.55
0.0026350507159207835,1.551
-0.00492692066782126,1.552
-0.01210031236413951,1.553
-0.01755937866394857,1.554
-0.02028406921151278,1.555
-0.01982205533204182,1.556
-0.016393092421062374,1.557
-0.010765328758781072,1.558
-0.003978482735834922,1.559
0.002928463103851274,1.56
0.009104442367535298,1.561
0.013963983292672165,1.562
0.01713277937014594,1.563
0.01833023088681673,1.564
0.017338332934079062,1.565
0.014119800930381288,1.566
0.008980105636277835,1.567
0.00261397917557933,1.568
-0.004003463846831206,1.569
-0.009806400983230521,1.57
-0.01384983620220684,1.571
-0.015528042793191251,1.572
-0.014741034693154466,1.573
-0.011883202519418412,1.574
-0.007618341370989281,1.575
-0.002605120673247901,1.576
0.0026233104463348218,1.577
0.0075997217534743275,1.578
0.011820507789477323,1.579
0.014712063366020878,1.58
0.015680834438879257,1.581
0.014261700303131689,1.582
0.010357505154282716,1.583
0.004422913813420999,1.584
-0.0025730240391210993,1.585
-0.009381997739790817,1.586
-0.014767320022793299,1.587
-0.01776438462598512,1.588
-0.017886755972225735,1.589
-0.015232307013364248,1.59
-0.010415138059289467,1.591
-0.004328603824089157,1.592
0.002121796603447442,1.593
0.00817018944303568,1.594
0.013208766125056661,1.595
0.01674448362920245,1.596
0.018358707807660343,1.597
0.017725249767497387,1.598
0.01472494860538593,1.599
0.009596237475998921,1.6
0.0029919854415057785,1.601
-0.004108660961151392,1.602
-0.010583654832484973,1.603
-0.015393558528150142,1.604
-0.017821771713636744,1.605
-0.017663142097384916,1.606
-0.015242975834793743,1.607
-0.011234615893788812,1.608
-0.006410771794248722,1.609
-0.0014673277804861194,1.61
0.003062319748989049,1.611
0.006810230522554363,1.612
0.009499191473691805,1.613
0.01086308313085239,1.614
0.010663919655855397,1.615
0.008831055813647163,1.616
0.0056152139955590406,1.617
0.0016062512551504328,1.618
-0.002409167575044786,1.619
-0.005650565101928624,1.62
-0.00753007923195659,1.621
-0.007794332173125757,1.622
-0.006570706944952939,1.623
-0.004264290374104458,1.624
-0.0013357654239142766,1.625
0.0018957541143316218,1.626
0.0052716804652639315,1.627
0.008647495493048543,1.628
0.011733952925161504,1.629
0.014034969971775474,1.63
0.01491194255390895,1.631
0.013778063030083838,1.632
0.010359461486992468,1.633
0.004878072095519136,1.634
-0.0019443448526533383,1.635
-0.009027275188892231,1.636
-0.01514482838777348,1.637
-0.019193276102883683,1.638
-0.020464941413954146,1.639
-0.018804990916838637,1.64
-0.014577558649160494,1.641
-0.008490415299464352,1.642
-0.0013995910519569662,1.643
0.005809710317389947,1.644
0.012263074557609305,1.645
0.017110815760936843,1.646
0.01957382394758862,1.647
0.01907516829852504,1.648
0.015450460001283365,1.649
0.009117177901897394,1.65
0.0010704259440532289,1.651
-0.007302178435607669,1.652
-0.01451011749452403,1.653
-0.019292076468893853,1.654
-0.020922823775868748,1.655
-0.019382601627848703,1.656
-0.015279702355951117,1.657
-0.009550637966533647,1.658
-0.0031326216333670428,1.659
0.003222068129852032,1.66
0.008979585629927135,1.661
0.01375529760078285,1.662
0.017194524474225432,1.663
0.018895870290734806,1.664
0.01847025836627369,1.665
0.015737338170116723,1.666
0.0109237085947758,1.667
0.004700538287819249,1.668
-0.0019537173429883367,1.669
-0.007954627924503924,1.67
-0.012311886755157929,1.671
-0.01434675288873107,1.672
-0.013882539485632126,1.673
-0.011262650394994007,1.674
-0.007158769787458244,1.675
-0.0023270006298659186,1.676
0.002547398563645955,1.677
0.0069026285511875245,1.678
0.010270044284654813,1.679
0.012210038672394449,1.68
0.012307791851544337,1.681
0.010285017078965234,1.682
0.006180644291091125,1.683
0.0004766961928288775,1.684
-0.005923346812320531,1.685
-0.011870990061328131,1.686
-0.01625084396474189,1.687
-0.01826230516579355,1.688
-0.01761048595687188,1.689
-0.0145480175631073,1.69
-0.009736054420190236,1.691
-0.003989143652454998,1.692
0.001940152442883949,1.693
0.007457602883315201,1.694
0.012131768031734378,1.695
0.015632339251956864,1.696
0.017638181385201745,1.697
0.017807375058631413,1.698
0.015885316030332115,1.699
0.011893513168039615,1.7
0.006249325046094889,1.701
-0.00024519505594780935,1.702
-0.006516217298045247,1.703
-0.01143542754394856,1.704
-0.014125962652300197,1.705
-0.014229369839325837,1.706
-0.011976309132388514,1.707
-0.008016847327924244,1.708
-0.003128401448375358,1.709
0.002002436086418539,1.71
0.006831607292857162,1.711
0.010900009768832264,1.712
0.013747690044629352,1.713
0.014875192195817238,1.714
0.013837906720646047,1.715
0.01046828574188653,1.716
0.005071339402362234,1.717
-0.0015757437945101713,1.718
-0.008415138074937413,1.719
-0.014343659630601927,1.72
-0.018416569485638624,1.721
-0.020036645996569586,1.722
-0.019079441961366565,1.723
-0.0158683705054082,1.724
-0.011013901387416097,1.725
-0.005225577743911947,1.726
0.0008175273963933358,1.727
0.006529737428021733,1.728
0.01141062994404196,1.729
0.014965355487160386,1.73
0.016658707097690385,1.731
0.016037398897553717,1.732
0.012986959130637778,1.733
0.007925678474614797,1.734
0.0017829336927848074,1.735
-0.004214045875004205,1.736
-0.008832211396033797,1.737
-0.011124641806722714,1.738
-0.010666629584483252,1.739
-0.007653788617434621,1.74
-0.002792359863627899,1.741
0.00296840585691006,1.742
0.008699013994228426,1.743
0.013633630690456524,1.744
0.01719332780362721,1.745
0.018926184883677696,1.746
0.01843165807087278,1.747
0.015380456582316494,1.748
0.009677395701867358,1.749
0.0016525953998300638,1.75
-0.00787149012721218,1.751
-0.017660201907379804,1.752
-0.02624422922035739,1.753
-0.032185048852772125,1.754
-0.03441449513872875,1.755
-0.032525211309149496,1.756
-0.026831997507670406,1.757
-0.018179178290158898,1.758
-0.007665400765841548,1.759
0.0035518513449687835,1.76
0.014337141849573602,1.761
0.02358707537993126,1.762
0.030243895229734138,1.763
0.03338535360943441,1.764
0.03242536772062208,1.765
0.027377571404404184,1.766
0.01901578922813484,1.767
0.008765049206283442,1.768
-0.0016351833123367594,1.769
-0.010493712814279098,1.77
-0.01646502927887166,1.771
-0.018814378838420645,1.772
-0.017580495715700632,1.773
-0.013491426501145773,1.774
-0.007655953304272729,1.775
-0.0012365644936763098,1.776
0.004748681242613824,1.777
0.009512388266306408,1.778
0.012506340127996222,1.779
0.013370511124334888,1.78
0.011909779880410467,1.781
0.008161889202678817,1.782
0.002498728856841162,1.783
-0.004332776059400018,1.784
-0.011280371501979856,1.785
-0.01716689613484531,1.786
-0.02093068415195088,1.787
-0.02186263918426676,1.788
-0.01978573082640361,1.789
-0.015107351481470315,1.79
-0.008686909811506117,1.791
-0.0015509163804582442,1.792
0.005399964968896773,1.793
0.011535433895558868,1.794
0.016446135984264018,1.795
0.019793299070958188,1.796
0.021211609144055472,1.797
0.020363854866813292,1.798
0.01713164966931173,1.799
0.011808237278786334,1.8
0.005131870324098413,1.801
-0.001866209877373124,1.802
-0.008091098454601235,1.803
-0.012603004347886132,1.804
-0.014805032346017509,1.805
-0.014563455215259067,1.806
-0.012194329898112286,1.807
-0.00831139918751834,1.808
-0.003624572446823023,1.809
0.0012037033133155332,1.81
0.005611791591169017,1.811
0.00913895478913069,1.812
0.011401352244774943,1.813
0.012070470167812307,1.814
0.010915072789742953,1.815
0.007919371858386665,1.816
0.003377515740617953,1.817
-0.002117940646422672,1.818
-0.007763809766515772,1.819
-0.01267094351198149,1.82
-0.016024082598853982,1.821
-0.017257480501915615,1.822
-0.01618834046639687,1.823
-0.013026180814565221,1.824
-0.008252643270129794,1.825
-0.002491228128573797,1.826
0.003556436540224761,1.827
0.009159424887899474,1.828
0.013633499599692999,1.829
0.01642068993146669,1.83
0.017154025008911368,1.831
0.015719901129394094,1.832
0.01232215686685932,1.833
0.007496002125605325,1.834
0.0020153696602761063,1.835
-0.0032603845548271468,1.836
-0.007518890058854791,1.837
-0.010132529452874404,1.838
-0.01082718870843772,1.839
-0.009749761025612612,1.84
-0.007321888565354785,1.841
-0.003999710302986903,1.842
-0.0001492807181106568,1.843
0.003908104161068356,1.844
0.007781569652944851,1.845
0.010932073034734948,1.846
0.012691630025611021,1.847
0.012418367653085684,1.848
0.009740484927529786,1.849
0.004754120511187688,1.85
-0.0019195931697928471,1.851
-0.009214805508684391,1.852
-0.01580478973481145,1.853
-0.02037757960937003,1.854
-0.021971262814385984,1.855
-0.020247543525341336,1.856
-0.015553013372665906,1.857
-0.008744983212703943,1.858
-0.0009115223770552171,1.859
0.006868553091376214,1.86
0.013670843925089932,1.861
0.01878177817369471,1.862
0.02167779044646103,1.863
0.021987662229484624,1.864
0.01954407607073681,1.865
0.014526874033401537,1.866
0.007566865000291304,1.867
-0.0002920929024376308,1.868
-0.007769785776667703,1.869
-0.013614731739915006,1.87
-0.016900010375356135,1.871
-0.01726459906706886,1.872
-0.014978563428357515,1.873
-0.010764686114018826,1.874
-0.005476718096959334,1.875
0.00014858269775879567,1.876
0.005546361414382199,1.877
0.010250812584762613,1.878
0.013811645533530153,1.879
0.015770475820413604,1.88
0.015720283827793034,1.881
0.013443885454133954,1.882
0.00906840093173983,1.883
0.003115847958454806,1.884
-0.003573991587200471,1.885
-0.009976141401420622,1.886
-0.015049587873564285,1.887
-0.017955180357752905,1.888
-0.018274639011091293,1.889
-0.01611882150439468,1.89
-0.012053746429965059,1.891
-0.00689649359130672,1.892
-0.0014835565095240202,1.893
0.0035004155577963245,1.894
0.00757185368477391,1.895
0.010387127878694846,1.896
0.011662966327175136,1.897
0.011188304859779712,1.898
0.008956010648224941,1.899
0.00529401853521183,1.9
0.0008525023901596434,1.901
-0.003538602292663967,1.902
-0.007034380093631192,1.903
-0.008917560034082462,1.904
-0.008741481635669962,1.905
-0.006467579392986518,1.906
-0.0025133012982726426,1.907
0.002355792638672704,1.908
0.007240767536173935,1.909
0.011339345892652274,1.91
0.014125068684075958,1.911
0.015388456082896575,1.912
0.015099954081416136,1.913
0.013237204416866266,1.914
0.00977305088454901,1.915
0.00483536271139395,1.916
-0.0011278735917417335,1.917
-0.007337121875587826,1.918
-0.012838045574446993,1.919
-0.016734781178479884,1.92
-0.018428716823773422,1.921
-0.017799734437222624,1.922
-0.015215960246389824,1.923
-0.011324915618715684,1.924
-0.00676153384723753,1.925
-0.001981386866991654,1.926
0.0027008709595785097,1.927
0.006975550326374742,1.928
0.010452619182326385,1.929
0.012665643077567432,1.93
0.013148576623877641,1.931
0.01159790708030701,1.932
0.008070460944365431,1.933
0.003073029120493185,1.934
-0.002522219702870558,1.935
-0.007674792718258735,1.936
-0.011422024712585918,1.937
-0.01312469150327261,1.938
-0.012626817656825664,1.939
-0.010237753011419624,1.94
-0.006518898990132986,1.941
-0.0019998819744046106,1.942
0.002978535145450587,1.943
0.008192921032328259,1.944
0.013310861467313499,1.945
0.017702642271545294,1.946
0.020464156190601584,1.947
0.02069332840959536,1.948
0.017889499584937633,1.949
0.01223412301652259,1.95
0.0046000137556580336,1.951
-0.003671332956405104,1.952
-0.011104373744455056,1.953
-0.016437004037662274,1.954
-0.018902956156929777,1.955
-0.018371430027180762,1.956
-0.01528798389798393,1.957
-0.010454436641045672,1.958
-0.004782953479740688,1.959
0.0008589922166332548,1.96
0.005701524566416558,1.961
0.009090107467984018,1.962
0.01051896938633767,1.963
0.0096744335786226,1.964
0.006502946210968092,1.965
0.0013165373234216595,1.966
-0.00516498812206558,1.967
-0.011921926525438244,1.968
-0.01781328322940222,1.969
-0.021729732511878316,1.97
-0.022747268203501633,1.971
-0.020322827921979904,1.972
-0.014464737622888827,1.973
-0.005758205659804248,1.974
0.004775094126466713,1.975
0.01586795777619889,1.976
0.02614775949522319,1.977
0.0342621041412276,1.978
0.03905226818956218,1.979
0.039734474978721,1.98
0.03604069402021445,1.981
0.028325047915845135,1.982
0.017585908687947436,1.983
0.005315874828254122,1.984
-0.006797140204711356,1.985
-0.017210603930167455,1.986
-0.02482635313388912,1.987
-0.02917248382325271,1.988
-0.03039356736176275,1.989
-0.029047779508743383,1.99
-0.025817430704533507,1.991
-0.021288082116248618,1.992
-0.015887270573297918,1.993
-0.009958108754521468,1.994
-0.0038854663857201773,1.995
0.0018097625411871352,1.996
0.006484372931212411,1.997
0.009532999153499847,1.998
0.01063534510381537,1.999
0.009927538392996671,2.0
0.007965629418659638,2.001
0.005518020343614797,2.002
0.0033361385321459933,2.003
0.0019901332146213175,2.004
0.0017624569998822609,2.005
0.0026108918060813394,2.006
0.004246676082882855,2.007
0.006312557783961651,2.008
0.008532662011918475,2.009
0.010718808960401819,2.01
0.012670700193012474,2.011
0.014064196866234668,2.012
0.01438914138576974,2.013
0.013005757858905542,2.014
0.009361741875896817,2.015
0.003290610204079078,2.016
-0.00478728156051543,2.017
-0.01387234552910709,2.018
-0.02256648597257473,2.019
-0.029344587574120066,2.02
-0.03289342214783744,2.021
-0.03248739144624251,2.022
-0.028216248806332275,2.023
-0.020866326719975854,2.024
-0.011547356167869342,2.025
-0.0013650775638974003,2.026
0.008704815478062343,2.027
0.01780030219404881,2.028
0.025119065581437842,2.029
0.02990581745977127,2.03
0.0315386652768808,2.031
0.029719832817172945,2.032
0.02467247387662901,2.033
0.017189043379003007,2.034
0.008484486424168351,2.035
-3.8219068768855364e-05,2.036
-0.00702486059698102,2.037
-0.01143764685860696,2.038
-0.012815291007118921,2.039
-0.011356002686939388,2.04
-0.007752168136430073,2.041
-0.0029151917136357552,2.042
0.0022301126118185947,2.043
0.006837224199677039,2.044
0.010168595894025415,2.045
0.011594624380765257,2.046
0.010591230640945764,2.047
0.0068129151137852955,2.048
0.00026023000493805546,2.049
-0.008565565336753357,2.05
-0.01863142014153959,2.051
-0.02847546927074257,2.052
-0.036410873235784014,2.053
-0.04083650816303927,2.054
-0.04064274231274437,2.055
-0.03554563151661028,2.056
-0.02613168525259698,2.057
-0.013614182518911392,2.058
0.0004891688366957485,2.059
0.014603054146005795,2.06
0.027272232101214582,2.061
0.037286282372858255,2.062
0.043729016238104795,2.063
0.046015115355725555,2.064
0.04399201158883358,2.065
0.03803287184999911,2.066
0.028994280558194512,2.067
0.018045909330129048,2.068
0.006486029078775057,2.069
-0.0043921485288837235,2.07
-0.013441280274537183,2.071
-0.019861859422600013,2.072
-0.023361735750468637,2.073
-0.024120486335328498,2.074
-0.022583295687399644,2.075
-0.019261417622660655,2.076
-0.014647874419545187,2.077
-0.009231166177937894,2.078
-0.003553094952785421,2.079
0.0017652043140552523,2.08
0.006101900305238102,2.081
0.008996308721877897,2.082
0.010264989164736348,2.083
0.00997730313386075,2.084
0.00837123213485328,2.085
0.005837177513688071,2.086
0.0029262940419429715,2.087
0.00027374614745809516,2.088
-0.0015395816126118679,2.089
-0.0021044946407476066,2.09
-0.0012613714979282994,2.091
0.0008522644578917747,2.092
0.0038069765230511177,2.093
0.006959767046289684,2.094
0.009567227359038104,2.095
0.010882149121012565,2.096
0.010239855858858157,2.097
0.007187386504473405,2.098
0.0016694415214769972,2.099
-0.005836144010467464,2.1
-0.014372654749579768,2.101
-0.02273907663532745,2.102
-0.029768219505758805,2.103
-0.03455269210939128,2.104
-0.03657061165667811,2.105
-0.0356562354792236,2.106
-0.031855704481088966,2.107
-0.025314662520590458,2.108
-0.016286522070143025,2.109
-0.005221804759010872,2.11
0.007132765324201916,2.111
0.019664343846416223,2.112
0.03093644245206085,2.113
0.039446331844157224,2.114
0.044052640443225724,2.115
0.04434757236386807,2.116
0.04074235402149795,2.117
0.03426051826854946,2.118
0.02623680019824229,2.119
0.0180441460937657,2.12
0.010805686351475255,2.121
0.005102102147762624,2.122
0.0008640623550579753,2.123
-0.0024102196926211517,2.124
-0.005260064554569851,2.125
-0.007961729868125975,2.126
-0.010444187061408518,2.127
-0.012411762318437604,2.128
-0.013606700289188128,2.129
-0.014067276693068329,2.13
-0.014200889571227325,2.131
-0.014587897025651225,2.132
-0.015641745600832046,2.133
-0.017342611893739493,2.134
-0.019170615861944896,2.135
-0.020273753313197886,2.136
-0.01981720421203028,2.137
-0.017348491518722666,2.138
-0.012977322312343283,2.139
-0.007267694307154366,2.14
-0.0009309124713700717,2.141
0.0054455592949880895,2.142
0.011457346665250286,2.143
0.016764282591865805,2.144
0.020945715666037795,2.145
0.023468664695907634,2.146
0.02381557849105213,2.147
0.02169106194879888,2.148
0.017197562562396296,2.149
0.010892557305772365,2.15
0.003683605231722332,2.151
-0.003364815353065091,2.152
-0.009229533108239877,2.153
-0.013144969922402841,2.154
-0.014808246532223086,2.155
-0.014428391050259528,2.156
-0.012541430256050461,2.157
-0.009728965886195037,2.158
-0.006448174613186361,2.159
-0.003025371635707095,2.16
0.0002698874705312578,2.161
0.00314104351682037,2.162
0.00522994014606913,2.163
0.006196270363042077,2.164
0.0058839609482677566,2.165
0.004442374217290856,2.166
0.0022952084014981624,2.167
-2.069793618438107e-07,2.168
-0.0018678741394310434,2.169
-0.0027762944571104267,2.17
-0.0023389301081161488,2.171
-0.00046435289808426073,2.172
0.0025671956505361605,2.173
0.006219018416433942,2.174
0.009952877255292994,2.175
0.013427877228533516,2.176
0.016492522287968218,2.177
0.01897959482027848,2.178
0.0204727176615116,2.179
0.020246407653467052,2.18
0.017437481940089164,2.181
0.011352772489140288,2.182
0.0017776134029840029,2.183
-0.010810603236719325,2.184
-0.025162346880594256,2.185
-0.03933786178609008,2.186
-0.05101774138116138,2.187
-0.058061014222871195,2.188
-0.059106118854790037,2.189
-0.05385953096930521,2.19
-0.04292750498768311,2.191
-0.027424489646728143,2.192
-0.008704920853855087,2.193
0.01166552542684565,2.194
0.03184740958871911,2.195
0.04976154982978734,2.196
0.06329312245289788,2.197
0.07065512492026861,2.198
0.07083128225268491,2.199
0.06392780475427504,2.2
0.05127242043692339,2.201
0.0351913413099055,2.202
0.018464038422475595,2.203
0.003575550616939161,2.204
-0.007942295536799206,2.205
-0.015778100468376844,2.206
-0.020659929987057957,2.207
-0.02391891997829768,2.208
-0.0269887396314825,2.209
-0.030937463341642,2.21
-0.03612278069919489,2.211
-0.0420656070724982,2.212
-0.04760898140311915,2.213
-0.051328756039730035,2.214
-0.05197066012975405,2.215
-0.048663985377821135,2.216
-0.040925448191894004,2.217
-0.02866128299189696,2.218
-0.012287732782963473,2.219
0.0070650797579432136,2.22
0.02740324370736409,2.221
0.04601777523684067,2.222
0.06014061882424888,2.223
0.06793515514763565,2.224
0.06918563025159534,2.225
0.06512133371762215,2.226
0.05751723143698281,2.227
0.04779761363160245,2.228
0.036710328401850276,2.229
0.024549877156785627,2.23
0.011561292628154541,2.231
-0.001771987284968485,2.232
-0.01466620975209313,2.233
-0.02617892649061342,2.234
-0.035434092586303007,2.235
-0.04181102858918674,2.236
-0.04506384928286015,2.237
-0.0453792130731833,2.238
-0.04334657283316946,2.239
-0.039797162422749284,2.24
-0.03552890705564672,2.241
-0.03103973348292346,2.242
-0.02642325513662009,2.243
-0.02147731281535717,2.244
-0.015927782977162117,2.245
-0.009607208199839517,2.246
-0.0025142521710118364,2.247
0.005201574176504581,2.248
0.013270115033195855,2.249
0.021302063729385867,2.25
0.028742306116176532,2.251
0.03486086658365917,2.252
0.0389042188823982,2.253
0.04033936631300469,2.254
0.03899069834265301,2.255
0.03503894683128255,2.256
0.028993644203834528,2.257
0.021637347049247472,2.258
0.013848670376657046,2.259
0.006337505840614794,2.26
-0.0005323908429614159,2.261
-0.0067417625465143755,2.262
-0.01250264497337212,2.263
-0.01807864853391982,2.264
-0.023537473132547813,2.265
-0.028557087012171332,2.266
-0.03245141207268634,2.267
-0.034390687066884,2.268
-0.033666647442091205,2.269
-0.029914734109544715,2.27
-0.023241280762020037,2.271
-0.014210967047509048,2.272
-0.003708248304281521,2.273
0.0072537443230611745,2.274
0.017649216549673115,2.275
0.026425661965861783,2.276
0.03249809375691432,2.277
0.03487869154343578,2.278
0.03290298400808971,2.279
0.026460612715984735,2.28
0.016157898965000098,2.281
0.003382199893335367,2.282
-0.009776559143682516,2.283
-0.020848543746542807,2.284
-0.027533954112329062,2.285
-0.02827814315076286,2.286
-0.02266633180035921,2.287
-0.011567864166391249,2.288
0.0029688691766720735,2.289
0.01810908095305651,2.29
0.03086458043817487,2.291
0.03872150590989642,2.292
0.040055077702151984,2.293
0.034341451727326854,2.294
0.022231294072130887,2.295
0.00545187294188139,2.296
-0.013531869043645752,2.297
-0.03201858192522742,2.298
-0.0474874314547765,2.299
-0.05782229953190695,2.3
-0.061490473873628854,2.301
-0.05778807118922309,2.302
-0.04706488355015078,2.303
-0.03078963723604571,2.304
-0.011392699197010291,2.305
0.00816611310994535,2.306
0.025134763891912146,2.307
0.03776220358604635,2.308
0.04562863853793667,2.309
0.049297498832462566,2.31
0.04966609423700879,2.311
0.047490768505493726,2.312
0.043223581803812625,2.313
0.03706348031845219,2.314
0.0291177597966598,2.315
0.019586440509492715,2.316
0.008858131546390412,2.317
-0.002517280265617723,2.318
-0.013899149068532313,2.319
-0.02460516784826778,2.32
-0.03395116993983224,2.321
-0.041307193542352655,2.322
-0.046137356163875445,2.323
-0.04797339803112294,2.324
-0.04636241834807533,2.325
-0.04090705483694798,2.326
-0.03144880500715092,2.327
-0.01830509639278029,2.328
-0.002439562086085257,2.329
0.014523285588128848,2.33
0.030522186893946448,2.331
0.043469709513568745,2.332
0.0516411034159409,2.333
0.05394641143094744,2.334
0.050168496471330676,2.335
0.041164587576761204,2.336
0.028782266503632036,2.337
0.015260164899472748,2.338
0.0023534280886717287,2.339
-0.009215092479063809,2.34
-0.0196381348026491,2.341
-0.029411291679190963,2.342
-0.038648869418330005,2.343
-0.046741430087262004,2.344
-0.05254338566827132,2.345
-0.05489958149853048,2.346
-0.05309214487475401,2.347
-0.04694287519201374,2.348
-0.036668409699614025,2.349
-0.022789551576346077,2.35
-0.006221920037777869,2.351
0.01162448971786293,2.352
0.028919605540925715,2.353
0.04371170613187714,2.354
0.05445108256488879,2.355
0.06053744504948576,2.356
0.06241925695011562,2.357
0.061041916243626364,2.358
0.05710142784605726,2.359
0.05069163173686796,2.36
0.04148188845669224,2.361
0.029178125650767328,2.362
0.013918405292156493,2.363
-0.00358461166942489,2.364
-0.022079536524677583,2.365
-0.039874669980190194,2.366
-0.05501021392574548,2.367
-0.06553094855898399,2.368
-0.06982211893563268,2.369
-0.06695918330714826,2.37
-0.057009571853313186,2.371
-0.041174067270640796,2.372
-0.021657336444091672,2.373
-0.001273533625504371,2.374
0.017085879938604474,2.375
0.031010408756576666,2.376
0.039084288829813234,2.377
0.04116919522324472,2.378
0.03822386751400191,2.379
0.031767430717446386,2.38
0.02342795270183682,2.381
0.014788801413547716,2.382
0.0073216341021819075,2.383
0.002173656244278344,2.384
-0.0001713726744981784,2.385
-9.488314884183161e-05,2.386
0.0013724346518551483,2.387
0.003095077753230508,2.388
0.0042720837458752195,2.389
0.0044810763513890885,2.39
0.0034379055040781995,2.391
0.000790811342223664,2.392
-0.0038304278059642758,2.393
-0.01056247908905329,2.394
-0.019092257840042703,2.395
-0.028611295946532972,2.396
-0.03787343675954949,2.397
-0.04530697176846147,2.398
-0.04924398578589078,2.399
-0.048268835321956464,2.4
-0.04156305764679777,2.401
-0.029115958623790288,2.402
-0.01176341424641396,2.403
0.008880509324947392,2.404
0.030536217158087634,2.405
0.050454592121096126,2.406
0.0658049203832875,2.407
0.07428019018274938,2.408
0.07474245592292157,2.409
0.06762755412166073,2.41
0.05486182231210814,2.411
0.03918847211287804,2.412
0.023199507329459447,2.413
0.00864118801303751,2.414
-0.0037356022770964063,2.415
-0.013938701880539013,2.416
-0.0223875500147017,2.417
-0.029622690510509073,2.418
-0.03609156050195294,2.419
-0.04199204026561367,2.42
-0.047204836651757794,2.421
-0.05133180898446509,2.422
-0.053772980618079155,2.423
-0.053787969231716096,2.424
-0.05058465669494035,2.425
-0.043489590668261864,2.426
-0.032235877742977606,2.427
-0.01731570002238937,2.428
-0.00013783754543043118,2.429
0.017229963086695006,2.43
0.03262923455319805,2.431
0.044380750995935594,2.432
0.0515735903572612,2.433
0.05401241480631595,2.434
0.05206130786511905,2.435
0.04661863371293069,2.436
0.03909597540575813,2.437
0.031092322686173682,2.438
0.023783000934848104,2.439
0.017481400532482982,2.44
0.011760683887085765,2.441
0.005968891707900306,2.442
-0.00034498846182406853,2.443
-0.007322634152972472,2.444
-0.014870250512121142,2.445
-0.022724991883004194,2.446
-0.030478151140324428,2.447
-0.03759154644047649,2.448
-0.043426693268690614,2.449
-0.04729469574623842,2.45
-0.04850852526417237,2.451
-0.046439013260589516,2.452
-0.04064833326829906,2.453
-0.03114310261763726,2.454
-0.0185692973450254,2.455
-0.004058998979959686,2.456
0.011237136888706072,2.457
0.026485529795339014,2.458
0.04103038762698697,2.459
0.05399078597033474,2.46
0.06407361308511078,2.461
0.06974537084171228,2.462
0.06956404286005334,2.463
0.06253913213941342,2.464
0.04850319575589571,2.465
0.028366385196720672,2.466
0.004098726359042828,2.467
-0.02155400988172412,2.468
-0.04551938887748035,2.469
-0.06487422734409687,2.47
-0.07724681058330055,2.471
-0.0811429969307976,2.472
-0.07616853869108438,2.473
-0.06304351219373355,2.474
-0.043384330377037435,2.475
-0.019418211105570553,2.476
0.006194851144429975,2.477
0.030453455725618597,2.478
0.05019663388684368,2.479
0.06255350867375829,2.48
0.06565862247571085,2.481
0.05936265714121644,2.482
0.0454968708665516,2.483
0.02739802553100167,2.484
0.008900465122579774,2.485
-0.006676804489392212,2.486
-0.01722832562857191,2.487
-0.022178853136938403,2.488
-0.022362645072265316,2.489
-0.019510361092016017,2.49
-0.015587027062283276,2.491
-0.012228674338115435,2.492
-0.01038348612746934,2.493
-0.010200537988802402,2.494
-0.011189698463981093,2.495
-0.012535543025944307,2.496
-0.013337319211251995,2.497
-0.012699723860471112,2.498
-0.009827474787039433,2.499
-0.004265619436839483,2.5
0.0037813080122458356,2.501
0.013274740638451988,2.502
0.02249262182422033,2.503
0.029481194890866484,2.504
0.03260799076210091,2.505
0.03101060881093943,2.506
0.02484068442956318,2.507
0.015249293256817934,2.508
0.0040702068193664695,2.509
-0.006682001954363396,2.51
-0.015263308070614582,2.511
-0.02052663887219291,2.512
-0.022147766126659148,2.513
-0.020640984985201834,2.514
-0.017056147596220598,2.515
-0.012508453027336096,2.516
-0.00785971738203235,2.517
-0.0036818817013138205,2.518
-0.0003422964822042651,2.519
0.0019559751809401305,2.52
0.003179798200673217,2.521
0.0034959007845162386,2.522
0.0033194135222325413,2.523
0.003274851919962967,2.524
0.003964942623898724,2.525
0.005661221871206339,2.526
0.008149942789502554,2.527
0.010795310538651827,2.528
0.012701520094527513,2.529
0.012878468172034512,2.53
0.01044064757633858,2.531
0.0049006530571464035,2.532
-0.0035384530023605284,2.533
-0.013930971044667135,2.534
-0.024867524633918177,2.535
-0.03485975803162309,2.536
-0.042546003032412905,2.537
-0.04669237515128703,2.538
-0.04618107715619084,2.539
-0.0401297314790746,2.54
-0.02809413469987391,2.541
-0.010258059105744628,2.542
0.012365133210759365,2.543
0.03765336205156253,2.544
0.06213788447720639,2.545
0.08126335184732705,2.546
0.0906080248844001,2.547
0.08769552882741236,2.548
0.07315432065906098,2.549
0.05040628729371574,2.55
0.02430487389505729,2.551
-0.00036252007288006436,2.552
-0.01998148992850055,2.553
-0.03267391411070958,2.554
-0.03827614160889325,2.555
-0.03783230557632768,2.556
-0.03288846418561005,2.557
-0.02494691529636831,2.558
-0.015306852491903685,2.559
-0.005222366182753068,2.56
0.003876863387629858,2.561
0.01032917495415113,2.562
0.012457219081736087,2.563
0.009006876309661647,2.564
-0.0003488803993700821,2.565
-0.014608948403236226,2.566
-0.03129968684015909,2.567
-0.04674273723377007,2.568
-0.05687466034284241,2.569
-0.05852689971653016,2.57
-0.050660953133511426,2.571
-0.03495018213323684,2.572
-0.015450168103799128,2.573
0.0025259984854181005,2.574
0.014051711346637994,2.575
0.01630682699102679,2.576
0.009668479902392925,2.577
-0.0024145972105498073,2.578
