VaMe,time
0.0017347711381315294,0.001
-0.0011257358670088062,0.002
-0.0020245133347189105,0.003
0.0005112372412034585,0.004
0.007125840080383197,0.005
0.017568601638982127,0.006
0.03075569713939368,0.007
0.04485426833469176,0.008
0.05744655372505812,0.009
0.06592451688487218,0.01
0.06814585014911782,0.011
0.06313260644918989,0.012
0.051431255752342676,0.013
0.03491162083426035,0.014
0.016176172647732384,0.015
-0.002079580080290569,0.016
-0.017568696453436214,0.017
-0.028774214668449278,0.018
-0.0351749206068335,0.019
-0.037208663593974366,0.02
-0.035895159807014805,0.021
-0.032308201964970536,0.022
-0.027209774976404436,0.023
-0.02100675320971625,0.024
-0.013965804825400411,0.025
-0.006498769786917384,0.026
0.0006655516325092034,0.027
0.006519040262271372,0.028
0.009996708046046283,0.029
0.010255342934376894,0.03
0.006905311477797774,0.031
0.0002292128071425516,0.032
-0.00863160520848055,0.033
-0.017738379615719165,0.034
-0.024811804560049448,0.035
-0.0279272698439245,0.036
-0.026080871419645112,0.037
-0.019350108090853996,0.038
-0.008716117971989979,0.039
0.004211403766505421,0.04
0.017474780081823956,0.041
0.029071318393502167,0.042
0.03725387387351245,0.043
0.04080229868551201,0.044
0.03924163196295114,0.045
0.03289998053866011,0.046
0.02274765319348964,0.047
0.010169066531387393,0.048
-0.0031903774470941966,0.049
-0.015563121602974607,0.05
-0.025303616010287033,0.051
-0.03124725012206957,0.052
-0.033018842012897336,0.053
-0.031063584585387383,0.054
-0.02638282464008823,0.055
-0.02018258661193177,0.056
-0.013578518746433512,0.057
-0.00738049295780329,0.058
-0.0020106802785165925,0.059
0.0024130359509576503,0.06
0.005897357555354324,0.061
0.008436053522528252,0.062
0.010032818701037206,0.063
0.010813111336835504,0.064
0.011025994653745432,0.065
0.01090745437396939,0.066
0.010575664833966604,0.067
0.01008699572603665,0.068
0.00959340703818335,0.069
0.009404645423976413,0.07
0.009842278571327136,0.071
0.011008251536696228,0.072
0.012654895662291176,0.073
0.014221502263660379,0.074
0.015028102283814774,0.075
0.014540499728334834,0.076
0.012526556175774597,0.077
0.009021196236732169,0.078
0.0042100182984737425,0.079
-0.0016442010167925633,0.08
-0.008201710254163155,0.081
-0.014996907154813463,0.082
-0.021401077535615293,0.083
-0.026673152907761316,0.084
-0.030135474809943014,0.085
-0.031393468326616616,0.086
-0.0304206109711007,0.087
-0.027431002908202107,0.088
-0.022684895479223335,0.089
-0.016416875778482262,0.09
-0.008882341676459985,0.091
-0.0004103813760726014,0.092
0.008542293748588618,0.093
0.0173012384367008,0.094
0.02494163834893278,0.095
0.030439249199233586,0.096
0.032947094322221496,0.097
0.032029362115235396,0.098
0.027788133555500204,0.099
0.020891690627912022,0.1
0.012468135199063824,0.101
0.0038273731918075653,0.102
-0.0038923949606296904,0.103
-0.009938974417172437,0.104
-0.013925987633935733,0.105
-0.015704497496975767,0.106
-0.015287048670583803,0.107
-0.012861280447319335,0.108
-0.008838513065098709,0.109
-0.0038848515710091006,0.11
0.0010901855421559831,0.111
0.005017479588251553,0.112
0.0068603592618548485,0.113
0.0058930083483909,0.114
0.001968312007449679,0.115
-0.004324126708057199,0.116
-0.011689199720317367,0.117
-0.01840506871904058,0.118
-0.022789261581495295,0.119
-0.023637415803308737,0.12
-0.020433461519111178,0.121
-0.013322618836618824,0.122
-0.002997702394873619,0.123
0.009384033250756001,0.124
0.022253575598753586,0.125
0.033699923402678564,0.126
0.0416475837253236,0.127
0.04427294064792058,0.128
0.04062625018927793,0.129
0.0310822801742364,0.13
0.017238601471530116,0.131
0.0013606718700925444,0.132
-0.014230774903265436,0.133
-0.02754718575961485,0.134
-0.037036132933141,0.135
-0.04157258241415537,0.136
-0.040535912660193116,0.137
-0.034004244477395744,0.138
-0.02296737359006804,0.139
-0.00933691919478958,0.14
0.004447039950517538,0.141
0.016082899413156725,0.142
0.02393781467476359,0.143
0.027209646422610926,0.144
0.025879245997730567,0.145
0.02064384898465783,0.146
0.012776958496055717,0.147
0.003850754176297677,0.148
-0.00458307584802439,0.149
-0.011262969371542694,0.15
-0.015422232748251089,0.151
-0.01688733754311398,0.152
-0.01599942804399466,0.153
-0.013374577035754698,0.154
-0.009633032458872448,0.155
-0.005253160759296204,0.156
-0.0006044348437851911,0.157
0.003948753850688914,0.158
0.007990759140663809,0.159
0.011027186478166352,0.16
0.012480482587887662,0.161
0.011822271553643453,0.162
0.008847146149666323,0.163
0.003897940661104142,0.164
-0.0021006211212681813,0.165
-0.007820833208939606,0.166
-0.011894817601853677,0.167
-0.01333977738533867,0.168
-0.01184578978935837,0.169
-0.007774978975496801,0.17
-0.0018833749305809933,0.171
0.005024409961013949,0.172
0.01224554751930596,0.173
0.019086848321350658,0.174
0.024739707769408557,0.175
0.02830469595513983,0.176
0.028944294607194228,0.177
0.02610097888645644,0.178
0.019742936272137815,0.179
0.010491850623132315,0.18
-0.0005059865433525536,0.181
-0.01187926815470532,0.182
-0.02230962448993038,0.183
-0.030721912135340982,0.184
-0.03641184379354208,0.185
-0.03907903008500283,0.186
-0.038714252127685804,0.187
-0.035413936045437605,0.188
-0.029290911143289102,0.189
-0.020540802844279372,0.19
-0.009586481341417803,0.191
0.002764957065182449,0.192
0.01522628720518469,0.193
0.026123240416315568,0.194
0.0337470906135347,0.195
0.03685737103050978,0.196
0.035076117937622546,0.197
0.029003481419463212,0.198
0.02006313051502287,0.199
0.01010776390985852,0.2
0.0008870298539031905,0.201
-0.006373561228609141,0.202
-0.011112695276396823,0.203
-0.013305630605736852,0.204
-0.013190939569100982,0.205
-0.011064091061934391,0.206
-0.007268399382561693,0.207
-0.002289811654780214,0.208
0.0031840201772984963,0.209
0.008301703196463216,0.21
0.012202994134530921,0.211
0.01423777525916614,0.212
0.014117941689199312,0.213
0.011894740621988269,0.214
0.00780569978044623,0.215
0.0022032188778671586,0.216
-0.004310356582860537,0.217
-0.010753999630652098,0.218
-0.015930892215980347,0.219
-0.018833173596122556,0.22
-0.0190070949088501,0.221
-0.01667493052648813,0.222
-0.012594962443742103,0.223
-0.007782430601788736,0.224
-0.003254866270971881,0.225
0.00010259969790275995,0.226
0.0016073368832762618,0.227
0.0009017173961934657,0.228
-0.001892862717393599,0.229
-0.006136599899893897,0.23
-0.010815746343828632,0.231
-0.014780423520375742,0.232
-0.016945819432750024,0.233
-0.016426525898590488,0.234
-0.012688539381580877,0.235
-0.005773752241743218,0.236
0.0035327248518776193,0.237
0.013820635655106989,0.238
0.0235098048713343,0.239
0.03137231020052564,0.24
0.036765648176360285,0.241
0.03949628077093373,0.242
0.039500132038800324,0.243
0.03659635031571888,0.244
0.030541510739248563,0.245
0.021390912309157024,0.246
0.009842662051251871,0.247
-0.0027684347757295034,0.248
-0.014804928166173827,0.249
-0.024739436624854755,0.25
-0.03147913001454843,0.251
-0.0345457617875143,0.252
-0.03407601150997909,0.253
-0.03063800786537511,0.254
-0.02496225687841719,0.255
-0.017757445898514124,0.256
-0.009691058924837303,0.257
-0.0014706571544164406,0.258
0.006081342457294123,0.259
0.012029743794742852,0.26
0.015443524952388722,0.261
0.015640238494654114,0.262
0.01246655396519889,0.263
0.006435662960873188,0.264
-0.001356295239756628,0.265
-0.009460227413759353,0.266
-0.016358187707092582,0.267
-0.020744103276125136,0.268
-0.02174207241188277,0.269
-0.01902280669058645,0.27
-0.012833163022429393,0.271
-0.003960094503549334,0.272
0.0063897803671375646,0.273
0.01679211492800323,0.274
0.025822478479295367,0.275
0.032239634813622055,0.276
0.0351310299984706,0.277
0.03403445712838522,0.278
0.029045571177886195,0.279
0.020858183972388714,0.28
0.010661421661403539,0.281
-8.585886992500753e-05,0.282
-0.009912702549155038,0.283
-0.017574002190463286,0.284
-0.022244295877052685,0.285
-0.023620952081833513,0.286
-0.021909736882952103,0.287
-0.017696923171733863,0.288
-0.011754791078979868,0.289
-0.0048865670564098625,0.29
0.0021184713854900963,0.291
0.008444864416933123,0.292
0.013209328090258047,0.293
0.015516060799208371,0.294
0.014667556214064098,0.295
0.01046088193207085,0.296
0.0033730595375752854,0.297
-0.005494053111450871,0.298
-0.01464791810898906,0.299
-0.022495573478205265,0.3
-0.027649895908424968,0.301
-0.02922137043676818,0.302
-0.02697187748031811,0.303
-0.02125782812420519,0.304
-0.012870160387289211,0.305
-0.00289232146936879,0.306
0.007429346389176087,0.307
0.016820281839324054,0.308
0.024082106300512187,0.309
0.028175875207184935,0.31
0.02836380727424309,0.311
0.02445715207845327,0.312
0.017060259212454684,0.313
0.00759880732191815,0.314
-0.001945206538992312,0.315
-0.009475692429359249,0.316
-0.01326408163884506,0.317
-0.012391829206892578,0.318
-0.007046297179073757,0.319
0.0014853956549651433,0.32
0.011181137784232978,0.321
0.019868242805649968,0.322
0.025775070755152216,0.323
0.027835265539421995,0.324
0.025694955626788685,0.325
0.01956018911918546,0.326
0.010080738432765064,0.327
-0.0016463364831853175,0.328
-0.014074266546576899,0.329
-0.025403843571622006,0.33
-0.03397665291468228,0.331
-0.03863722044271151,0.332
-0.03890881480114427,0.333
-0.03502291284460422,0.334
-0.027855271111484496,0.335
-0.018736821133650598,0.336
-0.009124196068128424,0.337
-0.00022755714471540847,0.338
0.007229302826166473,0.339
0.013021501346061188,0.34
0.01725807868265092,0.341
0.020129739292385068,0.342
0.021657511439443923,0.343
0.021578458226619586,0.344
0.019479870166256755,0.345
0.01511400178299474,0.346
0.00868163039764021,0.347
0.0009342766703949694,0.348
-0.0069220544025428215,0.349
-0.01349554439410664,0.35
-0.01758771854865099,0.351
-0.01853058286302252,0.352
-0.016313715694537993,0.353
-0.01146380489499731,0.354
-0.004805147518626366,0.355
0.00272835014891891,0.356
0.010178412003129435,0.357
0.016628096423075354,0.358
0.02130984615390826,0.359
0.02370355671103212,0.36
0.023578742537474315,0.361
0.02100566481833448,0.362
0.01634117870835203,0.363
0.010179156004416975,0.364
0.0032641145177554182,0.365
-0.0036292914194625703,0.366
-0.009809570893624575,0.367
-0.01474510096821263,0.368
-0.018101218409205932,0.369
-0.019705593707932713,0.37
-0.019452280368996128,0.371
-0.01726643359136339,0.372
-0.013229270343216927,0.373
-0.007747419182159404,0.374
-0.0015737261949113357,0.375
0.004307594993020279,0.376
0.008841190642030629,0.377
0.01112336469978369,0.378
0.010649883962120212,0.379
0.007462505245918394,0.38
0.0021771658554022816,0.381
-0.004071981952658098,0.382
-0.009847207330159648,0.383
-0.01380203919560654,0.384
-0.015085585968712699,0.385
-0.013552943640590221,0.386
-0.009695250246272512,0.387
-0.004364284491530459,0.388
0.0015061647551672416,0.389
0.007048928144219783,0.39
0.011533513897966207,0.391
0.014419242442115874,0.392
0.015358430891263224,0.393
0.0141711619485291,0.394
0.010893961686044694,0.395
0.005893758396212095,0.396
-9.14419637636842e-05,0.397
-0.006039494399544808,0.398
-0.01080050650304569,0.399
-0.01331108585154596,0.4
-0.012885296901870315,0.401
-0.009493964538643263,0.402
-0.0038414571299921077,0.403
0.0028635796770851802,0.404
0.00932082376467157,0.405
0.014507702427067658,0.406
0.017867367644056536,0.407
0.019280433801705885,0.408
0.018868962834319967,0.409
0.016789882301244636,0.41
0.01316160045019395,0.411
0.008120158135306565,0.412
0.001931141655746417,0.413
-0.004899787773867421,0.414
-0.01159334219353988,0.415
-0.017210520256743647,0.416
-0.020887013531926603,0.417
-0.022080044859525392,0.418
-0.020713262962781524,0.419
-0.017147856481301987,0.42
-0.01200813403288046,0.421
-0.005985111741675672,0.422
0.00027100333099922236,0.423
0.006154123174709314,0.424
0.011052480650105043,0.425
0.014320499018794692,0.426
0.015354859547767934,0.427
0.013792447299857133,0.428
0.009711525568186559,0.429
0.003685256554868181,0.43
-0.0033168544049965677,0.431
-0.010085378435046265,0.432
-0.015356977984952662,0.433
-0.018063579621254537,0.434
-0.01761790947990849,0.435
-0.01410017775309476,0.436
-0.008216601114891075,0.437
-0.0010598270045500595,0.438
0.006171087442178122,0.439
0.012393855966400646,0.44
0.01681448395015897,0.441
0.01902444295759193,0.442
0.01896369901576349,0.443
0.016785916390985336,0.444
0.01276942554187278,0.445
0.007339218909422053,0.446
0.0011114769784908041,0.447
-0.00512220452651678,0.448
-0.010478773697804077,0.449
-0.014137765180761019,0.45
-0.01554959545645531,0.451
-0.01460934827598597,0.452
-0.011667819544921363,0.453
-0.007342687292629626,0.454
-0.002257236629578074,0.455
0.00310724145124324,0.456
0.008359988381642773,0.457
0.013020976087179455,0.458
0.01640022955337496,0.459
0.01769408813982701,0.46
0.016257326705405337,0.461
0.011892547238193971,0.462
0.005033213155040386,0.463
-0.0032841156907217617,0.464
-0.011669427557989644,0.465
-0.018718844439188455,0.466
-0.023315836075323546,0.467
-0.024829098524673056,0.468
-0.023177306486022266,0.469
-0.01875450467507135,0.47
-0.012250528151222115,0.471
-0.004479612728213548,0.472
0.003688592018179223,0.473
0.011325899464006072,0.474
0.017462714676302005,0.475
0.021186855735510237,0.476
0.02182698807801839,0.477
0.019186559568264715,0.478
0.013736585204313954,0.479
0.006613595093731904,0.48
-0.0006357273833391316,0.481
-0.006446038923445354,0.482
-0.00960480475442468,0.483
-0.00951354772389526,0.484
-0.006322621919923198,0.485
-0.0009347901198599604,0.486
0.005199808854470461,0.487
0.010539744535156584,0.488
0.013976545252404115,0.489
0.015114668675262448,0.49
0.014173996722219976,0.491
0.011651157355993298,0.492
0.007973139241642103,0.493
0.003350926432871911,0.494
-0.002092461371214126,0.495
-0.008080636518280532,0.496
-0.014061719374178439,0.497
-0.019285856856934302,0.498
-0.02300670761205811,0.499
-0.024683118521256923,0.5
-0.024108454022218746,0.501
-0.021441512635862334,0.502
-0.017121131090849197,0.503
-0.01169241771693742,0.504
-0.005640556415768268,0.505
0.000655185341011705,0.506
0.006827283466805259,0.507
0.012399618909363,0.508
0.016758963386454762,0.509
0.019243273223368607,0.51
0.0193234739187905,0.511
0.01682197514670615,0.512
0.012059458470145657,0.513
0.005835097775969772,0.514
-0.0007518438464947279,0.515
-0.0065407131746738015,0.516
-0.010523733942238666,0.517
-0.012007381663215482,0.518
-0.010699210878123205,0.519
-0.006716538071435008,0.52
-0.0005699066250615411,0.521
0.0068449218168464285,0.522
0.014313910077972516,0.523
0.020508475824120187,0.524
0.024262816641198996,0.525
0.024780685645089364,0.526
0.021736453099446416,0.527
0.015344473053282149,0.528
0.006403042368673598,0.529
-0.0037912123829707,0.53
-0.013698637781860534,0.531
-0.021861512728361236,0.532
-0.027185066972653195,0.533
-0.02911776294013423,0.534
-0.027713587064443723,0.535
-0.023569919976517226,0.536
-0.017615229811437753,0.537
-0.010798078726287748,0.538
-0.003858354284263501,0.539
0.002715970497153268,0.54
0.008603814597394115,0.541
0.013502622775929903,0.542
0.01698957910720913,0.543
0.018529755216148927,0.544
0.017688687643375896,0.545
0.01440049839835699,0.546
0.009093336191202603,0.547
0.0026425206223379223,0.548
-0.0037815129309156943,0.549
-0.008947213119218119,0.55
-0.01184616927713246,0.551
-0.011943629598198799,0.552
-0.009302624058212066,0.553
-0.004527766862718417,0.554
0.001428688489982903,0.555
0.00748382776589149,0.556
0.012598853388562179,0.557
0.015909054883334266,0.558
0.01679064773242336,0.559
0.014867831117538704,0.56
0.010051699190693208,0.561
0.0026824991120844993,0.562
-0.006317814277674103,0.563
-0.015459927404562096,0.564
-0.022955401812989502,0.565
-0.027182908052949057,0.566
-0.027170762955716733,0.567
-0.022875129590941207,0.568
-0.015138057563355546,0.569
-0.005377821265590576,0.57
0.004822832649460986,0.571
0.014074879204238168,0.572
0.02140451925266501,0.573
0.02629748479783122,0.574
0.028581484199024332,0.575
0.028236485442915425,0.576
0.025265088743530294,0.577
0.019732458028327644,0.578
0.011934995956448362,0.579
0.0025342800846787357,0.58
-0.007428631277047213,0.581
-0.01663554509558026,0.582
-0.02372830891829671,0.583
-0.027657084557433202,0.584
-0.02798707908250653,0.585
-0.02497531959117898,0.586
-0.019375126105919863,0.587
-0.012138609702035895,0.588
-0.004216262434546157,0.589
0.0035224096150518985,0.59
0.010312119845264157,0.591
0.015480558300403839,0.592
0.01843811967445044,0.593
0.018744805792035326,0.594
0.016264785629701895,0.595
0.011302588746271238,0.596
0.004612669219035404,0.597
-0.0027210033352493166,0.598
-0.009475620571739497,0.599
-0.014509212284466106,0.6
-0.016996045517842374,0.601
-0.016632803463596378,0.602
-0.013697730013372742,0.603
-0.008877586759597097,0.604
-0.002972171555257779,0.605
0.0032997633159796134,0.606
0.009313324523669966,0.607
0.014470825906632408,0.608
0.01816825252011971,0.609
0.01983388971740776,0.61
0.019044820653499536,0.611
0.015706361836658533,0.612
0.01019469883840725,0.613
0.003335479221703105,0.614
-0.003769861336789641,0.615
-0.009967626347649335,0.616
-0.014280857875657187,0.617
-0.016116607349311803,0.618
-0.015376847645852698,0.619
-0.012413749277711801,0.62
-0.007858983637191345,0.621
-0.0024345959426085337,0.622
0.003162481163535432,0.623
0.008287686667251003,0.624
0.012326595268511894,0.625
0.014682655761208252,0.626
0.014834034054369017,0.627
0.012482200028730862,0.628
0.007721907059178242,0.629
0.0011193314287386868,0.63
-0.00633103530654773,0.631
-0.013356740840940214,0.632
-0.0186697811322953,0.633
-0.021299085851030113,0.634
-0.02086046591722438,0.635
-0.017601452092786046,0.636
-0.012192499230642253,0.637
-0.005427193591031083,0.638
0.001969692173619329,0.639
0.009346430610202789,0.64
0.016011822498491337,0.641
0.021147556739816713,0.642
0.023857068590684122,0.643
0.02338964485913972,0.644
0.019473427111678217,0.645
0.01256838175684344,0.646
0.003836071070428734,0.647
-0.0051882666741728594,0.648
-0.013012506407995745,0.649
-0.018487270448175122,0.65
-0.02097078792830044,0.651
-0.020415340302477873,0.652
-0.017319325209825587,0.653
-0.01249257282923573,0.654
-0.0067642151648594434,0.655
-0.0008020421219787551,0.656
0.004914284776808463,0.657
0.01000111054040905,0.658
0.014036601512354778,0.659
0.016507422667399182,0.66
0.016912028147909812,0.661
0.014962454567746886,0.662
0.010761572281242924,0.663
0.004878585288734438,0.664
-0.0017159785692127088,0.665
-0.007865095689809221,0.666
-0.012517711288041125,0.667
-0.014983257438497186,0.668
-0.015062040829842771,0.669
-0.013007755983470513,0.67
-0.00935379145624083,0.671
-0.00471728093537264,0.672
0.0003156029217607969,0.673
0.005215896261059717,0.674
0.009503235635388555,0.675
0.012727060742429866,0.676
0.014446980333443278,0.677
0.01427211818805167,0.678
0.012000291123109507,0.679
0.007785730753215545,0.68
0.002221730477981947,0.681
-0.0037247460994111565,0.682
-0.008934735883645665,0.683
-0.012460118733519914,0.684
-0.013799796201579544,0.685
-0.012966400218851844,0.686
-0.010332345424097245,0.687
-0.006412199263932024,0.688
-0.0017320258324951354,0.689
0.003196388633095518,0.69
0.007854918747177544,0.691
0.011689716388195706,0.692
0.014103788768709212,0.693
0.014540711255377821,0.694
0.01268635598669273,0.695
0.008667464155926143,0.696
0.0030938472209417122,0.697
-0.003067731119238749,0.698
-0.008701463676593135,0.699
-0.012769924258843955,0.7
-0.01454956704630363,0.701
-0.013819931430183289,0.702
-0.010876531463031658,0.703
-0.006349052204352596,0.704
-0.000982383288053206,0.705
0.004490739957102279,0.706
0.00937629567488306,0.707
0.012993884234976116,0.708
0.01468276401220991,0.709
0.013912290118779825,0.71
0.010480505118164845,0.711
0.004683194684893516,0.712
-0.002652561347385659,0.713
-0.010283494968468126,0.714
-0.016803159590512606,0.715
-0.020994409031636227,0.716
-0.022144771757593072,0.717
-0.020189740704328434,0.718
-0.015653457459347965,0.719
-0.009422292876670521,0.72
-0.0024429923329951585,0.721
0.004505139860702309,0.722
0.010865308360936462,0.723
0.016219464905391244,0.724
0.02016814095059612,0.725
0.022266691472365076,0.726
0.022083157441240425,0.727
0.019380897065659507,0.728
0.014322233364384183,0.729
0.007543510825044672,0.73
5.3193181097689684e-05,0.731
-0.006968843162768336,0.732
-0.012399236837993478,0.733
-0.015416650032952634,0.734
-0.015708924701352142,0.735
-0.01352348361316432,0.736
-0.009525324637961,0.737
-0.0045505692801510655,0.738
0.0006206191868522897,0.739
0.005378838719955648,0.74
0.009269394779458446,0.741
0.01190870456752435,0.742
0.012922017074955015,0.743
0.011973417656224502,0.744
0.008922076446376579,0.745
0.004022661051365891,0.746
-0.0020113909350436346,0.747
-0.008148578569894479,0.748
-0.013273122481146314,0.749
-0.016423952348105134,0.75
-0.017038599846753565,0.751
-0.015130274652619048,0.752
-0.011248293074487657,0.753
-0.006211337030950147,0.754
-0.0008090759221067483,0.755
0.004350359261413826,0.756
0.00883530333030463,0.757
0.012296045019626596,0.758
0.014373061605285726,0.759
0.014703646225514308,0.76
0.013046089320135503,0.761
0.009443498100875032,0.762
0.0043173908700673645,0.763
-0.0015653124551874788,0.764
-0.007224237828997011,0.765
-0.011646934118941105,0.766
-0.014010449140994563,0.767
-0.013918882671125505,0.768
-0.011529624779138867,0.769
-0.007451868388970975,0.77
-0.002490785178811239,0.771
0.0025899429436681116,0.772
0.007196333587972919,0.773
0.010912639813979039,0.774
0.013416561812773859,0.775
0.01438221182412707,0.776
0.013491767265866,0.777
0.010597886543122036,0.778
0.005906865282325092,0.779
2.426247418816676e-05,0.78
-0.00614629105926922,0.781
-0.011576759413617037,0.782
-0.015323356441993691,0.783
-0.016754255840705275,0.784
-0.015722741610878124,0.785
-0.012567688045423017,0.786
-0.007925066710128364,0.787
-0.0024976537036543807,0.788
0.0030693913771834987,0.789
0.008208755002493474,0.79
0.012422657161406735,0.791
0.015272455439946979,0.792
0.016366237894583816,0.793
0.015394356964415736,0.794
0.01226198925877938,0.795
0.007246795589267635,0.796
0.0010419326365505718,0.797
-0.0053600821211744,0.798
-0.010874660929896442,0.799
-0.014561959487923973,0.8
-0.015861650178923038,0.801
-0.014729371979315078,0.802
-0.011573571549500568,0.803
-0.007041043679595421,0.804
-0.0018078886652105428,0.805
0.003524646962556093,0.806
0.008439660109309268,0.807
0.012453988140929628,0.808
0.015052450744076995,0.809
0.015707200171075873,0.81
0.014041060390319096,0.811
0.010047934775310439,0.812
0.004214865112788281,0.813
-0.002528305241201683,0.814
-0.00899727951259964,0.815
-0.01401740392636459,0.816
-0.016707494815876557,0.817
-0.01670654478366962,0.818
-0.014233485329240266,0.819
-0.009924982235552217,0.82
-0.004561253055595465,0.821
0.0011406112411283078,0.822
0.006597015622127192,0.823
0.011320882980302429,0.824
0.014827375652911664,0.825
0.016579787760119792,0.826
0.016088166092736327,0.827
0.013145923232499994,0.828
0.00803724747592756,0.829
0.0015595775534770965,0.83
-0.005151391197863733,0.831
-0.010900192192387685,0.832
-0.014709731413960491,0.833
-0.016030160744207156,0.834
-0.014831811734017005,0.835
-0.01155013758724087,0.836
-0.006902060505998783,0.837
-0.0016664346171703496,0.838
0.003465214487011651,0.839
0.007939253280573296,0.84
0.011334333767786815,0.841
0.013327891597935414,0.842
0.013652889653479834,0.843
0.01211636687566455,0.844
0.008721792884162971,0.845
0.0037972109687460535,0.846
-0.001992329854496005,0.847
-0.007749285103639403,0.848
-0.012506442622869672,0.849
-0.015426426855726639,0.85
-0.016015149139601524,0.851
-0.014256767394350334,0.852
-0.010572159927419139,0.853
-0.0056205950952030416,0.854
-8.559202777394401e-05,0.855
0.005428307977849498,0.856
0.010384646971673675,0.857
0.014268286155866857,0.858
0.016570802454214852,0.859
0.016842734939214038,0.86
0.014827473332460475,0.861
0.010629242923719707,0.862
0.004790588388953917,0.863
-0.0017917782303579412,0.864
-0.008053209626016796,0.865
-0.012966805639716377,0.866
-0.01574962491240911,0.867
-0.016040379314038376,0.868
-0.013955805493546703,0.869
-0.009981921197424241,0.87
-0.004787993877892859,0.871
0.0009194088779338606,0.872
0.006474721760170224,0.873
0.011279716340485945,0.874
0.014776557643808972,0.875
0.016422363972752454,0.876
0.015765484600833886,0.877
0.012633604163674645,0.878
0.00731800555552156,0.879
0.0006092716231602196,0.88
-0.0063581492913811904,0.881
-0.012373307216697447,0.882
-0.0164280217085967,0.883
-0.01793757002942652,0.884
-0.016848110353810217,0.885
-0.013574278127818699,0.886
-0.008773541715058734,0.887
-0.0031144003545063893,0.888
0.002808528901453888,0.889
0.008444576993764236,0.89
0.013243308573306035,0.891
0.016630175169700778,0.892
0.018024351761037886,0.893
0.016960174041046792,0.894
0.01331190514149589,0.895
0.007473696674186928,0.896
0.0003409541601967687,0.897
-0.0068875417870086116,0.898
-0.012975065208963067,0.899
-0.01691532742855913,0.9
-0.018166258533745438,0.901
-0.016770839583665823,0.902
-0.013258133157850611,0.903
-0.008353251701060124,0.904
-0.002719947971854492,0.905
0.0031012572901346564,0.906
0.008611235350016398,0.907
0.013257068200263471,0.908
0.016410280226448377,0.909
0.01745753991623253,0.91
0.01599962773192347,0.911
0.012062311528947408,0.912
0.006177277415939789,0.913
-0.0007065779697729468,0.914
-0.007418564592585556,0.915
-0.012804368597896017,0.916
-0.01597317136930307,0.917
-0.016506038975323885,0.918
-0.014527082418441209,0.919
-0.01057765273764676,0.92
-0.0053782943732255135,0.921
0.0003646571266184208,0.922
0.006026816512839354,0.923
0.011039445890617358,0.924
0.014834791498208884,0.925
0.016820662100474792,0.926
0.01645902232850481,0.927
0.013473819687498438,0.928
0.00806977031122514,0.929
0.00099733040467363,0.93
-0.006575766456297886,0.931
-0.013310731753225042,0.932
-0.017986907867153352,0.933
-0.019787217750836895,0.934
-0.018504373322480113,0.935
-0.014551675719293439,0.936
-0.008748514957294772,0.937
-0.0020287776648443157,0.938
0.004746153515672105,0.939
0.010835241713877114,0.94
0.015604754114575334,0.941
0.018510111335436646,0.942
0.019104593815053195,0.943
0.017137829386435547,0.944
0.012730075260849733,0.945
0.006464806223599589,0.946
-0.0007034783298577556,0.947
-0.007649644466764146,0.948
-0.013281921055496339,0.949
-0.016738628578997543,0.95
-0.017576402791333705,0.951
-0.015865781327093657,0.952
-0.01210372317534402,0.953
-0.00698787420634008,0.954
-0.0012202309406648285,0.955
0.004561292407649938,0.956
0.009772029480261452,0.957
0.013852599271998865,0.958
0.0162528382166422,0.959
0.016485060354537208,0.96
0.01428459219110552,0.961
0.009793449849456312,0.962
0.003622848939350923,0.963
-0.003245844204866574,0.964
-0.009656363912140203,0.965
-0.014512057515291658,0.966
-0.017025982281261544,0.967
-0.016916409972695855,0.968
-0.014427368072295537,0.969
-0.010157486451869332,0.97
-0.004830913200428579,0.971
0.0008626816089656776,0.972
0.0063310119321771776,0.973
0.011066170080696363,0.974
0.014586874149410723,0.975
0.016389633259050275,0.976
0.015998390954344962,0.977
0.01315866893276479,0.978
0.008058390956983975,0.979
0.0014009240786085906,0.98
-0.005701421232639699,0.981
-0.01195265628336579,0.982
-0.0161751900726585,0.983
-0.017626376358256278,0.984
-0.016201205880263823,0.985
-0.01238992042639757,0.986
-0.007006804860418722,0.987
-0.0008916189401904467,0.988
0.005237009727520669,0.989
0.01078123897217808,0.99
0.015204852021596655,0.991
0.017968337043834614,0.992
0.018529065674247933,0.993
0.016498680644088416,0.994
0.011899812546340888,0.995
0.005307148741447953,0.996
-0.002246743183130582,0.997
-0.00952241159954768,0.998
-0.01534301408273767,0.999
-0.018812424091830537,1.0
-0.019482504993172025,1.001
-0.01743685160472493,1.002
-0.013207724217921855,1.003
-0.007548953337123463,1.004
-0.001225269121072352,1.005
0.0050800168488122814,1.006
0.010761722923172842,1.007
0.015236417440798795,1.008
0.017893987859537476,1.009
0.018154358789632497,1.01
0.015671827100680494,1.011
0.01058231057644635,1.012
0.0036001494403438525,1.013
-0.0041071975749850725,1.014
-0.011171159975812025,1.015
-0.016314983301997776,1.016
-0.018651057539751045,1.017
-0.017892061333352027,1.018
-0.014366102800013283,1.019
-0.00883552167282397,1.02
-0.002241094173407437,1.021
0.004498647217804048,1.022
0.010586967905139601,1.023
0.015363790697241276,1.024
0.018280186675616518,1.025
0.01889606383580368,1.026
0.0169533038110393,1.027
0.012521481090868956,1.028
0.006113873166221243,1.029
-0.001346536238977393,1.03
-0.008697741801880546,1.031
-0.01475550854812291,1.032
-0.018546831579484054,1.033
-0.01954016161306794,1.034
-0.01777299480269387,1.035
-0.01377563821429404,1.036
-0.008324148511427234,1.037
-0.002188061978251939,1.038
0.003983885589903584,1.039
0.009637743039557316,1.04
0.014240643557572326,1.041
0.01723703803638162,1.042
0.018078572756116462,1.043
0.016371081872804616,1.044
0.012104687529581198,1.045
0.005809216563992021,1.046
-0.001494221702377102,1.047
-0.008527224774096735,1.048
-0.01405686756096621,1.049
-0.01716716475740641,1.05
-0.017453683630856236,1.051
-0.015077981493198049,1.052
-0.010637242247535404,1.053
-0.004931391137424462,1.054
0.0012316634509467717,1.055
0.007133152035785882,1.056
0.012166603182967783,1.057
0.015815823135540343,1.058
0.017614770013783556,1.059
0.0171550052532517,1.06
0.014205692661542898,1.061
0.00890290550251898,1.062
0.0018663462659500168,1.063
-0.005847094972907169,1.064
-0.012940445726859965,1.065
-0.018169935427968898,1.066
-0.02065158479189227,1.067
-0.020070478768921915,1.068
-0.016701841102913936,1.069
-0.01124724959712817,1.07
-0.004598371829626678,1.071
0.0023547847597999204,1.072
0.008829854595228706,1.073
0.014176191936895757,1.074
0.017835330365592563,1.075
0.019302295940917587,1.076
0.01819969423374058,1.077
0.01448474065604743,1.078
0.008620224837349874,1.079
0.0015358106260473798,1.08
-0.0055879847326385,1.081
-0.011571755074718327,1.082
-0.015460351612884091,1.083
-0.016711981928111633,1.084
-0.015311772014388181,1.085
-0.011729897950153473,1.086
-0.006715026811492207,1.087
-0.001052231603830579,1.088
0.004580735664444754,1.089
0.009633779509542053,1.09
0.013617440870367115,1.091
0.016021297620976135,1.092
0.01632335332888383,1.093
0.014155470418734363,1.094
0.009556729337460691,1.095
0.0031282847372801005,1.096
-0.004047028404673195,1.097
-0.01067485153495808,1.098
-0.015563981399216298,1.099
-0.01789988763238016,1.1
-0.01743002642215045,1.101
-0.014473756259557949,1.102
-0.009729115266761703,1.103
-0.003999455576708271,1.104
0.0019964822833238743,1.105
0.007669696901032903,1.106
0.012505816993666067,1.107
0.01598777489296579,1.108
0.017569514566729182,1.109
0.01676978358775434,1.11
0.013389859290118286,1.111
0.007712057857907292,1.112
0.000524592959240387,1.113
-0.0070211253339391225,1.114
-0.013639765926068874,1.115
-0.018179176107964542,1.116
-0.019883130093259167,1.117
-0.018571017791339156,1.118
-0.014638998492462306,1.119
-0.008871844773108286,1.12
-0.0021829361810987258,1.121
0.004581801109449937,1.122
0.010728832517588,1.123
0.015701194728004287,1.124
0.018988094064341727,1.125
0.020058111778229592,1.126
0.018465172541165573,1.127
0.0141226894646337,1.128
0.007516924278416555,1.129
-0.0003282116187965618,1.13
-0.008086480594806428,1.131
-0.01442256866822334,1.132
-0.01827825969506725,1.133
-0.019124820371045476,1.134
-0.017085275379881037,1.135
-0.012817786707856967,1.136
-0.007210676479600702,1.137
-0.0010957462775455615,1.138
0.004866113738356683,1.139
0.010149182901175644,1.14
0.014284350068824978,1.141
0.016806288290803596,1.142
0.017256761072938696,1.143
0.015293031798888667,1.144
0.01090370999736611,1.145
0.004584835363470382,1.146
-0.002685606514473615,1.147
-0.009659060510552705,1.148
-0.01510257095645132,1.149
-0.018095117086000163,1.15
-0.018259162260700183,1.151
-0.01580370556618854,1.152
-0.011350888457855047,1.153
-0.00567998484533832,1.154
0.00046271734457739664,1.155
0.006434394522830819,1.156
0.011663209322037876,1.157
0.015576903889883947,1.158
0.017584561405553503,1.159
0.017185310835404945,1.16
0.014190508921537087,1.161
0.008911576802330857,1.162
0.0021582046733252765,1.163
-0.004940788205132799,1.164
-0.011174622944856568,1.165
-0.015487802457144739,1.166
-0.017214339937881806,1.167
-0.01623646815523351,1.168
-0.012958601735144187,1.169
-0.008105451723350003,1.17
-0.002473798192916384,1.171
0.0032383020315041003,1.172
0.008477241805242558,1.173
0.012774405893601423,1.174
0.01564653488380853,1.175
0.01656568431986338,1.176
0.015100885734742789,1.177
0.011178604211763728,1.178
0.005253503661650009,1.179
-0.0017379711512639027,1.18
-0.008586092926391913,1.181
-0.014074183978556438,1.182
-0.017241529622428264,1.183
-0.017601501738400346,1.184
-0.015242042758683308,1.185
-0.010736012849234356,1.186
-0.0049028648562620515,1.187
0.001422211373321548,1.188
0.0074968951448373235,1.189
0.012679567274167202,1.19
0.01641119505096876,1.191
0.018197706035860597,1.192
0.01762711854309622,1.193
0.014504019464621638,1.194
0.009054016049875607,1.195
0.002000993707271844,1.196
-0.005556413246119289,1.197
-0.012367954121080943,1.198
-0.017272310496670308,1.199
-0.01945002762801301,1.2
-0.01864578030673247,1.201
-0.015220719850576768,1.202
-0.00995522600399624,1.203
-0.0037347280739104295,1.204
0.002661730220436856,1.205
0.00859716963816324,1.206
0.013519337329568476,1.207
0.016904416767622266,1.208
0.018255039596757994,1.209
0.01718947034663303,1.21
0.013618989057084717,1.211
0.00791161592218241,1.212
0.0009067067950039469,1.213
-0.0062402886117376545,1.214
-0.012301417919126608,1.215
-0.01625162322052922,1.216
-0.01753028180975415,1.217
-0.016167082218658327,1.218
-0.012682122326743121,1.219
-0.007839780305298038,1.22
-0.0024164655132661427,1.221
0.0029312473157637456,1.222
0.007704790176545838,1.223
0.011522404712,1.224
0.014022242094718751,1.225
0.014810740803815366,1.226
0.013556638104501566,1.227
0.010198592449545957,1.228
0.005107439234407901,1.229
-0.0009285718818868325,1.23
-0.006875268487779001,1.231
-0.011683653115417903,1.232
-0.01452093937052309,1.233
-0.01496917860356539,1.234
-0.013121404941226702,1.235
-0.00948375261046235,1.236
-0.004721562144578677,1.237
0.0005509682531536605,1.238
0.005809141801081219,1.239
0.010556012954987102,1.24
0.014273310394080647,1.241
0.016414284452526014,1.242
0.016463717990730705,1.243
0.014108127416747515,1.244
0.009441468486741558,1.245
0.003050905071137864,1.246
-0.004062380417748985,1.247
-0.010674451316211453,1.248
-0.01560486317365451,1.249
-0.018014826050351394,1.25
-0.01762546584399072,1.251
-0.014735938376899353,1.252
-0.01003609554353063,1.253
-0.004331012477658671,1.254
0.0016695866597542712,1.255
0.007399848127572618,1.256
0.012351966626875726,1.257
0.015971930789286687,1.258
0.017644435682880006,1.259
0.016831041789873488,1.26
0.013327652941536256,1.261
0.007472719710148708,1.262
0.0001536563607931233,1.263
-0.007380067505660241,1.264
-0.013796422784304863,1.265
-0.017976562748680883,1.266
-0.0192756669238895,1.267
-0.017657962697026276,1.268
-0.0136165018962708,1.269
-0.007930735417992515,1.27
-0.0014366221178430043,1.271
0.005089762329687737,1.272
0.01095950832686745,1.273
0.01554730899148149,1.274
0.018264223701232,1.275
0.01860377942176103,1.276
0.016292819701532645,1.277
0.011484417978029304,1.278
0.004851024135337943,1.279
-0.002518292727098906,1.28
-0.009358329339918318,1.281
-0.014499526178956793,1.282
-0.017124778009470522,1.283
-0.016963305617722146,1.284
-0.01432218328596874,1.285
-0.009897211395603124,1.286
-0.004472202355203367,1.287
0.0012762180949215858,1.288
0.006787099760515661,1.289
0.011548851697757772,1.29
0.015059010801307109,1.291
0.016816648989053815,1.292
0.016373638775050124,1.293
0.013504450352463136,1.294
0.008417679966747,1.295
0.0018149028492015886,1.296
-0.005251565047489372,1.297
-0.011605512352627786,1.298
-0.016179245561458628,1.299
-0.01823920887430778,1.3
-0.01755689199576788,1.301
-0.01443322376531865,1.302
-0.009539203731509906,1.303
-0.0036642964797477693,1.304
0.002468642703093931,1.305
0.008248939437836644,1.306
0.013127974573710377,1.307
0.016544750335784213,1.308
0.01791027297243738,1.309
0.01673552395753061,1.31
0.012881845945933307,1.311
0.00676126528968558,1.312
-0.0006771864490698636,1.313
-0.00815827863123545,1.314
-0.014363771863858689,1.315
-0.018215902048762504,1.316
-0.01912331240994762,1.317
-0.01710169056272327,1.318
-0.01269319613013375,1.319
-0.006733960933411056,1.32
-0.00011103202630804418,1.321
0.0063832757053809445,1.322
0.01207992164571439,1.323
0.01639410435257105,1.324
0.018793560842813795,1.325
0.018836689843355313,1.326
0.016303416142328518,1.327
0.011358481469563423,1.328
0.004630117682620771,1.329
-0.002858369754398715,1.33
-0.009878184329850163,1.331
-0.015248162966745275,1.332
-0.018101072932703004,1.333
-0.018103681706141565,1.334
-0.015527492873750095,1.335
-0.011089812513615753,1.336
-0.005647640547580264,1.337
4.639503383693626e-05,1.338
0.005413119108349032,1.339
0.010001507755018273,1.34
0.013413415732230548,1.341
0.015238777328893954,1.342
0.015077619977237534,1.343
0.012707918834264757,1.344
0.0082894030275193,1.345
0.0024265395300054004,1.346
-0.003931091045365985,1.347
-0.009672302084417887,1.348
-0.013759552545081743,1.349
-0.015485678031260925,1.35
-0.014664286888865329,1.351
-0.011652211443721883,1.352
-0.007163248227001803,1.353
-0.0019828393234264225,1.354
0.0032219938120199142,1.355
0.007936884301544508,1.356
0.011751613860380683,1.357
0.014282172433166979,1.358
0.015121474718792202,1.359
0.013916368526147001,1.36
0.010569092661450482,1.361
0.005405474045790884,1.362
-0.0008266944104466601,1.363
-0.007104058160189925,1.364
-0.012336325998852683,1.365
-0.015608069670187881,1.366
-0.01640717630482184,1.367
-0.014735961922359387,1.368
-0.01103561442398226,1.369
-0.005975817370537124,1.37
-0.00025359062641389703,1.371
0.005499128850707909,1.372
0.010710127756100783,1.373
0.014823186888984048,1.374
0.017275167717955217,1.375
0.017550232488712843,1.376
0.015336744339118613,1.377
0.010716398393998197,1.378
0.004250251495645651,1.379
-0.0030904867680850105,1.38
-0.010101787279444443,1.381
-0.015591516600624246,1.382
-0.018657128737828925,1.383
-0.01891204076115741,1.384
-0.016539263392289102,1.385
-0.012128746911298156,1.386
-0.006423264351155538,1.387
-0.00014112646468825325,1.388
0.006073914456223723,1.389
0.011617146210654574,1.39
0.015865114296768693,1.391
0.018168321586519477,1.392
0.017957829907317854,1.393
0.014968096949486481,1.394
0.009459588691033912,1.395
0.002274435600747925,1.396
-0.0053296213500230475,1.397
-0.011983039987464588,1.398
-0.016525617290067497,1.399
-0.018267409615856545,1.4
-0.017128498996585324,1.401
-0.013585168055117404,1.402
-0.008436920044729861,1.403
-0.00253395518061785,1.404
0.0033949558366573743,1.405
0.00877682188120156,1.406
0.013139408710850464,1.407
0.016034139104292425,1.408
0.017011544681145904,1.409
0.015723583780714704,1.41
0.012119429183271184,1.411
0.006581018961788374,1.412
-9.373654988439927e-05,1.413
-0.006822046533097079,1.414
-0.012437177451138384,1.415
-0.015955845187933308,1.416
-0.016844853347464776,1.417
-0.015138518264335276,1.418
-0.01133410416834919,1.419
-0.006153837354643371,1.42
-0.00033835039347958855,1.421
0.00544246093971182,1.422
0.010598387847719944,1.423
0.014593722265337613,1.424
0.01691472342125219,1.425
0.017095547772743618,1.426
0.014863120603582575,1.427
0.010342752448688111,1.428
0.004153105620200266,1.429
-0.002700314699873271,1.43
-0.009052436639101092,1.431
-0.013827136458803884,1.432
-0.016283829692331744,1.433
-0.016213275963758152,1.434
-0.013960676367132887,1.435
-0.010226589316781786,1.436
-0.005770561033154436,1.437
-0.0012101071161734452,1.438
0.003006314191344898,1.439
0.006525244844704324,1.44
0.00901099152412338,1.441
0.010112595054348136,1.442
0.00951152726047739,1.443
0.007070063168340276,1.444
0.0030076837104612247,1.445
-0.0020273473403003965,1.446
-0.007051006196723517,1.447
-0.010960135606180659,1.448
-0.012812698718192933,1.449
-0.012109785628986135,1.45
-0.008960710091049243,1.451
-0.00401454398522733,1.452
0.0018115171288965468,1.453
0.007631892430984801,1.454
0.012762287313167137,1.455
0.016730687376803187,1.456
0.019200410191697024,1.457
0.019898418579621435,1.458
0.018610633861079275,1.459
0.015260068965497132,1.46
0.01002777706496539,1.461
0.0034203481312053106,1.462
-0.003772777215723637,1.463
-0.010598339820308052,1.464
-0.01609688566599619,1.465
-0.01949307829284027,1.466
-0.020392454453101456,1.467
-0.018895260043446306,1.468
-0.015520982195033188,1.469
-0.010964992371479238,1.47
-0.005858772950560904,1.471
-0.0006792448407556456,1.472
0.004190964322475647,1.473
0.008347777793148575,1.474
0.011297311313425675,1.475
0.01251701297482836,1.476
0.011671874295076538,1.477
0.008849822787747992,1.478
0.004602516932063175,1.479
-0.00023639440891003806,1.48
-0.004789087805704149,1.481
-0.00830495870321924,1.482
-0.010273891699936399,1.483
-0.010497194163815579,1.484
-0.009079299929043834,1.485
-0.006331578627490958,1.486
-0.00264865060440229,1.487
0.0015692715058167202,1.488
0.0059206504591124386,1.489
0.009957939735511494,1.49
0.013145708618421034,1.491
0.014882466232043182,1.492
0.014623369509327409,1.493
0.012084872217107703,1.494
0.007435749790448387,1.495
0.001336312326847598,1.496
-0.005201231915518895,1.497
-0.011026131596720674,1.498
-0.015082926151755273,1.499
-0.016661244968373963,1.5
-0.015570889908842452,1.501
-0.012129174728245417,1.502
-0.006973603335082998,1.503
-0.0008424284207339822,1.504
0.005551575128794061,1.505
0.01154195035513688,1.506
0.016476187661923446,1.507
0.019699217993735047,1.508
0.020618688888917422,1.509
0.018866180445046943,1.51
0.014478757728174644,1.511
0.007981919731396498,1.512
0.00032345216254569067,1.513
-0.007301811637446961,1.514
-0.013684533880148014,1.515
-0.01786422771511508,1.516
-0.01936566354456895,1.517
-0.01829505754501036,1.518
-0.015232420509161428,1.519
-0.010987857435180371,1.52
-0.006368068879743418,1.521
-0.002053979315703174,1.522
0.0014175046083383935,1.523
0.0036177755295149906,1.524
0.004185523481988076,1.525
0.002869213752188484,1.526
-0.0002884311035857884,1.527
-0.004767523451355128,1.528
-0.009602699406201141,1.529
-0.013611534565167786,1.53
-0.015664491007655712,1.531
-0.014937046675332044,1.532
-0.01114810393731145,1.533
-0.0047151720751250304,1.534
0.0033241272389867705,1.535
0.011663431759110686,1.536
0.019176134036080577,1.537
0.02521670900522908,1.538
0.02962319883898057,1.539
0.032448922547063316,1.54
0.03361672411957696,1.541
0.03273096015564463,1.542
0.029203283766485223,1.543
0.02264973549177425,1.544
0.013288919122596075,1.545
0.0020548113644768998,1.546
-0.009627443889066941,1.547
-0.02021289884577107,1.548
-0.028355671234470626,1.549
-0.033145041526824286,1.55
-0.034265804484358,1.551
-0.0319922827036137,1.552
-0.027002473299319298,1.553
-0.02015721847589823,1.554
-0.012348179839584247,1.555
-0.004415831869407721,1.556
0.0028687263627223446,1.557
0.008792090259140144,1.558
0.012732944725651325,1.559
0.014272970313182936,1.56
0.013327161380401858,1.561
0.01020465998619529,1.562
0.0055661822001874025,1.563
0.00031622168497810613,1.564
-0.004530057078106708,1.565
-0.008019897599640852,1.566
-0.009487475436351311,1.567
-0.008738844866667397,1.568
-0.006058422480186952,1.569
-0.0020330302834414295,1.57
0.0026538942766821784,1.571
0.007347304847515168,1.572
0.01147032155558364,1.573
0.014516232627315917,1.574
0.016002814667802533,1.575
0.015474817877403546,1.576
0.012651408150622592,1.577
0.007658397530434439,1.578
0.0011427558282756554,1.579
-0.005829169994055353,1.58
-0.012013563287129,1.581
-0.016273695803426448,1.582
-0.01785979133858118,1.583
-0.016615787223218503,1.584
-0.012992844628578987,1.585
-0.007825248144278237,1.586
-0.0020090716020512815,1.587
0.0037114654125144342,1.588
0.008782056352310951,1.589
0.012772819590249422,1.59
0.015303035743775058,1.591
0.016026018695703522,1.592
0.014709296618067273,1.593
0.011384112716627613,1.594
0.006457915115672814,1.595
0.0006822769934896265,1.596
-0.005014413856526932,1.597
-0.009743462098423833,1.598
-0.012848560224034038,1.599
-0.014024216497748163,1.6
-0.013333765728619012,1.601
-0.011128093154072906,1.602
-0.007899701544763126,1.603
-0.0041345147463470065,1.604
-0.00022484194985645639,1.605
0.0035059008419545718,1.606
0.006686986371440644,1.607
0.00881894478318639,1.608
0.009345127033095955,1.609
0.007876745372593606,1.61
0.004451323186181152,1.611
-0.00034934539594881576,1.612
-0.00550132777707524,1.613
-0.009790950008042884,1.614
-0.012125952388090581,1.615
-0.0118603248071214,1.616
-0.009035752898492266,1.617
-0.00435805383683148,1.618
0.0011502594829265972,1.619
0.006594802960646562,1.62
0.01144413398828517,1.621
0.015479382289542756,1.622
0.018598464363128963,1.623
0.020607431137700964,1.624
0.021096459274510208,1.625
0.019513366398703467,1.626
0.0154364307684941,1.627
0.008873485618524557,1.628
0.00040670834433579814,1.629
-0.008867080381100548,1.63
-0.01755674642765077,1.631
-0.024290310133530852,1.632
-0.02804066554088701,1.633
-0.02836249399938216,1.634
-0.025430123236840976,1.635
-0.01983950856150917,1.636
-0.012321454097276387,1.637
-0.00358759618001606,1.638
0.005632085874775865,1.639
0.014468536773811163,1.64
0.021839569311025032,1.641
0.026517411573970993,1.642
0.027391931848163555,1.643
0.023872232877253527,1.644
0.01621516313008335,1.645
0.005589775185422127,1.646
-0.006142316724169887,1.647
-0.016868402265612415,1.648
-0.024765620391004828,1.649
-0.028728872968100044,1.65
-0.02852551375213241,1.651
-0.02466413719211289,1.652
-0.018067832400218486,1.653
-0.00971991292272932,1.654
-0.00046055264915873385,1.655
0.008994866537147737,1.656
0.017877794319028317,1.657
0.025193037054951826,1.658
0.029748347883059013,1.659
0.030467607135834154,1.66
0.02684559365378704,1.661
0.01926800170515929,1.662
0.009017804391734678,1.663
-0.002009350789342707,1.664
-0.011779116350292471,1.665
-0.018651335622029912,1.666
-0.021764257457345206,1.667
-0.021101893576073245,1.668
-0.017281483017774296,1.669
-0.01125480748673331,1.67
-0.004079821844544396,1.671
0.0032061981124661544,1.672
0.009649223323520393,1.673
0.014425348221458906,1.674
0.016898022615907685,1.675
0.01669698752260756,1.676
0.013828014466835235,1.677
0.008746504043313012,1.678
0.002299057753121538,1.679
-0.004436646415151705,1.68
-0.010322900769887114,1.681
-0.014335336724269673,1.682
-0.015772028583345667,1.683
-0.014457888950325487,1.684
-0.010810594513553184,1.685
-0.005681981746015877,1.686
-6.73038170953681e-05,1.687
0.005139192709483432,1.688
0.009254327541725102,1.689
0.011802057341103449,1.69
0.012449243575864154,1.691
0.010961031609693115,1.692
0.007271347237838583,1.693
0.0016580515358303866,1.694
-0.005142682650127084,1.695
-0.012027531621478764,1.696
-0.017795298640803762,1.697
-0.02144989812148503,1.698
-0.02240689451779605,1.699
-0.02055556578346765,1.7
-0.016199814105757,1.701
-0.00993070421220687,1.702
-0.0024805907659990007,1.703
0.005389762744752793,1.704
0.012948580001515572,1.705
0.0195256290182705,1.706
0.024523969370005446,1.707
0.027397589836412686,1.708
0.02766795016942952,1.709
0.025074344672677742,1.71
0.01979990256695274,1.711
0.012561548421649716,1.712
0.0044479768764099,1.713
-0.003369564867359686,1.714
-0.00989091686054957,1.715
-0.014454694776615413,1.716
-0.016788930005006534,1.717
-0.01693551988298337,1.718
-0.015136779449362786,1.719
-0.011773681755145676,1.72
-0.007333982571530163,1.721
-0.002362176507731675,1.722
0.0025766587799289113,1.723
0.006876632548959102,1.724
0.009862285390819481,1.725
0.010872014140201454,1.726
0.009499736487767321,1.727
0.005842492122522384,1.728
0.0005540712573289488,1.729
-0.005317236138707749,1.73
-0.010597664431047421,1.731
-0.014279705534044337,1.732
-0.015786920599568682,1.733
-0.015117589463743529,1.734
-0.012746573261463565,1.735
-0.009308130473968602,1.736
-0.005288477289702883,1.737
-0.0009253158207186398,1.738
0.003702769627903035,1.739
0.00850718705405368,1.74
0.013227576879605952,1.741
0.01735786649972363,1.742
0.0202257163212655,1.743
0.021195463941344826,1.744
0.019853446401889647,1.745
0.01609158492917152,1.746
0.010140151817421526,1.747
0.002590985333821158,1.748
-0.005641975385209915,1.749
-0.013482507129328455,1.75
-0.019910900337255198,1.751
-0.02412476438476353,1.752
-0.025627222604426157,1.753
-0.024286792371905952,1.754
-0.020348528447193523,1.755
-0.01435527401664198,1.756
-0.007019252211684206,1.757
0.0008693576932685548,1.758
0.008473112668072096,1.759
0.014936550837517415,1.76
0.01946173709533996,1.761
0.02142574949759929,1.762
0.020551665791504803,1.763
0.01709739378718113,1.764
0.01188697352108963,1.765
0.006078094320751067,1.766
0.0008113214357901576,1.767
-0.0030643095023957447,1.768
-0.005118637988585884,1.769
-0.005326182350640848,1.77
-0.003977321295140538,1.771
-0.001585856677798636,1.772
0.0011962568846192456,1.773
0.0036648047328627035,1.774
0.005171238316992342,1.775
0.005276183260556739,1.776
0.003900322135538439,1.777
0.001349780334039191,1.778
-0.0018336535967781156,1.779
-0.005072994369223958,1.78
-0.0078732666826051,1.781
-0.009867636710483203,1.782
-0.010857604305555922,1.783
-0.01083544141945839,1.784
-0.009925512779119853,1.785
-0.008269654254133308,1.786
-0.005977202232814095,1.787
-0.003177491963933979,1.788
-9.647614910567856e-05,1.789
0.002904068056132764,1.79
0.00533946733293147,1.791
0.006690925664743913,1.792
0.006590132324295711,1.793
0.0050153084657493276,1.794
0.0023470779946248867,1.795
-0.0007367149439081531,1.796
-0.003444285136973242,1.797
-0.005090242957930241,1.798
-0.005308096973750377,1.799
-0.004167095116467058,1.8
-0.0021105810812594205,1.801
0.00029528136915150406,1.802
0.0026493061728955474,1.803
0.004817005845502007,1.804
0.006811218362581139,1.805
0.008607275600064641,1.806
0.0100181046694597,1.807
0.010664614189171528,1.808
0.010078290973669603,1.809
0.007942853254454306,1.81
0.0043360692154827685,1.811
-0.0001990847663193644,1.812
-0.004762082491851677,1.813
-0.008309833042560394,1.814
-0.0099486901099074,1.815
-0.009234960320196032,1.816
-0.006332865917176397,1.817
-0.0019289911149091203,1.818
0.0030244569370861322,1.819
0.007573770212832152,1.82
0.010936710646073851,1.821
0.012560136895647153,1.822
0.012080259810681407,1.823
0.009265008700118302,1.824
0.00402207749432761,1.825
-0.003498332664909581,1.826
-0.012726271655236394,1.827
-0.022536892178403156,1.828
-0.03133407362920241,1.829
-0.03738153944233423,1.83
-0.03920759911034507,1.831
-0.035932756055861666,1.832
-0.027497607861416744,1.833
-0.014748695971301332,1.834
0.000700620183333814,1.835
0.016809763591093027,1.836
0.03150060320515943,1.837
0.04297422328959329,1.838
0.0499482263447418,1.839
0.05182197684772844,1.84
0.04871388163150446,1.841
0.04133522632207031,1.842
0.030777123479452585,1.843
0.01833235678545658,1.844
0.005377877373299199,1.845
-0.006732348073996415,1.846
-0.016795441181641002,1.847
-0.023907503418635363,1.848
-0.02760356834732769,1.849
-0.027945528455991846,1.85
-0.025504514750585773,1.851
-0.021199398243306886,1.852
-0.016038598244854395,1.853
-0.01089325819649828,1.854
-0.0063950654597299365,1.855
-0.0029621989047198326,1.856
-0.0009062178876967516,1.857
-0.0005196692662473274,1.858
-0.0020222730916278605,1.859
-0.005365548415272082,1.86
-0.010050346184820695,1.861
-0.015105778887695794,1.862
-0.019254078685283275,1.863
-0.021192687109317168,1.864
-0.0199257762495496,1.865
-0.015100804331674973,1.866
-0.007225218665119916,1.867
0.0024448552332942425,1.868
0.012397600426903885,1.869
0.0214515398689403,1.87
0.029015802451977622,1.871
0.0348994396151793,1.872
0.03891022339448296,1.873
0.04057625429714835,1.874
0.039193005573410794,1.875
0.03416493975362772,1.876
0.025405231060375816,1.877
0.013536541135248143,1.878
-0.00018769408632517552,1.879
-0.014133507019497183,1.88
-0.02657712188144192,1.881
-0.035994671369581684,1.882
-0.04134687051635702,1.883
-0.042274389759650595,1.884
-0.039065487143648235,1.885
-0.03240524212507056,1.886
-0.023112885411936412,1.887
-0.01204209727910536,1.888
-0.00012234454064126833,1.889
0.011563390125295734,1.89
0.021723615678996167,1.891
0.028921279143225485,1.892
0.03189255576425099,1.893
0.030060755084760457,1.894
0.023909448474928353,1.895
0.014933243544119812,1.896
0.0052209999345626855,1.897
-0.003096752352785987,1.898
-0.008382972345267985,1.899
-0.009897344638013365,1.9
-0.007921975779558705,1.901
-0.0035440085432017943,1.902
0.0018079395598486483,1.903
0.0068456242947433415,1.904
0.010696419537291961,1.905
0.012891991629999607,1.906
0.013159593997011486,1.907
0.011225300908772815,1.908
0.006808981752753689,1.909
-0.00019707492589925808,1.91
-0.009525020939795511,1.911
-0.020438666873944855,1.912
-0.03175275666741619,1.913
-0.041936931482547526,1.914
-0.04935542243797366,1.915
-0.052632106100431016,1.916
-0.05096395938980642,1.917
-0.04419367656140187,1.918
-0.03263223739773456,1.919
-0.01684560424441612,1.92
0.0023496405306861804,1.921
0.023687114880533437,1.922
0.045261998028432004,1.923
0.0645342224682444,1.924
0.07863263781716091,1.925
0.08498588828901216,1.926
0.08209627786810643,1.927
0.07010574687774301,1.928
0.05087145249808406,1.929
0.02751365294277243,1.93
0.0036477627630484375,1.931
-0.01740948073916885,1.932
-0.03326036246038697,1.933
-0.04275798271098431,1.934
-0.04598353675765338,1.935
-0.04391446103191482,1.936
-0.0379811886294315,1.937
-0.02972700469644406,1.938
-0.02061990215955693,1.939
-0.011952822925995338,1.94
-0.00480934362151145,1.941
-6.938938508316731e-05,1.942
0.0016435587946998758,1.943
0.0001022003414201299,1.944
-0.004390494946841531,1.945
-0.01091626781504269,1.946
-0.017938844848212527,1.947
-0.02352453832205965,1.948
-0.02582488691953252,1.949
-0.023603135541313377,1.95
-0.01656206496231847,1.951
-0.005418627112887764,1.952
0.00819895278970568,1.953
0.021980204580046667,1.954
0.03335170305793595,1.955
0.040112025948860056,1.956
0.04105315009840205,1.957
0.036234973739849144,1.958
0.026811636406600624,1.959
0.014607324795234305,1.96
0.001674210467523238,1.961
-0.010097390434012393,1.962
-0.019282737432940473,1.963
-0.02505363629717301,1.964
-0.02711837230353356,1.965
-0.02558379090345443,1.966
-0.020877283115462393,1.967
-0.013724602320557172,1.968
-0.005080018357027253,1.969
0.003993079376280567,1.97
0.012438140816075973,1.971
0.019346373775240854,1.972
0.024121971965706805,1.973
0.026562789465795853,1.974
0.026781459821938806,1.975
0.025044148663531628,1.976
0.021659975486245764,1.977
0.01693347089574822,1.978
0.0111296820931702,1.979
0.00450957562772567,1.98
-0.002492326765903488,1.981
-0.00907866157697751,1.982
-0.01416278850138977,1.983
-0.01676898719340442,1.984
-0.016459599973489985,1.985
-0.013491001059274858,1.986
-0.008722029369255478,1.987
-0.0034352452825930965,1.988
0.0008821220280491817,1.989
0.002813039982874526,1.99
0.001304135176023905,1.991
-0.004088022745843403,1.992
-0.0130337411982338,1.993
-0.024366581268368936,1.994
-0.03615294934408805,1.995
-0.045954242117325725,1.996
-0.05131357037814084,1.997
-0.050372024520084366,1.998
-0.04240756354277392,1.999
-0.02810950251853756,2.0
-0.009479883872368441,2.001
0.010678327797916911,2.002
0.02959038458730619,2.003
0.04527929835890753,2.004
0.056802554978483334,2.005
0.06391914826306719,2.006
0.06662602101427641,2.007
0.06495404814990031,2.008
0.05906984609375317,2.009
0.04947753840714138,2.01
0.037067630805630844,2.011
0.022928082467678922,2.012
0.008076605855756185,2.013
-0.006680376139470515,2.014
-0.020734383764903053,2.015
-0.03359575393715779,2.016
-0.04477313519177563,2.017
-0.05358984592316481,2.018
-0.0590557915922594,2.019
-0.06002237296356472,2.02
-0.055606018882228665,2.021
-0.04558150450529759,2.022
-0.030553624865927144,2.023
-0.011935017486763882,2.024
0.00821363030142379,2.025
0.02743949664660355,2.026
0.043195886720495395,2.027
0.05318196230427161,2.028
0.05578537344398865,2.029
0.05059640269234326,2.03
0.0387608181663519,2.031
0.02284628502023886,2.032
0.0060845028194200885,2.033
-0.00869367965963199,2.034
-0.019804801601799652,2.035
-0.02679807503282325,2.036
-0.030093147724069378,2.037
-0.030557769411207983,2.038
-0.02922829638667204,2.039
-0.027171797949956018,2.04
-0.025336993054504178,2.041
-0.024262015284054403,2.042
-0.023745555789510632,2.043
-0.022762600273522948,2.044
-0.019792362917097298,2.045
-0.013431370088045073,2.046
-0.0030000742098322624,2.047
0.011052746206059174,2.048
0.027033406061667358,2.049
0.04228019977173188,2.05
0.053852277818387646,2.051
0.059374937271691276,2.052
0.05767052071231318,2.053
0.048987737130931866,2.054
0.034845276728438145,2.055
0.017596531652046235,2.056
-0.00013073322914284636,2.057
-0.015936017040835748,2.058
-0.02795394207476208,2.059
-0.035000079677208695,2.06
-0.03666787448169734,2.061
-0.033371914412856654,2.062
-0.02624555796683164,2.063
-0.01689014091855899,2.064
-0.007083572549567462,2.065
0.0014955979210911662,2.066
0.007581820117521004,2.067
0.010640782660059156,2.068
0.010978144754366688,2.069
0.0094878559726026,2.07
0.0071549034471840075,2.071
0.004598941097597116,2.072
0.0019033023836491903,2.073
-0.0012550606788138486,2.074
-0.005352769294137259,2.075
-0.010763745366031273,2.076
-0.017517557206840804,2.077
-0.0251344077112186,2.078
-0.03258312428106638,2.079
-0.03834952865134296,2.08
-0.04067346826938529,2.081
-0.03800654332783421,2.082
-0.02954428877224763,2.083
-0.015540046645301486,2.084
0.002761829340714804,2.085
0.023417697337982338,2.086
0.04405262257045939,2.087
0.06207310794497556,2.088
0.07495120059191628,2.089
0.0806475629971113,2.09
0.07807555477224794,2.091
0.06742213902592266,2.092
0.05019479638742578,2.093
0.0289346037996017,2.094
0.006648564193803183,2.095
-0.013863750628926003,2.096
-0.0305876994400064,2.097
-0.04259111245518231,2.098
-0.04998847187135303,2.099
-0.05366347266360161,2.1
-0.054812292389667665,2.101
-0.054400280549564105,2.102
-0.05278827631451635,2.103
-0.04972900180719076,2.104
-0.044622871758588464,2.105
-0.03681343126313336,2.106
-0.02589244079287914,2.107
-0.0120307248565811,2.108
0.003800974866689169,2.109
0.01987022974701568,2.11
0.03399675484878015,2.111
0.044083833772293586,2.112
0.04876938842903974,2.113
0.0479581649744771,2.114
0.04288570806491191,2.115
0.035590857691405804,2.116
0.028105398919127993,2.117
0.021774368685225434,2.118
0.016903840733681435,2.119
0.012812825025057041,2.12
0.008292428614868527,2.121
0.0022740023867458994,2.122
-0.005641337038061559,2.123
-0.015018659972344103,2.124
-0.02472700410838871,2.125
-0.033204851295389005,2.126
-0.03880497497907654,2.127
-0.04023084601694651,2.128
-0.036971034335214835,2.129
-0.029565436710932244,2.13
-0.019589618948105007,2.131
-0.009279886335604746,2.132
-0.0007801377013197707,2.133
0.004709895771744332,2.134
0.007359776375083964,2.135
0.008471118379491658,2.136
0.009827887460204862,2.137
0.012986613364059674,2.138
0.01869237866495099,2.139
0.02651093638427141,2.14
0.03480732856795612,2.141
0.04118543512889981,2.142
0.04322901432009859,2.143
0.039155816007125165,2.144
0.028247697035378074,2.145
0.01120727475936746,2.146
-0.009678788361219237,2.147
-0.03094080118311213,2.148
-0.048865853751840826,2.149
-0.060472118459482437,2.15
-0.06404978308791759,2.151
-0.05917333388172525,2.152
-0.04644615955730444,2.153
-0.02732932025241227,2.154
-0.004162944295975818,2.155
0.019854000818078817,2.156
0.04103586928293096,2.157
0.05595529705496654,2.158
0.06229168545319806,2.159
0.05946587094583565,2.16
0.048798839617484845,2.161
0.03307782142730728,2.162
0.015698338846953427,2.163
-0.00022916211370002128,2.164
-0.01250870216203276,2.165
-0.020139329547532562,2.166
-0.02321077809803411,2.167
-0.022480730275656523,2.168
-0.018910703452506544,2.169
-0.013420188170070114,2.17
-0.00690093637691182,2.171
-0.0003553159910370436,2.172
0.005000115538089111,2.173
0.007732514068429409,2.174
0.00633654374828184,2.175
-0.000386200523877748,2.176
-0.012729067993187753,2.177
-0.029531355748917302,2.178
-0.04805249830644925,2.179
-0.06445716344843692,2.18
-0.07475533354028426,2.181
-0.07580005756337307,2.182
-0.06598948254817366,2.183
-0.04555481566914803,2.184
-0.016514773438467294,2.185
0.017565335749029822,2.186
0.051991306937281274,2.187
0.08169107961826702,2.188
0.10233148163402411,2.189
0.11138165411931995,2.19
0.10852044241174871,2.191
0.09528122912526274,2.192
0.07441980568729252,2.193
0.04934895534683148,2.194
0.02350825876386158,2.195
-0.0003420276751641796,2.196
-0.02052399028039915,2.197
-0.0363200182322819,2.198
-0.04758487731569014,2.199
-0.05446343733584339,2.2
-0.05727066272611249,2.201
-0.05638229055509589,2.202
-0.052133160713672425,2.203
-0.044850318955310824,2.204
-0.03501692790459283,2.205
-0.023417141116487895,2.206
-0.01115356665863529,2.207
0.00046679684933041026,2.208
0.010155580910226902,2.209
0.01690153470011841,2.21
0.02010858368707437,2.211
0.0195818045084493,2.212
0.015514344466023067,2.213
0.008530485217796717,2.214
-0.0003031979605400489,2.215
-0.009541364129655854,2.216
-0.01750754065117871,2.217
-0.022539758162900707,2.218
-0.023290955415462743,2.219
-0.01899411027174949,2.22
-0.009643273486129651,2.221
0.003875945643811361,2.222
0.01967922305751471,2.223
0.03489585513960306,2.224
0.04605034780492557,2.225
0.05000717450603131,2.226
0.04518357700027852,2.227
0.03229602388095372,2.228
0.014146686588777515,2.229
-0.005403672324232638,2.23
-0.022665340571605953,2.231
-0.03495236328152945,2.232
-0.04087880182655507,2.233
-0.04032544183359067,2.234
-0.03424039511571036,2.235
-0.024355549775006913,2.236
-0.012840958181990483,2.237
-0.001845631367112921,2.238
0.006999228654307037,2.239
0.012902995758111178,2.24
0.01595206851768796,2.241
0.016906960710872818,2.242
0.016899686771874,2.243
0.017127482511522484,2.244
0.01854122751141445,2.245
0.021579457545365287,2.246
0.026061522988403488,2.247
0.031267483239911756,2.248
0.036085509113232335,2.249
0.0390705078327213,2.25
0.038443064216281374,2.251
0.03224605850327932,2.252
0.018834968154187698,2.253
-0.0023447286658412145,2.254
-0.03004096162764171,2.255
-0.06103394258095028,2.256
-0.09072990810214018,2.257
-0.11415055755556144,2.258
-0.12680323562118465,2.259
-0.125329309838975,2.26
-0.10813662923185911,2.261
-0.07605593816749666,2.262
-0.03273248551172534,2.263
0.015687873303039425,2.264
0.06178873194651386,2.265
0.09866029430788681,2.266
0.12144863294148009,2.267
0.12813902594011797,2.268
0.11959289148778729,2.269
0.09907732138713123,2.27
0.07143092478901869,2.271
0.042032168295850054,2.272
0.0157810035175604,2.273
-0.0037673605925480566,2.274
-0.014911085871958565,2.275
-0.017720477097189748,2.276
-0.013531091464196936,2.277
-0.004553659720966055,2.278
0.006167510157577772,2.279
0.014841922853353364,2.28
0.017576487716738795,2.281
0.011565421920549978,2.282
-0.003915693466579478,2.283
-0.02748027251248972,2.284
-0.056309407791788384,2.285
-0.08665844980835065,2.286
-0.11395577756495456,2.287
-0.13301270007571056,2.288
-0.13884450927391653,2.289
-0.12800806025004033,2.29
-0.09975918884562042,2.291
-0.05641677186361719,2.292
-0.0029833775957332858,2.293
0.05361583208024272,2.294
0.10553324830160768,2.295
0.14522152822892995,2.296
0.16682518241673458,2.297
0.16763206795319552,2.298
0.14910882905571612,2.299
0.11668208515893826,2.3
0.07798609660840275,2.301
0.040429554507501235,2.302
0.009276449792238127,2.303
-0.013152394327736494,2.304
-0.02722989265156045,2.305
-0.035185386432821875,2.306
-0.04015722676442176,2.307
-0.04536340126022371,2.308
-0.053390022018261006,2.309
-0.06555523683685233,2.31
-0.08140994610973008,2.311
-0.09853484276040093,2.312
-0.1128595022744864,2.313
-0.11968495471259852,2.314
-0.11521937074116259,2.315
-0.09790662763830453,2.316
-0.06878388515922097,2.317
-0.03086661450691681,2.318
0.011660706229373218,2.319
0.0539043238205875,2.32
0.09070530469815953,2.321
0.11759057545663276,2.322
0.13193744325217902,2.323
0.13347620841543886,2.324
0.12383576674960349,2.325
0.10566518646758827,2.326
0.08187212634598287,2.327
0.05516428241978514,2.328
0.02791822066046767,2.329
0.002261258220273122,2.33
-0.019908701725059003,2.331
-0.03718159963072963,2.332
-0.04899863141010356,2.333
-0.055688687951086537,2.334
-0.05804134717073815,2.335
-0.05673580585993825,2.336
-0.05203494881259355,2.337
-0.04388652640161516,2.338
-0.03231487268436346,2.339
-0.017900201169460568,2.34
-0.0021037674161971487,2.341
0.012754387216121117,2.342
0.023915267424975618,2.343
0.02892928929449807,2.344
0.026491109938444352,2.345
0.016969525558153658,2.346
0.0023780694369169163,2.347
-0.014154785437549729,2.348
-0.02918086608414443,2.349
-0.039757443751109,2.35
-0.04408933121698667,2.351
-0.041831050559430316,2.352
-0.034060714023272626,2.353
-0.023041142371887983,2.354
-0.011774429903598718,2.355
-0.0032722565930820282,2.356
0.00037151917748527887,2.357
-0.0012287122618562707,2.358
-0.006489180144886007,2.359
-0.012286005772457061,2.36
-0.014874046097639301,2.361
-0.010968222320835077,2.362
0.0012051399854548302,2.363
0.021102341968032505,2.364
0.04565287449736821,2.365
0.06991600603663924,2.366
0.08858248912450296,2.367
0.09775568368407905,2.368
0.09603144449120427,2.369
0.08437836028764323,2.37
0.06527924793295671,2.371
0.04192390875707451,2.372
0.017756992133578006,2.373
-0.003929888429611028,2.374
-0.02063392003963157,2.375
-0.031249395367722973,2.376
-0.03630741405904372,2.377
-0.037841773112371004,2.378
-0.03890900088237029,2.379
-0.04268330348109457,2.38
-0.051283443160662454,2.381
-0.06479714714213228,2.382
-0.08101306764034268,2.383
-0.09607618026007465,2.384
-0.10570250506181705,2.385
-0.10628012371012041,2.386
-0.0954869957523667,2.387
-0.07257597295616963,2.388
-0.03866186089474107,2.389
0.003050942980711941,2.39
0.047566063956671956,2.391
0.08907068348886771,2.392
0.12208137367133044,2.393
0.1421774868886113,2.394
0.14640293716028,2.395
0.13383810330809084,2.396
0.10627992281950638,2.397
0.06824751011687674,2.398
0.025844067416843308,2.399
-0.014923326507874637,2.4
-0.04935578733558549,2.401
-0.07451323975658945,2.402
-0.08926393342414722,2.403
-0.09414683944081363,2.404
-0.09098663623162644,2.405
-0.0822940984845905,2.406
-0.07061669579110982,2.407
-0.05796091637916051,2.408
-0.04538752298508491,2.409
-0.03293691182275823,2.41
