VaMe,time
0.0045,0.001
0.0067,0.002
0.0,0.003
-0.0068,0.004
-0.0098,0.005
-0.0143,0.006
-0.0181,0.007
-0.0165,0.008
-0.003,0.009
0.0007,0.01
-0.003,0.011
0.0007,0.012
0.0045,0.013
0.0142,0.014
0.0187,0.015
0.0172,0.016
0.0127,0.017
-0.0046,0.018
-0.0181,0.019
-0.024,0.02
-0.0315,0.021
-0.0375,0.022
-0.0443,0.023
-0.0443,0.024
-0.0353,0.025
-0.0218,0.026
-0.0128,0.027
-0.0091,0.028
-0.0038,0.029
0.0037,0.03
0.012,0.031
0.0195,0.032
0.0277,0.033
0.03,0.034
0.027,0.035
0.0135,0.036
0.0015,0.037
-0.0128,0.038
-0.0263,0.039
-0.0263,0.04
-0.0233,0.041
-0.012,0.042
0.0,0.043
0.0082,0.044
0.024,0.045
0.0465,0.046
0.0547,0.047
0.0472,0.048
0.0367,0.049
0.024,0.05
0.012,0.051
-0.0046,0.052
-0.0218,0.053
-0.0346,0.054
-0.0436,0.055
-0.0518,0.056
-0.0525,0.057
-0.0465,0.058
-0.042,0.059
-0.033,0.06
-0.0105,0.061
0.0127,0.062
0.0277,0.063
0.0405,0.064
0.048,0.065
0.0555,0.066
0.0585,0.067
0.0555,0.068
0.0495,0.069
0.039,0.07
0.024,0.071
0.0037,0.072
-0.0195,0.073
-0.0346,0.074
-0.0368,0.075
-0.0338,0.076
-0.0293,0.077
-0.024,0.078
-0.0195,0.079
-0.0158,0.08
-0.0128,0.081
-0.0046,0.082
0.012,0.083
0.0202,0.084
0.0202,0.085
0.015,0.086
0.0067,0.087
-0.003,0.088
-0.0128,0.089
-0.0195,0.09
-0.0173,0.091
-0.006,0.092
-0.0023,0.093
-0.0046,0.094
-0.0046,0.095
-0.0053,0.096
-0.0008,0.097
0.0,0.098
0.0015,0.099
0.012,0.1
0.0195,0.101
0.0195,0.102
0.015,0.103
0.009,0.104
0.0,0.105
-0.012,0.106
-0.0203,0.107
-0.0233,0.108
-0.0188,0.109
-0.0165,0.11
-0.012,0.111
-0.0083,0.112
-0.0083,0.113
-0.0091,0.114
-0.0053,0.115
0.0067,0.116
0.0165,0.117
0.0157,0.118
0.018,0.119
0.0352,0.12
0.057,0.121
0.0577,0.122
0.0457,0.123
0.0322,0.124
0.0015,0.125
-0.0181,0.126
-0.033,0.127
-0.0443,0.128
-0.039,0.129
-0.039,0.13
-0.0323,0.131
-0.0188,0.132
-0.0068,0.133
-0.0038,0.134
-0.0083,0.135
-0.012,0.136
-0.0158,0.137
-0.0158,0.138
-0.0225,0.139
-0.0256,0.14
-0.0203,0.141
-0.0091,0.142
0.003,0.143
0.0082,0.144
0.009,0.145
0.003,0.146
0.0105,0.147
0.0157,0.148
0.0202,0.149
0.027,0.15
0.018,0.151
0.0135,0.152
0.0187,0.153
0.027,0.154
0.0285,0.155
0.0142,0.156
0.0037,0.157
-0.0008,0.158
-0.0068,0.159
-0.012,0.16
-0.012,0.161
-0.0143,0.162
-0.0173,0.163
-0.0128,0.164
-0.0068,0.165
0.006,0.166
0.0142,0.167
0.012,0.168
0.0142,0.169
0.0157,0.17
0.0037,0.171
-0.0091,0.172
-0.0218,0.173
-0.0315,0.174
-0.0308,0.175
-0.0256,0.176
-0.0181,0.177
-0.0128,0.178
-0.006,0.179
0.0015,0.18
0.0105,0.181
0.018,0.182
0.027,0.183
0.0337,0.184
0.0262,0.185
0.0142,0.186
0.0037,0.187
-0.0091,0.188
-0.0203,0.189
-0.027,0.19
-0.027,0.191
-0.0195,0.192
-0.0158,0.193
-0.0181,0.194
-0.0113,0.195
-0.0008,0.196
0.0105,0.197
0.0187,0.198
0.0307,0.199
0.0465,0.2
0.0495,0.201
0.0382,0.202
0.0255,0.203
0.0142,0.204
-0.003,0.205
-0.015,0.206
-0.015,0.207
-0.0091,0.208
-0.0083,0.209
-0.0091,0.21
-0.0038,0.211
-0.0046,0.212
-0.006,0.213
-0.0038,0.214
-0.0068,0.215
-0.0015,0.216
0.0037,0.217
-0.0008,0.218
-0.0068,0.219
-0.0098,0.22
-0.0143,0.221
-0.0218,0.222
-0.0293,0.223
-0.0346,0.224
-0.0263,0.225
-0.0098,0.226
-0.003,0.227
-0.0008,0.228
0.0052,0.229
0.0067,0.23
0.009,0.231
0.0172,0.232
0.027,0.233
0.0277,0.234
0.024,0.235
0.0232,0.236
0.0172,0.237
0.0105,0.238
-0.0008,0.239
-0.0113,0.24
-0.012,0.241
-0.0098,0.242
-0.0098,0.243
-0.0105,0.244
-0.0098,0.245
-0.0203,0.246
-0.0256,0.247
-0.0135,0.248
0.0082,0.249
0.0292,0.25
0.0307,0.251
0.0225,0.252
0.0127,0.253
0.006,0.254
-0.003,0.255
-0.0165,0.256
-0.024,0.257
-0.0256,0.258
-0.0113,0.259
0.003,0.26
0.0052,0.261
0.0082,0.262
0.0105,0.263
0.0082,0.264
0.0082,0.265
0.0127,0.266
0.0157,0.267
0.0097,0.268
-0.0008,0.269
-0.0053,0.27
-0.012,0.271
-0.024,0.272
-0.0278,0.273
-0.0248,0.274
-0.0158,0.275
-0.0046,0.276
0.012,0.277
0.0352,0.278
0.0367,0.279
0.0277,0.28
0.0195,0.281
0.0082,0.282
0.0052,0.283
-0.003,0.284
-0.0135,0.285
-0.0203,0.286
-0.03,0.287
-0.0323,0.288
-0.0405,0.289
-0.0465,0.29
-0.0353,0.291
-0.0195,0.292
-0.0113,0.293
-0.003,0.294
0.0067,0.295
0.0112,0.296
0.021,0.297
0.0292,0.298
0.0382,0.299
0.0457,0.3
0.042,0.301
0.0345,0.302
0.0202,0.303
0.009,0.304
0.0015,0.305
-0.0075,0.306
-0.0128,0.307
-0.0135,0.308
-0.0135,0.309
-0.0105,0.31
-0.0053,0.311
-0.0008,0.312
0.0067,0.313
0.0082,0.314
0.015,0.315
0.0255,0.316
0.0262,0.317
0.0127,0.318
-0.0046,0.319
-0.0105,0.32
-0.0181,0.321
-0.0361,0.322
-0.0361,0.323
-0.0256,0.324
-0.0113,0.325
0.0052,0.326
0.0112,0.327
0.012,0.328
0.009,0.329
0.0082,0.33
0.015,0.331
0.0195,0.332
0.0195,0.333
0.0157,0.334
0.0075,0.335
-0.0023,0.336
-0.0075,0.337
-0.012,0.338
-0.0195,0.339
-0.0233,0.34
-0.021,0.341
-0.012,0.342
-0.0053,0.343
-0.0008,0.344
0.0105,0.345
0.027,0.346
0.0442,0.347
0.0517,0.348
0.042,0.349
0.0285,0.35
0.0142,0.351
0.0022,0.352
-0.0128,0.353
-0.0323,0.354
-0.042,0.355
-0.0518,0.356
-0.054,0.357
-0.0503,0.358
-0.042,0.359
-0.0346,0.36
-0.0293,0.361
-0.0218,0.362
-0.0158,0.363
-0.0083,0.364
-0.0046,0.365
0.0067,0.366
0.012,0.367
0.0075,0.368
0.0082,0.369
0.0022,0.37
0.0015,0.371
-0.0053,0.372
-0.0105,0.373
-0.0046,0.374
0.0007,0.375
0.0097,0.376
0.0142,0.377
0.0202,0.378
0.0255,0.379
0.0307,0.38
0.0315,0.381
0.0322,0.382
0.0367,0.383
0.0345,0.384
0.0232,0.385
0.0105,0.386
0.0007,0.387
-0.0105,0.388
-0.0195,0.389
-0.024,0.39
-0.0203,0.391
-0.0083,0.392
0.003,0.393
0.0075,0.394
0.0067,0.395
0.0045,0.396
0.0045,0.397
0.009,0.398
0.012,0.399
0.018,0.4
0.0187,0.401
0.0105,0.402
0.003,0.403
-0.0046,0.404
-0.0181,0.405
-0.0346,0.406
-0.0383,0.407
-0.0315,0.408
-0.0203,0.409
-0.0091,0.41
0.0015,0.411
0.0127,0.412
0.021,0.413
0.0255,0.414
0.03,0.415
0.0345,0.416
0.0315,0.417
0.0217,0.418
0.0097,0.419
-0.0008,0.42
-0.012,0.421
-0.0225,0.422
-0.0285,0.423
-0.0293,0.424
-0.021,0.425
-0.0143,0.426
-0.0091,0.427
-0.0008,0.428
0.0045,0.429
0.0067,0.43
0.0067,0.431
0.0135,0.432
0.0255,0.433
0.024,0.434
0.0135,0.435
0.003,0.436
-0.0068,0.437
-0.0181,0.438
-0.0308,0.439
-0.0405,0.44
-0.0405,0.441
-0.0368,0.442
-0.0346,0.443
-0.0285,0.444
-0.0181,0.445
-0.0083,0.446
0.0007,0.447
0.006,0.448
0.0157,0.449
0.0262,0.45
0.0277,0.451
0.0255,0.452
0.0157,0.453
0.0127,0.454
0.0052,0.455
-0.012,0.456
-0.015,0.457
-0.0098,0.458
0.0007,0.459
0.009,0.46
0.0157,0.461
0.018,0.462
0.0127,0.463
0.0105,0.464
0.0127,0.465
0.0135,0.466
0.015,0.467
0.0045,0.468
-0.0068,0.469
-0.0128,0.47
-0.0203,0.471
-0.0293,0.472
-0.0346,0.473
-0.0293,0.474
-0.0165,0.475
-0.0083,0.476
-0.0046,0.477
-0.0008,0.478
0.0052,0.479
0.012,0.48
0.0142,0.481
0.0195,0.482
0.0285,0.483
0.0292,0.484
0.0232,0.485
0.0157,0.486
0.006,0.487
-0.003,0.488
-0.0105,0.489
-0.0135,0.49
-0.0091,0.491
-0.0015,0.492
-0.0015,0.493
-0.0038,0.494
-0.003,0.495
0.0007,0.496
0.0052,0.497
0.0067,0.498
0.0135,0.499
0.018,0.5
0.0097,0.501
0.0045,0.502
-0.003,0.503
-0.0128,0.504
-0.0195,0.505
-0.0233,0.506
-0.0203,0.507
-0.0143,0.508
-0.0046,0.509
0.0007,0.51
0.0037,0.511
0.0067,0.512
0.009,0.513
0.0127,0.514
0.0157,0.515
0.021,0.516
0.0195,0.517
0.0127,0.518
0.0052,0.519
-0.0046,0.52
-0.0143,0.521
-0.0218,0.522
-0.0233,0.523
-0.0203,0.524
-0.0098,0.525
-0.0053,0.526
-0.0053,0.527
0.0007,0.528
0.0052,0.529
0.0067,0.53
0.0082,0.531
0.012,0.532
0.0187,0.533
0.0172,0.534
0.0097,0.535
-0.0008,0.536
-0.0075,0.537
-0.012,0.538
-0.0195,0.539
-0.0195,0.54
-0.0165,0.541
-0.0075,0.542
-0.0023,0.543
-0.0015,0.544
0.003,0.545
0.003,0.546
0.006,0.547
0.0112,0.548
0.0172,0.549
0.0187,0.55
0.0142,0.551
0.0082,0.552
-0.0008,0.553
-0.0091,0.554
-0.0181,0.555
-0.0225,0.556
-0.0218,0.557
-0.0165,0.558
-0.0091,0.559
-0.0053,0.56
-0.0008,0.561
0.0037,0.562
0.003,0.563
0.0067,0.564
0.0142,0.565
0.0202,0.566
0.0202,0.567
0.015,0.568
0.0082,0.569
-0.0008,0.57
-0.0105,0.571
-0.0218,0.572
-0.0233,0.573
-0.0173,0.574
-0.0083,0.575
-0.003,0.576
-0.0015,0.577
0.003,0.578
0.006,0.579
0.009,0.58
0.012,0.581
0.018,0.582
0.0225,0.583
0.021,0.584
0.0127,0.585
0.0045,0.586
-0.0015,0.587
-0.0105,0.588
-0.0181,0.589
-0.0203,0.59
-0.015,0.591
-0.006,0.592
-0.0023,0.593
-0.0015,0.594
0.0045,0.595
0.0082,0.596
0.009,0.597
0.009,0.598
0.0157,0.599
0.0157,0.6
0.0082,0.601
0.0045,0.602
-0.0038,0.603
-0.012,0.604
-0.021,0.605
-0.0225,0.606
-0.0195,0.607
-0.0143,0.608
-0.0046,0.609
-0.0015,0.61
0.0022,0.611
0.006,0.612
0.0045,0.613
0.0082,0.614
0.0112,0.615
0.0165,0.616
0.0165,0.617
0.0082,0.618
0.0007,0.619
-0.0068,0.62
-0.012,0.621
-0.0203,0.622
-0.024,0.623
-0.0181,0.624
-0.0075,0.625
-0.003,0.626
0.0,0.627
0.0045,0.628
0.006,0.629
0.0075,0.63
0.0097,0.631
0.0165,0.632
0.0217,0.633
0.018,0.634
0.0097,0.635
0.0015,0.636
-0.003,0.637
-0.0083,0.638
-0.0165,0.639
-0.0195,0.64
-0.012,0.641
-0.0053,0.642
-0.0023,0.643
0.0,0.644
0.0022,0.645
0.006,0.646
0.0082,0.647
0.009,0.648
0.0165,0.649
0.018,0.65
0.012,0.651
0.0067,0.652
-0.0008,0.653
-0.0091,0.654
-0.0165,0.655
-0.0203,0.656
-0.0181,0.657
-0.0105,0.658
-0.0053,0.659
-0.0008,0.66
0.003,0.661
0.0037,0.662
0.0082,0.663
0.009,0.664
0.012,0.665
0.0195,0.666
0.0195,0.667
0.012,0.668
0.0045,0.669
-0.003,0.67
-0.0128,0.671
-0.0203,0.672
-0.021,0.673
-0.0181,0.674
-0.0098,0.675
-0.0068,0.676
-0.0046,0.677
0.0007,0.678
0.0037,0.679
0.0082,0.68
0.0105,0.681
0.0157,0.682
0.0195,0.683
0.015,0.684
0.009,0.685
-0.0008,0.686
-0.0053,0.687
-0.0128,0.688
-0.0195,0.689
-0.0181,0.69
-0.012,0.691
-0.0053,0.692
-0.003,0.693
0.0,0.694
0.003,0.695
0.0037,0.696
0.0045,0.697
0.0067,0.698
0.0142,0.699
0.015,0.7
0.0105,0.701
0.003,0.702
-0.0053,0.703
-0.012,0.704
-0.0181,0.705
-0.0203,0.706
-0.0165,0.707
-0.0091,0.708
-0.0015,0.709
0.003,0.71
0.0067,0.711
0.0082,0.712
0.009,0.713
0.012,0.714
0.0142,0.715
0.0172,0.716
0.0142,0.717
0.0082,0.718
0.0015,0.719
-0.0053,0.72
-0.0105,0.721
-0.0188,0.722
-0.0203,0.723
-0.0158,0.724
-0.0105,0.725
-0.0046,0.726
-0.0015,0.727
0.0022,0.728
0.0037,0.729
0.0067,0.73
0.0082,0.731
0.0135,0.732
0.0195,0.733
0.0165,0.734
0.0082,0.735
0.0015,0.736
-0.003,0.737
-0.0128,0.738
-0.0203,0.739
-0.0195,0.74
-0.0135,0.741
-0.006,0.742
-0.003,0.743
0.0007,0.744
0.0037,0.745
0.0052,0.746
0.009,0.747
0.012,0.748
0.0157,0.749
0.018,0.75
0.0142,0.751
0.0037,0.752
-0.0053,0.753
-0.0128,0.754
-0.0218,0.755
-0.0248,0.756
-0.0203,0.757
-0.0105,0.758
-0.0015,0.759
0.0037,0.76
0.0105,0.761
0.0127,0.762
0.0127,0.763
0.012,0.764
0.015,0.765
0.0202,0.766
0.0157,0.767
0.006,0.768
-0.0015,0.769
-0.0075,0.77
-0.0158,0.771
-0.0233,0.772
-0.0225,0.773
-0.0165,0.774
-0.0083,0.775
-0.003,0.776
0.0015,0.777
0.0037,0.778
0.0082,0.779
0.0112,0.78
0.009,0.781
0.0127,0.782
0.018,0.783
0.0127,0.784
0.0052,0.785
-0.003,0.786
-0.0068,0.787
-0.0143,0.788
-0.0225,0.789
-0.0195,0.79
-0.012,0.791
-0.0068,0.792
-0.0023,0.793
0.0007,0.794
0.0015,0.795
0.0045,0.796
0.009,0.797
0.0127,0.798
0.0187,0.799
0.0195,0.8
0.0127,0.801
0.0045,0.802
-0.0015,0.803
-0.0091,0.804
-0.0165,0.805
-0.0195,0.806
-0.0165,0.807
-0.0105,0.808
-0.0046,0.809
-0.0008,0.81
0.0022,0.811
0.0067,0.812
0.0067,0.813
0.0082,0.814
0.0157,0.815
0.018,0.816
0.015,0.817
0.0075,0.818
-0.0008,0.819
-0.0068,0.82
-0.0143,0.821
-0.0203,0.822
-0.021,0.823
-0.0158,0.824
-0.0053,0.825
-0.003,0.826
-0.0008,0.827
0.0015,0.828
0.0052,0.829
0.0082,0.83
0.009,0.831
0.0165,0.832
0.0187,0.833
0.0127,0.834
0.0067,0.835
-0.0015,0.836
-0.0098,0.837
-0.0181,0.838
-0.021,0.839
-0.0181,0.84
-0.0105,0.841
-0.0023,0.842
0.0,0.843
-0.0008,0.844
-0.0015,0.845
0.003,0.846
0.006,0.847
0.0067,0.848
0.0157,0.849
0.015,0.85
0.012,0.851
0.0067,0.852
-0.003,0.853
-0.0091,0.854
-0.0173,0.855
-0.0195,0.856
-0.0165,0.857
-0.0091,0.858
-0.003,0.859
0.0007,0.86
0.0052,0.861
0.0037,0.862
0.0082,0.863
0.0105,0.864
0.015,0.865
0.0202,0.866
0.0165,0.867
0.0135,0.868
0.003,0.869
-0.0053,0.87
-0.0105,0.871
-0.0181,0.872
-0.0195,0.873
-0.0135,0.874
-0.0046,0.875
-0.0015,0.876
0.0022,0.877
0.0067,0.878
0.0082,0.879
0.0082,0.88
0.0082,0.881
0.0165,0.882
0.0165,0.883
0.0112,0.884
0.003,0.885
-0.003,0.886
-0.0068,0.887
-0.0165,0.888
-0.021,0.889
-0.0218,0.89
-0.0143,0.891
-0.0068,0.892
-0.0023,0.893
0.0022,0.894
0.003,0.895
0.0067,0.896
0.0067,0.897
0.0097,0.898
0.0172,0.899
0.0172,0.9
0.012,0.901
0.0067,0.902
-0.0038,0.903
-0.0143,0.904
-0.0203,0.905
-0.0218,0.906
-0.0173,0.907
-0.012,0.908
-0.006,0.909
-0.0015,0.91
0.0015,0.911
0.0022,0.912
0.0052,0.913
0.009,0.914
0.0135,0.915
0.0195,0.916
0.0165,0.917
0.0097,0.918
0.0,0.919
-0.0083,0.92
-0.015,0.921
-0.024,0.922
-0.0256,0.923
-0.0158,0.924
-0.0068,0.925
-0.0053,0.926
-0.0008,0.927
0.0045,0.928
0.0067,0.929
0.0097,0.93
0.0127,0.931
0.0217,0.932
0.024,0.933
0.0165,0.934
0.0082,0.935
-0.0008,0.936
-0.0091,0.937
-0.0195,0.938
-0.027,0.939
-0.0256,0.94
-0.0158,0.941
-0.0046,0.942
-0.0008,0.943
0.0037,0.944
0.0075,0.945
0.012,0.946
0.0142,0.947
0.0157,0.948
0.0232,0.949
0.0225,0.95
0.0157,0.951
0.0075,0.952
-0.003,0.953
-0.0128,0.954
-0.0233,0.955
-0.0233,0.956
-0.0188,0.957
-0.012,0.958
-0.0046,0.959
-0.0008,0.96
0.0037,0.961
0.0052,0.962
0.009,0.963
0.0127,0.964
0.018,0.965
0.0232,0.966
0.018,0.967
0.0082,0.968
0.0015,0.969
-0.0046,0.97
-0.0181,0.971
-0.027,0.972
-0.0248,0.973
-0.0158,0.974
-0.0053,0.975
-0.003,0.976
0.0007,0.977
0.0045,0.978
0.0082,0.979
0.0105,0.98
0.015,0.981
0.0195,0.982
0.0202,0.983
0.0135,0.984
0.003,0.985
-0.0046,0.986
-0.0128,0.987
-0.0203,0.988
-0.024,0.989
-0.0218,0.99
-0.0128,0.991
-0.0091,0.992
-0.0046,0.993
0.0007,0.994
0.0052,0.995
0.009,0.996
0.0112,0.997
0.0165,0.998
0.0202,0.999
0.018,1.0
0.0105,1.001
0.003,1.002
-0.0046,1.003
-0.0143,1.004
-0.0233,1.005
-0.021,1.006
-0.0158,1.007
-0.0083,1.008
-0.003,1.009
0.0015,1.01
0.0052,1.011
0.0052,1.012
0.0067,1.013
0.009,1.014
0.0165,1.015
0.021,1.016
0.0165,1.017
0.0082,1.018
-0.0008,1.019
-0.0068,1.02
-0.0165,1.021
-0.024,1.022
-0.024,1.023
-0.0181,1.024
-0.0083,1.025
-0.003,1.026
0.0007,1.027
0.003,1.028
0.0052,1.029
0.009,1.03
0.0135,1.031
0.0225,1.032
0.0232,1.033
0.0172,1.034
0.006,1.035
-0.0038,1.036
-0.0091,1.037
-0.0188,1.038
-0.024,1.039
-0.0218,1.04
-0.0135,1.041
-0.0068,1.042
-0.0023,1.043
0.0022,1.044
0.0045,1.045
0.009,1.046
0.0112,1.047
0.0165,1.048
0.0225,1.049
0.0187,1.05
0.012,1.051
0.0052,1.052
-0.0053,1.053
-0.0165,1.054
-0.0233,1.055
-0.024,1.056
-0.0181,1.057
-0.0091,1.058
-0.003,1.059
0.0015,1.06
0.0037,1.061
0.0067,1.062
0.0097,1.063
0.012,1.064
0.0202,1.065
0.0255,1.066
0.0172,1.067
0.0052,1.068
-0.0008,1.069
-0.0091,1.07
-0.0181,1.071
-0.024,1.072
-0.0233,1.073
-0.0165,1.074
-0.0083,1.075
-0.0008,1.076
0.0022,1.077
0.003,1.078
0.0067,1.079
0.0105,1.08
0.012,1.081
0.0195,1.082
0.021,1.083
0.015,1.084
0.0045,1.085
-0.0038,1.086
-0.0113,1.087
-0.024,1.088
-0.027,1.089
-0.0195,1.09
-0.0113,1.091
-0.0046,1.092
-0.0015,1.093
0.0015,1.094
0.0045,1.095
0.0075,1.096
0.012,1.097
0.018,1.098
0.0225,1.099
0.0187,1.1
0.0112,1.101
0.0007,1.102
-0.0053,1.103
-0.0128,1.104
-0.0203,1.105
-0.024,1.106
-0.0203,1.107
-0.0091,1.108
-0.0046,1.109
0.0007,1.11
0.0067,1.111
0.0082,1.112
0.012,1.113
0.0135,1.114
0.0195,1.115
0.0217,1.116
0.0135,1.117
0.0045,1.118
-0.003,1.119
-0.0098,1.12
-0.0158,1.121
-0.0218,1.122
-0.0218,1.123
-0.0128,1.124
-0.0046,1.125
-0.0008,1.126
0.0037,1.127
0.0082,1.128
0.0082,1.129
0.0105,1.13
0.012,1.131
0.018,1.132
0.0195,1.133
0.012,1.134
0.0045,1.135
-0.0068,1.136
-0.012,1.137
-0.0203,1.138
-0.0256,1.139
-0.0195,1.14
-0.0091,1.141
0.0,1.142
0.0015,1.143
0.003,1.144
0.006,1.145
0.0082,1.146
0.0127,1.147
0.018,1.148
0.0195,1.149
0.0165,1.15
0.0082,1.151
-0.0008,1.152
-0.0068,1.153
-0.0165,1.154
-0.0263,1.155
-0.0256,1.156
-0.0188,1.157
-0.0091,1.158
-0.0038,1.159
0.0022,1.16
0.0067,1.161
0.0082,1.162
0.0067,1.163
0.009,1.164
0.018,1.165
0.018,1.166
0.012,1.167
0.0075,1.168
0.0,1.169
-0.0091,1.17
-0.0181,1.171
-0.0233,1.172
-0.0203,1.173
-0.0113,1.174
-0.003,1.175
0.0007,1.176
0.0052,1.177
0.0052,1.178
0.0075,1.179
0.0097,1.18
0.0135,1.181
0.0217,1.182
0.021,1.183
0.0127,1.184
0.003,1.185
-0.006,1.186
-0.015,1.187
-0.0218,1.188
-0.024,1.189
-0.0203,1.19
-0.0113,1.191
-0.0068,1.192
-0.003,1.193
0.0,1.194
0.0015,1.195
0.0045,1.196
0.0082,1.197
0.0157,1.198
0.0202,1.199
0.0172,1.2
0.0105,1.201
-0.0008,1.202
-0.0098,1.203
-0.0158,1.204
-0.0233,1.205
-0.0218,1.206
-0.0143,1.207
-0.0053,1.208
0.0,1.209
0.0045,1.21
0.009,1.211
0.009,1.212
0.0097,1.213
0.0142,1.214
0.0202,1.215
0.0195,1.216
0.0135,1.217
0.0082,1.218
0.0,1.219
-0.0083,1.22
-0.0181,1.221
-0.0233,1.222
-0.0195,1.223
-0.0128,1.224
-0.003,1.225
-0.003,1.226
-0.0015,1.227
0.0052,1.228
0.0067,1.229
0.0082,1.23
0.012,1.231
0.0202,1.232
0.0202,1.233
0.0127,1.234
0.0022,1.235
-0.0068,1.236
-0.0135,1.237
-0.0225,1.238
-0.0233,1.239
-0.0165,1.24
-0.0083,1.241
-0.003,1.242
-0.0008,1.243
0.003,1.244
0.003,1.245
0.006,1.246
0.0082,1.247
0.0165,1.248
0.0225,1.249
0.0172,1.25
0.0097,1.251
0.0007,1.252
-0.0068,1.253
-0.0165,1.254
-0.0233,1.255
-0.0225,1.256
-0.0143,1.257
-0.0075,1.258
-0.0053,1.259
0.0015,1.26
0.0052,1.261
0.0075,1.262
0.0105,1.263
0.0112,1.264
0.0202,1.265
0.0202,1.266
0.012,1.267
0.0045,1.268
-0.0023,1.269
-0.0105,1.27
-0.0218,1.271
-0.0256,1.272
-0.0218,1.273
-0.0091,1.274
0.0007,1.275
0.0037,1.276
0.0067,1.277
0.0082,1.278
0.0105,1.279
0.0112,1.28
0.0127,1.281
0.0195,1.282
0.018,1.283
0.0127,1.284
0.0037,1.285
-0.0068,1.286
-0.0135,1.287
-0.0218,1.288
-0.0263,1.289
-0.024,1.29
-0.012,1.291
-0.003,1.292
0.0,1.293
0.0067,1.294
0.006,1.295
0.0067,1.296
0.0097,1.297
0.0157,1.298
0.0195,1.299
0.0142,1.3
0.0067,1.301
-0.003,1.302
-0.0091,1.303
-0.0181,1.304
-0.024,1.305
-0.0203,1.306
-0.015,1.307
-0.0068,1.308
-0.0015,1.309
0.003,1.31
0.0067,1.311
0.009,1.312
0.0127,1.313
0.0157,1.314
0.0202,1.315
0.0195,1.316
0.0112,1.317
0.003,1.318
-0.0046,1.319
-0.0105,1.32
-0.0181,1.321
-0.0233,1.322
-0.0195,1.323
-0.0068,1.324
-0.0023,1.325
-0.0008,1.326
0.0067,1.327
0.0082,1.328
0.0082,1.329
0.009,1.33
0.0165,1.331
0.0217,1.332
0.0172,1.333
0.0112,1.334
0.0007,1.335
-0.0068,1.336
-0.0128,1.337
-0.0195,1.338
-0.0225,1.339
-0.0195,1.34
-0.0105,1.341
-0.0046,1.342
0.0007,1.343
0.003,1.344
0.0052,1.345
0.0067,1.346
0.0075,1.347
0.0165,1.348
0.0195,1.349
0.0142,1.35
0.0067,1.351
0.0007,1.352
-0.0083,1.353
-0.0188,1.354
-0.0233,1.355
-0.0203,1.356
-0.012,1.357
-0.0053,1.358
0.0007,1.359
0.003,1.36
0.006,1.361
0.009,1.362
0.0075,1.363
0.0105,1.364
0.0187,1.365
0.021,1.366
0.0127,1.367
0.003,1.368
-0.0015,1.369
-0.0083,1.37
-0.0165,1.371
-0.0218,1.372
-0.0173,1.373
-0.012,1.374
-0.0068,1.375
-0.0015,1.376
0.0,1.377
0.003,1.378
0.0052,1.379
0.0082,1.38
0.0142,1.381
0.0187,1.382
0.0142,1.383
0.006,1.384
0.0015,1.385
-0.0068,1.386
-0.012,1.387
-0.0181,1.388
-0.0218,1.389
-0.0143,1.39
-0.0068,1.391
-0.0015,1.392
0.003,1.393
0.0045,1.394
0.0067,1.395
0.0105,1.396
0.0105,1.397
0.0165,1.398
0.0195,1.399
0.0142,1.4
0.0075,1.401
0.0,1.402
-0.0083,1.403
-0.0158,1.404
-0.0203,1.405
-0.021,1.406
-0.0135,1.407
-0.006,1.408
-0.0038,1.409
0.003,1.41
0.006,1.411
0.0082,1.412
0.0097,1.413
0.0135,1.414
0.0217,1.415
0.0202,1.416
0.012,1.417
0.0015,1.418
-0.0053,1.419
-0.0113,1.42
-0.0218,1.421
-0.024,1.422
-0.0203,1.423
-0.012,1.424
-0.0023,1.425
-0.0008,1.426
0.003,1.427
0.0067,1.428
0.0067,1.429
0.0097,1.43
0.0142,1.431
0.0157,1.432
0.0135,1.433
0.0082,1.434
-0.003,1.435
-0.0068,1.436
-0.015,1.437
-0.0233,1.438
-0.021,1.439
-0.015,1.44
-0.0053,1.441
-0.0015,1.442
0.003,1.443
0.0067,1.444
0.0075,1.445
0.009,1.446
0.0135,1.447
0.0202,1.448
0.0195,1.449
0.0135,1.45
0.0067,1.451
-0.0015,1.452
-0.0098,1.453
-0.0165,1.454
-0.021,1.455
-0.0195,1.456
-0.0113,1.457
-0.006,1.458
-0.0023,1.459
0.003,1.46
0.0045,1.461
0.0037,1.462
0.006,1.463
0.0097,1.464
0.0195,1.465
0.0202,1.466
0.009,1.467
0.0015,1.468
-0.0053,1.469
-0.0158,1.47
-0.0218,1.471
-0.0233,1.472
-0.0158,1.473
-0.0053,1.474
0.0,1.475
0.0045,1.476
0.0067,1.477
0.0075,1.478
0.009,1.479
0.009,1.48
0.0135,1.481
0.018,1.482
0.0165,1.483
0.0082,1.484
0.0007,1.485
-0.0068,1.486
-0.0158,1.487
-0.021,1.488
-0.0218,1.489
-0.0135,1.49
-0.0068,1.491
-0.0015,1.492
0.0045,1.493
0.0052,1.494
0.0082,1.495
0.0097,1.496
0.015,1.497
0.021,1.498
0.0195,1.499
0.0127,1.5
0.0037,1.501
-0.003,1.502
-0.0105,1.503
-0.0218,1.504
-0.027,1.505
-0.0233,1.506
-0.0143,1.507
-0.0053,1.508
-0.0015,1.509
0.003,1.51
0.009,1.511
0.009,1.512
0.0097,1.513
0.0157,1.514
0.0217,1.515
0.0187,1.516
0.0082,1.517
0.0007,1.518
-0.006,1.519
-0.0143,1.52
-0.0218,1.521
-0.0233,1.522
-0.0195,1.523
-0.0091,1.524
-0.0038,1.525
-0.0015,1.526
0.0022,1.527
0.0045,1.528
0.0105,1.529
0.009,1.53
0.0165,1.531
0.0225,1.532
0.0157,1.533
0.0082,1.534
-0.0008,1.535
-0.0091,1.536
-0.0173,1.537
-0.0225,1.538
-0.0195,1.539
-0.012,1.54
-0.0046,1.541
-0.0015,1.542
0.0022,1.543
0.0037,1.544
0.0037,1.545
0.0075,1.546
0.012,1.547
0.0187,1.548
0.0202,1.549
0.0127,1.55
0.0067,1.551
-0.0046,1.552
-0.0128,1.553
-0.0218,1.554
-0.027,1.555
-0.024,1.556
-0.0143,1.557
-0.006,1.558
-0.0008,1.559
0.009,1.56
0.0112,1.561
0.0105,1.562
0.012,1.563
0.0157,1.564
0.0217,1.565
0.0195,1.566
0.012,1.567
0.0045,1.568
-0.003,1.569
-0.0098,1.57
-0.0181,1.571
-0.0218,1.572
-0.0143,1.573
-0.0053,1.574
0.0,1.575
-0.0008,1.576
0.0,1.577
0.0045,1.578
0.0082,1.579
0.0097,1.58
0.0157,1.581
0.0217,1.582
0.0157,1.583
0.0052,1.584
-0.0038,1.585
-0.012,1.586
-0.0181,1.587
-0.024,1.588
-0.024,1.589
-0.0165,1.59
-0.0068,1.591
-0.0008,1.592
0.0022,1.593
0.006,1.594
0.009,1.595
0.0105,1.596
0.0135,1.597
0.0187,1.598
0.0172,1.599
0.0105,1.6
0.003,1.601
-0.0053,1.602
-0.0128,1.603
-0.0218,1.604
-0.0256,1.605
-0.0203,1.606
-0.012,1.607
-0.0091,1.608
-0.0046,1.609
0.0015,1.61
0.0015,1.611
0.003,1.612
0.0045,1.613
0.009,1.614
0.0157,1.615
0.0142,1.616
0.0082,1.617
0.0015,1.618
-0.0023,1.619
-0.0075,1.62
-0.0113,1.621
-0.0091,1.622
-0.0046,1.623
0.0045,1.624
0.0067,1.625
0.003,1.626
0.0037,1.627
0.0052,1.628
0.0082,1.629
0.0112,1.63
0.018,1.631
0.0202,1.632
0.0157,1.633
0.0075,1.634
0.0,1.635
-0.0068,1.636
-0.0195,1.637
-0.024,1.638
-0.024,1.639
-0.0188,1.64
-0.0105,1.641
-0.006,1.642
-0.0008,1.643
0.0037,1.644
0.0082,1.645
0.012,1.646
0.0187,1.647
0.0232,1.648
0.0202,1.649
0.0105,1.65
0.0022,1.651
-0.0091,1.652
-0.0195,1.653
-0.027,1.654
-0.0293,1.655
-0.0195,1.656
-0.0098,1.657
-0.0046,1.658
-0.0008,1.659
0.0052,1.66
0.0052,1.661
0.0082,1.662
0.0105,1.663
0.0165,1.664
0.0232,1.665
0.0202,1.666
0.0127,1.667
0.0037,1.668
-0.0015,1.669
-0.0083,1.67
-0.0181,1.671
-0.0218,1.672
-0.015,1.673
-0.0068,1.674
-0.0053,1.675
0.0007,1.676
0.003,1.677
0.003,1.678
0.0052,1.679
0.0075,1.68
0.0127,1.681
0.0142,1.682
0.0097,1.683
0.0037,1.684
-0.006,1.685
-0.0158,1.686
-0.0203,1.687
-0.024,1.688
-0.0218,1.689
-0.012,1.69
-0.0046,1.691
-0.0015,1.692
0.0045,1.693
0.0082,1.694
0.009,1.695
0.0105,1.696
0.0127,1.697
0.0202,1.698
0.0202,1.699
0.0142,1.7
0.0105,1.701
0.003,1.702
-0.0068,1.703
-0.0181,1.704
-0.0203,1.705
-0.0181,1.706
-0.0083,1.707
-0.0008,1.708
0.0,1.709
0.003,1.71
0.0052,1.711
0.0052,1.712
0.0082,1.713
0.0142,1.714
0.0195,1.715
0.0165,1.716
0.006,1.717
-0.0038,1.718
-0.0075,1.719
-0.0165,1.72
-0.0233,1.721
-0.0233,1.722
-0.0195,1.723
-0.012,1.724
-0.0083,1.725
-0.003,1.726
0.0037,1.727
0.0052,1.728
0.0045,1.729
0.0097,1.73
0.018,1.731
0.0232,1.732
0.0195,1.733
0.0105,1.734
0.003,1.735
-0.0053,1.736
-0.012,1.737
-0.0165,1.738
-0.015,1.739
-0.0053,1.74
0.003,1.741
0.0075,1.742
0.012,1.743
0.0142,1.744
0.0135,1.745
0.0127,1.746
0.0157,1.747
0.0195,1.748
0.0135,1.749
0.0045,1.75
-0.0046,1.751
-0.015,1.752
-0.0263,1.753
-0.039,1.754
-0.042,1.755
-0.033,1.756
-0.0225,1.757
-0.0135,1.758
-0.0046,1.759
0.0037,1.76
0.0105,1.761
0.0195,1.762
0.0262,1.763
0.0352,1.764
0.0405,1.765
0.0352,1.766
0.0195,1.767
0.006,1.768
-0.0008,1.769
-0.0128,1.77
-0.024,1.771
-0.0248,1.772
-0.0173,1.773
-0.0068,1.774
-0.0046,1.775
0.0007,1.776
0.0067,1.777
0.0067,1.778
0.0067,1.779
0.0105,1.78
0.012,1.781
0.0097,1.782
0.0052,1.783
-0.003,1.784
-0.0128,1.785
-0.0188,1.786
-0.0263,1.787
-0.0278,1.788
-0.0256,1.789
-0.0158,1.79
-0.0038,1.791
0.003,1.792
0.0082,1.793
0.0067,1.794
0.0097,1.795
0.0127,1.796
0.018,1.797
0.024,1.798
0.0217,1.799
0.0127,1.8
0.0037,1.801
-0.0038,1.802
-0.0105,1.803
-0.0181,1.804
-0.0195,1.805
-0.0165,1.806
-0.0105,1.807
-0.0053,1.808
-0.003,1.809
0.0007,1.81
0.0045,1.811
0.0052,1.812
0.0067,1.813
0.0105,1.814
0.0142,1.815
0.0082,1.816
0.0037,1.817
-0.0008,1.818
-0.0083,1.819
-0.0135,1.82
-0.0195,1.821
-0.0218,1.822
-0.0158,1.823
-0.0091,1.824
-0.0083,1.825
-0.003,1.826
0.0037,1.827
0.009,1.828
0.0135,1.829
0.0157,1.83
0.018,1.831
0.0195,1.832
0.015,1.833
0.0067,1.834
0.0022,1.835
0.0,1.836
-0.0098,1.837
-0.0165,1.838
-0.012,1.839
-0.0038,1.84
0.0,1.841
-0.0008,1.842
-0.0008,1.843
0.0015,1.844
0.003,1.845
0.0067,1.846
0.0142,1.847
0.0165,1.848
0.0142,1.849
0.0082,1.85
0.0015,1.851
-0.0068,1.852
-0.0165,1.853
-0.027,1.854
-0.0285,1.855
-0.0225,1.856
-0.0128,1.857
-0.0046,1.858
0.0022,1.859
0.009,1.86
0.0142,1.861
0.0142,1.862
0.0165,1.863
0.0225,1.864
0.0232,1.865
0.018,1.866
0.0105,1.867
0.0,1.868
-0.0091,1.869
-0.0195,1.87
-0.0248,1.871
-0.0218,1.872
-0.0128,1.873
-0.003,1.874
-0.003,1.875
0.0,1.876
0.0022,1.877
0.0045,1.878
0.0105,1.879
0.0105,1.88
0.018,1.881
0.0165,1.882
0.0075,1.883
0.0045,1.884
-0.0038,1.885
-0.0105,1.886
-0.0188,1.887
-0.0256,1.888
-0.0218,1.889
-0.0173,1.89
-0.0105,1.891
-0.003,1.892
0.0015,1.893
0.003,1.894
0.0037,1.895
0.0052,1.896
0.0097,1.897
0.0165,1.898
0.0127,1.899
0.006,1.9
0.0015,1.901
-0.003,1.902
-0.0053,1.903
-0.0105,1.904
-0.0128,1.905
-0.0083,1.906
-0.0008,1.907
0.0052,1.908
0.012,1.909
0.0187,1.91
0.0157,1.911
0.009,1.912
0.0097,1.913
0.0127,1.914
0.015,1.915
0.0112,1.916
0.0015,1.917
-0.0068,1.918
-0.0135,1.919
-0.0218,1.92
-0.0256,1.921
-0.0195,1.922
-0.0105,1.923
-0.0038,1.924
-0.003,1.925
-0.0046,1.926
-0.0008,1.927
0.0037,1.928
0.0067,1.929
0.009,1.93
0.0165,1.931
0.0172,1.932
0.0105,1.933
0.0045,1.934
-0.0023,1.935
-0.0113,1.936
-0.0165,1.937
-0.0195,1.938
-0.0143,1.939
-0.0046,1.94
0.0015,1.941
0.0037,1.942
0.0015,1.943
0.0,1.944
0.0045,1.945
0.0112,1.946
0.0232,1.947
0.0292,1.948
0.024,1.949
0.0157,1.95
0.0045,1.951
-0.006,1.952
-0.0158,1.953
-0.0225,1.954
-0.024,1.955
-0.0181,1.956
-0.0113,1.957
-0.0068,1.958
-0.003,1.959
-0.0008,1.96
0.0045,1.961
0.0082,1.962
0.0067,1.963
0.0105,1.964
0.012,1.965
0.003,1.966
-0.006,1.967
-0.0105,1.968
-0.015,1.969
-0.0203,1.97
-0.0256,1.971
-0.0233,1.972
-0.0143,1.973
-0.0015,1.974
0.0067,1.975
0.0142,1.976
0.0262,1.977
0.036,1.978
0.039,1.979
0.0412,1.98
0.042,1.981
0.033,1.982
0.018,1.983
0.0045,1.984
-0.0105,1.985
-0.0233,1.986
-0.0308,1.987
-0.0315,1.988
-0.0278,1.989
-0.0233,1.99
-0.0218,1.991
-0.021,1.992
-0.0181,1.993
-0.0165,1.994
-0.0105,1.995
-0.0046,1.996
0.0067,1.997
0.0142,1.998
0.0142,1.999
0.009,2.0
0.003,2.001
0.003,2.002
-0.0008,2.003
-0.003,2.004
-0.0015,2.005
0.0015,2.006
0.0112,2.007
0.0082,2.008
0.0082,2.009
0.009,2.01
0.0067,2.011
0.0082,2.012
0.009,2.013
0.0157,2.014
0.0157,2.015
0.0082,2.016
-0.0008,2.017
-0.0128,2.018
-0.0195,2.019
-0.033,2.02
-0.0436,2.021
-0.0398,2.022
-0.024,2.023
-0.012,2.024
-0.0068,2.025
0.0015,2.026
0.0067,2.027
0.0142,2.028
0.0202,2.029
0.0277,2.03
0.0352,2.031
0.0352,2.032
0.027,2.033
0.0157,2.034
0.009,2.035
0.0007,2.036
-0.0143,2.037
-0.0195,2.038
-0.0165,2.039
-0.0091,2.04
-0.0038,2.041
-0.003,2.042
0.0022,2.043
0.0045,2.044
0.0052,2.045
0.0045,2.046
0.0082,2.047
0.009,2.048
0.0022,2.049
-0.0053,2.05
-0.0165,2.051
-0.024,2.052
-0.0368,2.053
-0.0495,2.054
-0.0473,2.055
-0.0353,2.056
-0.0195,2.057
-0.0083,2.058
0.0045,2.059
0.021,2.06
0.0307,2.061
0.0367,2.062
0.0465,2.063
0.054,2.064
0.051,2.065
0.0427,2.066
0.0315,2.067
0.0225,2.068
0.0142,2.069
-0.0008,2.07
-0.015,2.071
-0.021,2.072
-0.0181,2.073
-0.0158,2.074
-0.0173,2.075
-0.015,2.076
-0.0143,2.077
-0.0128,2.078
-0.0068,2.079
0.0007,2.08
0.009,2.081
0.0082,2.082
0.0037,2.083
0.0045,2.084
0.0082,2.085
0.0022,2.086
-0.003,2.087
-0.006,2.088
-0.0083,2.089
-0.0091,2.09
-0.0105,2.091
-0.0068,2.092
-0.0023,2.093
-0.0008,2.094
0.0015,2.095
0.0007,2.096
0.0045,2.097
0.0067,2.098
0.0015,2.099
-0.0105,2.1
-0.0218,2.101
-0.0285,2.102
-0.0383,2.103
-0.0405,2.104
-0.0346,2.105
-0.0315,2.106
-0.0263,2.107
-0.024,2.108
-0.0143,2.109
-0.0053,2.11
0.0015,2.111
0.0187,2.112
0.0352,2.113
0.054,2.114
0.0592,2.115
0.0525,2.116
0.0457,2.117
0.0405,2.118
0.0337,2.119
0.018,2.12
0.0067,2.121
0.0052,2.122
0.0127,2.123
0.0105,2.124
0.0067,2.125
0.003,2.126
-0.0083,2.127
-0.0143,2.128
-0.0218,2.129
-0.0181,2.13
-0.0091,2.131
-0.0091,2.132
-0.0068,2.133
-0.012,2.134
-0.0195,2.135
-0.0278,2.136
-0.0315,2.137
-0.0256,2.138
-0.015,2.139
-0.0015,2.14
0.0015,2.141
0.0022,2.142
0.0052,2.143
0.0052,2.144
0.0142,2.145
0.0202,2.146
0.021,2.147
0.0247,2.148
0.0157,2.149
0.0067,2.15
0.0015,2.151
-0.0068,2.152
-0.0165,2.153
-0.024,2.154
-0.0195,2.155
-0.012,2.156
-0.0083,2.157
-0.0091,2.158
-0.0083,2.159
-0.0053,2.16
-0.0068,2.161
-0.0015,2.162
0.0045,2.163
0.009,2.164
0.009,2.165
0.0015,2.166
-0.0008,2.167
0.0007,2.168
-0.0015,2.169
-0.006,2.17
-0.0091,2.171
-0.006,2.172
0.0052,2.173
0.0127,2.174
0.0157,2.175
0.015,2.176
0.0082,2.177
0.0105,2.178
0.0135,2.179
0.018,2.18
0.0187,2.181
0.0142,2.182
0.0067,2.183
-0.0046,2.184
-0.0165,2.185
-0.0368,2.186
-0.06,2.187
-0.0713,2.188
-0.063,2.189
-0.0458,2.19
-0.0308,2.191
-0.021,2.192
-0.0091,2.193
0.0082,2.194
0.0285,2.195
0.0472,2.196
0.0675,2.197
0.0817,2.198
0.0832,2.199
0.078,2.2
0.0622,2.201
0.0367,2.202
0.0105,2.203
-0.0075,2.204
-0.0105,2.205
-0.0128,2.206
-0.0158,2.207
-0.015,2.208
-0.0158,2.209
-0.0195,2.21
-0.0248,2.211
-0.0383,2.212
-0.0533,2.213
-0.0555,2.214
-0.0473,2.215
-0.0413,2.216
-0.0353,2.217
-0.0278,2.218
-0.0195,2.219
-0.0083,2.22
0.0165,2.221
0.0555,2.222
0.0885,2.223
0.0915,2.224
0.0652,2.225
0.0435,2.226
0.0352,2.227
0.039,2.228
0.0367,2.229
0.0277,2.23
0.0165,2.231
-0.003,2.232
-0.0195,2.233
-0.0338,2.234
-0.0428,2.235
-0.0511,2.236
-0.0563,2.237
-0.0555,2.238
-0.0511,2.239
-0.0405,2.24
-0.0368,2.241
-0.0338,2.242
-0.0353,2.243
-0.033,2.244
-0.024,2.245
-0.0165,2.246
-0.0075,2.247
0.0015,2.248
0.0082,2.249
0.0112,2.25
0.0202,2.251
0.036,2.252
0.0405,2.253
0.0375,2.254
0.0382,2.255
0.0375,2.256
0.0315,2.257
0.018,2.258
0.0067,2.259
0.0037,2.26
-0.0015,2.261
-0.0083,2.262
-0.0098,2.263
-0.0075,2.264
-0.0143,2.265
-0.0256,2.266
-0.03,2.267
-0.0338,2.268
-0.0353,2.269
-0.0293,2.27
-0.0203,2.271
-0.0091,2.272
0.0067,2.273
0.0097,2.274
0.0142,2.275
0.027,2.276
0.0322,2.277
0.0382,2.278
0.039,2.279
0.0307,2.28
0.0285,2.281
0.0142,2.282
-0.0053,2.283
-0.0218,2.284
-0.0323,2.285
-0.0308,2.286
-0.0278,2.287
-0.0173,2.288
0.006,2.289
0.0277,2.29
0.0375,2.291
0.0427,2.292
0.0457,2.293
0.0397,2.294
0.0292,2.295
0.0022,2.296
-0.0195,2.297
-0.0293,2.298
-0.042,2.299
-0.054,2.3
-0.0638,2.301
-0.0615,2.302
-0.0525,2.303
-0.0383,2.304
-0.0128,2.305
0.024,2.306
0.051,2.307
0.0457,2.308
0.039,2.309
0.039,2.31
0.0412,2.311
0.0442,2.312
0.0405,2.313
0.0405,2.314
0.0337,2.315
0.0195,2.316
0.0075,2.317
-0.0053,2.318
-0.0158,2.319
-0.0278,2.32
-0.0398,2.321
-0.045,2.322
-0.0465,2.323
-0.0458,2.324
-0.048,2.325
-0.048,2.326
-0.0398,2.327
-0.0308,2.328
-0.0165,2.329
0.0105,2.33
0.0277,2.331
0.0382,2.332
0.0472,2.333
0.0562,2.334
0.0622,2.335
0.0457,2.336
0.0112,2.337
-0.012,2.338
-0.0165,2.339
-0.015,2.34
-0.0105,2.341
-0.0128,2.342
-0.027,2.343
-0.0495,2.344
-0.063,2.345
-0.0615,2.346
-0.0503,2.347
-0.0361,2.348
-0.0346,2.349
-0.0256,2.35
-0.0075,2.351
0.009,2.352
0.033,2.353
0.0622,2.354
0.0855,2.355
0.0712,2.356
0.0532,2.357
0.051,2.358
0.0517,2.359
0.0577,2.36
0.0555,2.361
0.0405,2.362
0.0202,2.363
0.0052,2.364
-0.0135,2.365
-0.033,2.366
-0.0495,2.367
-0.0623,2.368
-0.0706,2.369
-0.0728,2.37
-0.0638,2.371
-0.045,2.372
-0.0218,2.373
-0.0015,2.374
0.021,2.375
0.0427,2.376
0.048,2.377
0.033,2.378
0.0217,2.379
0.027,2.38
0.0232,2.381
0.0142,2.382
0.0015,2.383
-0.0158,2.384
-0.0143,2.385
0.0007,2.386
0.0112,2.387
0.0075,2.388
-0.0015,2.389
-0.0091,2.39
-0.0098,2.391
-0.0038,2.392
-0.003,2.393
-0.012,2.394
-0.0218,2.395
-0.0263,2.396
-0.0353,2.397
-0.0465,2.398
-0.0525,2.399
-0.0533,2.4
-0.0436,2.401
-0.0293,2.402
-0.0143,2.403
0.003,2.404
0.0225,2.405
0.048,2.406
0.075,2.407
0.0877,2.408
0.0937,2.409
0.0802,2.41
0.0427,2.411
0.0225,2.412
0.012,2.413
0.0052,2.414
0.0007,2.415
-0.0105,2.416
-0.0188,2.417
-0.0263,2.418
-0.0323,2.419
-0.0405,2.42
-0.0495,2.421
-0.0495,2.422
-0.0503,2.423
-0.0518,2.424
-0.0458,2.425
-0.0495,2.426
-0.0473,2.427
-0.0256,2.428
-0.0008,2.429
0.0255,2.43
0.0442,2.431
0.048,2.432
0.0465,2.433
0.0532,2.434
0.063,2.435
0.0562,2.436
0.0352,2.437
0.0127,2.438
0.012,2.439
0.024,2.44
0.0232,2.441
0.0142,2.442
0.0,2.443
-0.0075,2.444
-0.0135,2.445
-0.024,2.446
-0.0278,2.447
-0.0375,2.448
-0.042,2.449
-0.0436,2.45
-0.0443,2.451
-0.0443,2.452
-0.0518,2.453
-0.039,2.454
-0.012,2.455
0.0142,2.456
0.024,2.457
0.018,2.458
0.0307,2.459
0.0487,2.46
0.063,2.461
0.0675,2.462
0.0705,2.463
0.0742,2.464
0.0532,2.465
0.0352,2.466
0.006,2.467
-0.0248,2.468
-0.0436,2.469
-0.0668,2.47
-0.078,2.471
-0.0856,2.472
-0.0735,2.473
-0.054,2.474
-0.0398,2.475
-0.0195,2.476
-0.0038,2.477
0.0217,2.478
0.0495,2.479
0.0757,2.48
0.0907,2.481
0.0795,2.482
0.0457,2.483
0.0187,2.484
0.0015,2.485
-0.0188,2.486
-0.027,2.487
-0.0225,2.488
-0.015,2.489
-0.0091,2.49
-0.006,2.491
-0.0015,2.492
-0.0038,2.493
-0.0128,2.494
-0.0158,2.495
-0.0113,2.496
-0.0068,2.497
-0.0091,2.498
-0.0128,2.499
-0.0143,2.5
-0.006,2.501
0.0097,2.502
0.0247,2.503
0.0352,2.504
0.0382,2.505
0.0382,2.506
0.0307,2.507
0.0082,2.508
-0.003,2.509
-0.012,2.51
-0.0256,2.511
-0.0338,2.512
-0.0315,2.513
-0.0181,2.514
-0.0113,2.515
-0.0128,2.516
-0.0158,2.517
-0.0098,2.518
-0.006,2.519
-0.0053,2.52
0.0015,2.521
0.0052,2.522
0.0037,2.523
-0.0068,2.524
-0.006,2.525
0.0,2.526
0.0037,2.527
0.0082,2.528
0.0052,2.529
0.0105,2.53
0.0142,2.531
0.0135,2.532
-0.003,2.533
-0.024,2.534
-0.0323,2.535
-0.0375,2.536
-0.0368,2.537
-0.0428,2.538
-0.045,2.539
-0.0375,2.54
-0.0263,2.541
-0.0143,2.542
-0.0068,2.543
0.0015,2.544
0.0315,2.545
0.0967,2.546
0.1335,2.547
0.1117,2.548
0.0667,2.549
0.0277,2.55
-0.003,2.551
-0.0315,2.552
-0.0458,2.553
-0.0473,2.554
-0.042,2.555
-0.0323,2.556
-0.0315,2.557
-0.0346,2.558
-0.0315,2.559
-0.0278,2.56
-0.0165,2.561
-0.0023,2.562
0.0067,2.563
0.0142,2.564
0.0135,2.565
0.0075,2.566
-0.0046,2.567
-0.0346,2.568
-0.0615,2.569
-0.0668,2.57
-0.0503,2.571
-0.0195,2.572
0.0195,2.573
0.0667,2.574
0.1087,2.575
0.114,2.576
0.0922,2.577
0.0705,2.578
