VaMe,time
0.0232,0.001
0.0157,0.002
0.0127,0.003
0.0165,0.004
0.018,0.005
0.0082,0.006
-0.006,0.007
-0.0203,0.008
-0.024,0.009
-0.012,0.01
-0.003,0.011
0.003,0.012
0.0007,0.013
-0.0091,0.014
-0.0015,0.015
0.0082,0.016
0.0082,0.017
0.009,0.018
0.0052,0.019
0.0,0.02
-0.0083,0.021
-0.0098,0.022
-0.0083,0.023
-0.0091,0.024
-0.003,0.025
0.003,0.026
0.0045,0.027
0.0075,0.028
0.0142,0.029
0.0127,0.03
0.0037,0.031
-0.0008,0.032
0.0015,0.033
0.0037,0.034
-0.0046,0.035
-0.0143,0.036
-0.0188,0.037
-0.0263,0.038
-0.0293,0.039
-0.0203,0.04
-0.006,0.041
0.0135,0.042
0.0232,0.043
0.0112,0.044
-0.006,0.045
-0.012,0.046
-0.0135,0.047
-0.012,0.048
-0.0113,0.049
-0.0158,0.05
-0.0158,0.051
-0.0098,0.052
0.0052,0.053
0.0067,0.054
-0.0046,0.055
-0.0091,0.056
-0.0053,0.057
0.0067,0.058
0.0195,0.059
0.0255,0.06
0.0322,0.061
0.0277,0.062
0.0165,0.063
0.0195,0.064
0.0165,0.065
0.0075,0.066
-0.0046,0.067
-0.0225,0.068
-0.0278,0.069
-0.0135,0.07
0.006,0.071
0.0082,0.072
-0.0015,0.073
-0.0075,0.074
-0.0075,0.075
-0.0068,0.076
-0.0068,0.077
-0.0015,0.078
-0.003,0.079
-0.0068,0.08
-0.0158,0.081
-0.0181,0.082
-0.0165,0.083
-0.0165,0.084
-0.012,0.085
-0.0091,0.086
-0.0008,0.087
0.0172,0.088
0.0367,0.089
0.0262,0.09
0.003,0.091
-0.0068,0.092
-0.0143,0.093
-0.0181,0.094
-0.012,0.095
-0.0068,0.096
0.0037,0.097
0.0195,0.098
0.0255,0.099
0.0195,0.1
0.0142,0.101
0.024,0.102
0.0307,0.103
0.0127,0.104
-0.0091,0.105
-0.015,0.106
-0.0158,0.107
-0.012,0.108
0.0015,0.109
-0.0008,0.11
-0.0083,0.111
-0.0128,0.112
-0.0181,0.113
-0.0195,0.114
-0.021,0.115
-0.0195,0.116
-0.0188,0.117
-0.0143,0.118
-0.0091,0.119
-0.0083,0.12
-0.006,0.121
-0.0046,0.122
0.0045,0.123
-0.003,0.124
-0.0256,0.125
-0.0293,0.126
-0.021,0.127
-0.003,0.128
0.0285,0.129
0.0442,0.13
0.0367,0.131
0.0337,0.132
0.0375,0.133
0.024,0.134
0.0067,0.135
0.0052,0.136
0.0037,0.137
0.0015,0.138
0.003,0.139
-0.0015,0.14
-0.0091,0.141
-0.0083,0.142
-0.0008,0.143
0.0007,0.144
-0.0091,0.145
-0.0181,0.146
-0.0173,0.147
-0.0083,0.148
-0.0053,0.149
-0.0143,0.15
-0.0225,0.151
-0.0195,0.152
-0.0068,0.153
0.0075,0.154
0.0127,0.155
0.0022,0.156
-0.0091,0.157
-0.0181,0.158
-0.0128,0.159
0.0015,0.16
0.0082,0.161
0.0142,0.162
0.0105,0.163
0.0045,0.164
0.0045,0.165
0.0067,0.166
0.0052,0.167
-0.0015,0.168
-0.0083,0.169
-0.012,0.17
-0.0068,0.171
0.0037,0.172
0.0112,0.173
0.0142,0.174
0.0067,0.175
0.0007,0.176
-0.0038,0.177
-0.0143,0.178
-0.0083,0.179
0.0015,0.18
0.0082,0.181
0.0052,0.182
-0.0165,0.183
-0.0285,0.184
-0.0225,0.185
0.003,0.186
0.0127,0.187
-0.0008,0.188
-0.012,0.189
-0.0158,0.19
0.0,0.191
0.0082,0.192
0.003,0.193
0.0037,0.194
0.009,0.195
0.0187,0.196
0.0307,0.197
0.042,0.198
0.0435,0.199
0.0195,0.2
-0.0008,0.201
-0.003,0.202
-0.0165,0.203
-0.0218,0.204
-0.0225,0.205
-0.0158,0.206
0.0052,0.207
0.0157,0.208
0.003,0.209
-0.0105,0.21
-0.0165,0.211
-0.024,0.212
-0.027,0.213
-0.0353,0.214
-0.0315,0.215
-0.0256,0.216
-0.024,0.217
-0.0195,0.218
-0.0278,0.219
-0.0293,0.22
-0.0128,0.221
0.0142,0.222
0.0165,0.223
0.0105,0.224
0.018,0.225
0.0165,0.226
0.0232,0.227
0.0322,0.228
0.036,0.229
0.0292,0.23
0.0202,0.231
0.0187,0.232
0.0195,0.233
0.0217,0.234
0.0135,0.235
0.0067,0.236
0.0037,0.237
0.006,0.238
0.0052,0.239
-0.0068,0.24
-0.024,0.241
-0.0368,0.242
-0.0488,0.243
-0.0608,0.244
-0.0585,0.245
-0.0443,0.246
-0.0203,0.247
0.0052,0.248
0.0255,0.249
0.0382,0.25
0.0382,0.251
0.0352,0.252
0.0315,0.253
0.0202,0.254
0.0195,0.255
0.0232,0.256
0.0127,0.257
-0.0008,0.258
-0.0008,0.259
-0.0038,0.26
0.0015,0.261
0.0052,0.262
-0.012,0.263
-0.0181,0.264
-0.0128,0.265
-0.015,0.266
-0.024,0.267
-0.03,0.268
-0.0405,0.269
-0.0203,0.27
0.006,0.271
-0.0173,0.272
-0.03,0.273
-0.0091,0.274
0.009,0.275
0.024,0.276
0.0307,0.277
0.024,0.278
0.0105,0.279
0.0052,0.28
0.0052,0.281
0.0015,0.282
0.0127,0.283
0.0255,0.284
0.009,0.285
-0.003,0.286
0.0022,0.287
-0.0008,0.288
-0.0083,0.289
-0.0083,0.29
-0.0038,0.291
-0.0046,0.292
-0.0075,0.293
-0.0143,0.294
-0.0218,0.295
-0.0195,0.296
-0.0181,0.297
-0.0105,0.298
-0.0046,0.299
-0.0173,0.3
-0.024,0.301
-0.0233,0.302
-0.024,0.303
-0.0128,0.304
-0.0008,0.305
0.0045,0.306
0.0195,0.307
0.0315,0.308
0.0217,0.309
0.0225,0.31
0.0255,0.311
0.0172,0.312
0.0217,0.313
0.0142,0.314
0.0015,0.315
-0.0053,0.316
-0.0181,0.317
-0.0293,0.318
-0.0465,0.319
-0.0578,0.32
-0.0495,0.321
-0.0308,0.322
-0.0113,0.323
0.0082,0.324
0.0457,0.325
0.069,0.326
0.0667,0.327
0.0735,0.328
0.0742,0.329
0.0592,0.33
0.0405,0.331
0.0157,0.332
-0.0165,0.333
-0.0465,0.334
-0.0443,0.335
-0.0278,0.336
-0.0143,0.337
-0.0091,0.338
-0.0256,0.339
-0.048,0.34
-0.0578,0.341
-0.0555,0.342
-0.033,0.343
-0.012,0.344
-0.0008,0.345
0.0112,0.346
0.0052,0.347
0.018,0.348
0.0352,0.349
0.0375,0.35
0.0435,0.351
0.039,0.352
0.03,0.353
0.0195,0.354
0.0067,0.355
-0.0091,0.356
-0.0256,0.357
-0.027,0.358
-0.0113,0.359
-0.012,0.36
-0.0165,0.361
-0.0113,0.362
-0.0083,0.363
0.003,0.364
0.0067,0.365
0.006,0.366
0.0052,0.367
-0.0008,0.368
0.003,0.369
0.0022,0.37
-0.0023,0.371
-0.006,0.372
-0.0075,0.373
-0.0113,0.374
-0.0233,0.375
-0.0413,0.376
-0.0623,0.377
-0.0691,0.378
-0.0593,0.379
-0.0405,0.38
-0.0068,0.381
0.0277,0.382
0.0577,0.383
0.0667,0.384
0.0457,0.385
0.0307,0.386
0.0172,0.387
0.0082,0.388
0.0142,0.389
0.0232,0.39
0.0307,0.391
0.0217,0.392
0.009,0.393
-0.0053,0.394
-0.0098,0.395
-0.0128,0.396
-0.027,0.397
-0.0383,0.398
-0.0458,0.399
-0.0315,0.4
-0.0113,0.401
-0.006,0.402
-0.0233,0.403
-0.0338,0.404
-0.0458,0.405
-0.0563,0.406
-0.0398,0.407
-0.0053,0.408
0.0457,0.409
0.09,0.41
0.0915,0.411
0.057,0.412
0.0427,0.413
0.012,0.414
-0.012,0.415
0.003,0.416
0.015,0.417
0.0502,0.418
0.0585,0.419
0.057,0.42
0.0472,0.421
0.015,0.422
-0.0053,0.423
-0.054,0.424
-0.0998,0.425
-0.114,0.426
-0.1065,0.427
-0.09,0.428
-0.0488,0.429
0.0045,0.43
0.0442,0.431
0.09,0.432
0.0967,0.433
0.0712,0.434
0.033,0.435
-0.0135,0.436
-0.0615,0.437
-0.0908,0.438
-0.0871,0.439
-0.0555,0.44
-0.0173,0.441
0.0067,0.442
0.0157,0.443
0.0127,0.444
0.0307,0.445
0.0465,0.446
0.069,0.447
0.0982,0.448
0.087,0.449
0.0525,0.45
0.0097,0.451
-0.0278,0.452
-0.0638,0.453
-0.093,0.454
-0.1178,0.455
-0.1253,0.456
-0.0758,0.457
-0.0278,0.458
0.006,0.459
0.054,0.46
0.0757,0.461
0.0577,0.462
0.03,0.463
0.0195,0.464
0.0315,0.465
0.036,0.466
0.0135,0.467
-0.0046,0.468
0.012,0.469
0.0345,0.47
0.036,0.471
0.024,0.472
0.0097,0.473
0.0045,0.474
-0.015,0.475
-0.03,0.476
-0.0368,0.477
-0.0443,0.478
-0.0465,0.479
-0.0578,0.48
-0.0638,0.481
-0.06,0.482
-0.054,0.483
-0.0578,0.484
-0.0691,0.485
-0.0593,0.486
-0.0105,0.487
0.045,0.488
0.0765,0.489
0.0952,0.49
0.1027,0.491
0.0877,0.492
0.0742,0.493
0.0592,0.494
0.0157,0.495
-0.003,0.496
-0.003,0.497
0.0015,0.498
0.0105,0.499
0.0165,0.5
0.027,0.501
0.0112,0.502
-0.0181,0.503
-0.0361,0.504
-0.0436,0.505
-0.0458,0.506
-0.0405,0.507
-0.0495,0.508
-0.0653,0.509
-0.06,0.51
-0.054,0.511
-0.045,0.512
-0.0375,0.513
-0.0083,0.514
0.0195,0.515
0.0232,0.516
0.051,0.517
0.0705,0.518
0.0787,0.519
0.0855,0.52
0.0952,0.521
0.0765,0.522
0.039,0.523
0.0067,0.524
-0.0293,0.525
-0.042,0.526
-0.0533,0.527
-0.0698,0.528
-0.0885,0.529
-0.0953,0.53
-0.0968,0.531
-0.1155,0.532
-0.1028,0.533
-0.0593,0.534
-0.0143,0.535
0.0277,0.536
0.0577,0.537
0.0547,0.538
0.0232,0.539
0.0322,0.54
0.078,0.541
0.099,0.542
0.1215,0.543
0.1365,0.544
0.099,0.545
0.054,0.546
0.0142,0.547
-0.039,0.548
-0.0728,0.549
-0.0878,0.55
-0.0623,0.551
-0.0195,0.552
-0.0098,0.553
-0.0068,0.554
-0.0218,0.555
-0.0368,0.556
-0.0503,0.557
-0.075,0.558
-0.1021,0.559
-0.1118,0.56
-0.0653,0.561
-0.0143,0.562
0.024,0.563
0.0817,0.564
0.1522,0.565
0.1537,0.566
0.1095,0.567
0.096,0.568
0.0727,0.569
0.0405,0.57
0.012,0.571
-0.0105,0.572
-0.0225,0.573
-0.024,0.574
-0.0203,0.575
-0.0143,0.576
-0.0105,0.577
-0.0218,0.578
-0.0413,0.579
-0.054,0.58
-0.057,0.581
-0.054,0.582
-0.0458,0.583
-0.0743,0.584
-0.1523,0.585
-0.2243,0.586
-0.255,0.587
-0.1935,0.588
-0.054,0.589
0.0705,0.59
0.1627,0.591
0.2025,0.592
0.225,0.593
0.219,0.594
0.1672,0.595
0.1387,0.596
0.1132,0.597
0.0877,0.598
0.0517,0.599
0.012,0.6
-0.0248,0.601
-0.0683,0.602
-0.1043,0.603
-0.1463,0.604
-0.1411,0.605
-0.0945,0.606
-0.0353,0.607
0.0307,0.608
0.051,0.609
0.0577,0.61
0.0555,0.611
0.0367,0.612
0.0,0.613
-0.0825,0.614
-0.1396,0.615
-0.1095,0.616
-0.0533,0.617
-0.0046,0.618
0.0352,0.619
0.054,0.62
0.0652,0.621
0.069,0.622
0.0502,0.623
0.0255,0.624
0.0292,0.625
-0.0053,0.626
-0.0578,0.627
-0.0728,0.628
-0.0773,0.629
-0.0608,0.63
-0.0443,0.631
-0.0338,0.632
0.015,0.633
0.0585,0.634
0.0337,0.635
-0.0008,0.636
-0.0181,0.637
-0.03,0.638
0.0067,0.639
0.0705,0.64
0.1102,0.641
0.1402,0.642
0.1477,0.643
0.09,0.644
0.003,0.645
-0.0518,0.646
-0.0698,0.647
-0.0315,0.648
0.0037,0.649
-0.0038,0.65
-0.0068,0.651
-0.0278,0.652
-0.0555,0.653
-0.081,0.654
-0.1493,0.655
-0.1845,0.656
-0.1268,0.657
-0.0713,0.658
-0.003,0.659
0.0615,0.66
0.063,0.661
0.0427,0.662
0.0367,0.663
0.0307,0.664
0.0202,0.665
0.0592,0.666
0.1117,0.667
0.132,0.668
0.1365,0.669
0.0952,0.67
0.033,0.671
-0.0203,0.672
-0.0975,0.673
-0.1605,0.674
-0.1733,0.675
-0.1575,0.676
-0.1335,0.677
-0.117,0.678
-0.1238,0.679
-0.0818,0.68
0.0495,0.681
0.1785,0.682
0.2295,0.683
0.2662,0.684
0.2955,0.685
0.2512,0.686
0.1792,0.687
0.0547,0.688
-0.0346,0.689
-0.0383,0.69
-0.0428,0.691
-0.0405,0.692
-0.0593,0.693
-0.0878,0.694
-0.123,0.695
-0.1215,0.696
-0.0968,0.697
-0.078,0.698
-0.0645,0.699
-0.078,0.7
-0.0953,0.701
-0.1006,0.702
-0.1088,0.703
-0.1403,0.704
-0.129,0.705
-0.0706,0.706
-0.006,0.707
0.0765,0.708
0.1665,0.709
0.2182,0.71
0.1995,0.711
0.1642,0.712
0.105,0.713
0.0285,0.714
-0.0383,0.715
-0.1043,0.716
-0.1006,0.717
-0.0721,0.718
-0.0315,0.719
0.0292,0.72
0.0592,0.721
0.0577,0.722
-0.0135,0.723
-0.1065,0.724
-0.1703,0.725
-0.1478,0.726
-0.0765,0.727
-0.0308,0.728
0.027,0.729
0.063,0.73
0.054,0.731
0.0532,0.732
0.0712,0.733
0.078,0.734
0.1012,0.735
0.1095,0.736
0.102,0.737
0.1102,0.738
0.1125,0.739
0.0967,0.74
0.0667,0.741
0.0465,0.742
-0.012,0.743
-0.0743,0.744
-0.12,0.745
-0.1365,0.746
-0.1275,0.747
-0.1253,0.748
-0.1148,0.749
-0.1635,0.75
-0.1958,0.751
-0.1043,0.752
0.0255,0.753
0.0915,0.754
0.1087,0.755
0.1312,0.756
0.1612,0.757
0.1665,0.758
0.1072,0.759
0.0007,0.76
-0.0503,0.761
-0.0285,0.762
-0.0165,0.763
-0.0143,0.764
0.0,0.765
0.0007,0.766
-0.0278,0.767
-0.0518,0.768
-0.075,0.769
-0.093,0.77
-0.0638,0.771
-0.0263,0.772
0.0082,0.773
0.0135,0.774
-0.0233,0.775
-0.0368,0.776
-0.0525,0.777
-0.0615,0.778
-0.0706,0.779
-0.1155,0.78
-0.177,0.781
-0.159,0.782
-0.039,0.783
0.051,0.784
0.1747,0.785
0.2902,0.786
0.333,0.787
0.342,0.788
0.267,0.789
0.1545,0.79
0.0495,0.791
0.0045,0.792
-0.0428,0.793
-0.1155,0.794
-0.1441,0.795
-0.1441,0.796
-0.108,0.797
-0.0945,0.798
-0.1283,0.799
-0.156,0.8
-0.1628,0.801
-0.156,0.802
-0.075,0.803
0.0495,0.804
0.075,0.805
0.0517,0.806
0.0645,0.807
0.0577,0.808
0.0952,0.809
0.1402,0.81
0.0877,0.811
0.0495,0.812
0.0345,0.813
0.054,0.814
0.0772,0.815
0.0487,0.816
0.003,0.817
-0.0773,0.818
-0.1133,0.819
-0.1426,0.82
-0.159,0.821
-0.1373,0.822
-0.1043,0.823
-0.039,0.824
0.0225,0.825
0.0787,0.826
0.102,0.827
0.1155,0.828
0.096,0.829
0.069,0.83
0.0675,0.831
0.042,0.832
0.0405,0.833
0.021,0.834
-0.0518,0.835
-0.108,0.836
-0.1095,0.837
-0.1043,0.838
-0.0668,0.839
-0.0068,0.84
-0.0278,0.841
-0.0615,0.842
-0.0428,0.843
-0.06,0.844
-0.1028,0.845
-0.1095,0.846
-0.108,0.847
-0.0623,0.848
-0.0053,0.849
0.057,0.85
0.1477,0.851
0.24,0.852
0.2782,0.853
0.2557,0.854
0.2287,0.855
0.1687,0.856
0.1252,0.857
0.063,0.858
-0.0105,0.859
-0.0428,0.86
-0.0593,0.861
-0.0293,0.862
-0.0225,0.863
-0.0473,0.864
-0.1073,0.865
-0.1808,0.866
-0.2235,0.867
-0.2625,0.868
-0.2595,0.869
-0.1868,0.87
-0.0953,0.871
-0.0143,0.872
0.0742,0.873
0.0907,0.874
0.0465,0.875
0.0277,0.876
0.024,0.877
0.0142,0.878
0.027,0.879
0.0877,0.88
0.1305,0.881
0.1012,0.882
0.0997,0.883
0.12,0.884
0.1042,0.885
0.0862,0.886
0.0352,0.887
-0.0046,0.888
-0.0165,0.889
-0.0293,0.89
-0.063,0.891
-0.0735,0.892
-0.0436,0.893
-0.0953,0.894
-0.1403,0.895
-0.1688,0.896
-0.1973,0.897
-0.1373,0.898
-0.0668,0.899
0.0217,0.9
0.0712,0.901
0.102,0.902
0.1327,0.903
0.111,0.904
0.0667,0.905
0.018,0.906
-0.0383,0.907
-0.0803,0.908
-0.0323,0.909
0.0577,0.91
0.1312,0.911
0.1605,0.912
0.2055,0.913
0.2145,0.914
0.1297,0.915
0.0675,0.916
0.0195,0.917
-0.0405,0.918
-0.0856,0.919
-0.1088,0.92
-0.1223,0.921
-0.0818,0.922
-0.075,0.923
-0.0893,0.924
-0.0825,0.925
-0.1006,0.926
-0.1335,0.927
-0.1778,0.928
-0.1643,0.929
-0.1118,0.93
-0.0091,0.931
0.0892,0.932
0.1687,0.933
0.2175,0.934
0.1995,0.935
0.2032,0.936
0.1627,0.937
0.075,0.938
0.0157,0.939
-0.015,0.94
-0.0615,0.941
-0.0953,0.942
-0.09,0.943
-0.0856,0.944
-0.0683,0.945
-0.0593,0.946
-0.0765,0.947
-0.1148,0.948
-0.0856,0.949
-0.0091,0.95
0.024,0.951
0.0427,0.952
0.0052,0.953
-0.0856,0.954
-0.1545,0.955
-0.1763,0.956
-0.1088,0.957
0.0442,0.958
0.1612,0.959
0.192,0.96
0.1612,0.961
0.1162,0.962
0.0765,0.963
0.0157,0.964
-0.0315,0.965
-0.0555,0.966
-0.042,0.967
-0.0225,0.968
0.0255,0.969
0.0862,0.97
0.0862,0.971
0.033,0.972
-0.024,0.973
-0.0728,0.974
-0.0923,0.975
-0.0856,0.976
-0.081,0.977
-0.0706,0.978
-0.0668,0.979
-0.0315,0.98
-0.0165,0.981
0.0022,0.982
0.0142,0.983
-0.0518,0.984
-0.0473,0.985
0.0772,0.986
0.1537,0.987
0.2122,0.988
0.2722,0.989
0.2265,0.99
0.174,0.991
0.0787,0.992
-0.042,0.993
-0.075,0.994
-0.105,0.995
-0.2018,0.996
-0.2761,0.997
-0.216,0.998
-0.1095,0.999
-0.003,1.0
0.0877,1.001
0.0675,1.002
-0.0165,1.003
-0.054,1.004
-0.0825,1.005
-0.0871,1.006
-0.0165,1.007
0.0517,1.008
0.1125,1.009
0.129,1.01
0.1425,1.011
0.129,1.012
0.0825,1.013
0.102,1.014
0.0795,1.015
0.0255,1.016
-0.0361,1.017
-0.0743,1.018
-0.063,1.019
-0.0721,1.02
-0.0548,1.021
-0.027,1.022
-0.0135,1.023
-0.021,1.024
-0.063,1.025
-0.09,1.026
-0.1103,1.027
-0.0953,1.028
-0.0495,1.029
-0.0075,1.03
0.0495,1.031
0.069,1.032
0.012,1.033
-0.0413,1.034
-0.1095,1.035
-0.2445,1.036
-0.2288,1.037
-0.1328,1.038
-0.0105,1.039
0.1695,1.04
0.2452,1.041
0.2887,1.042
0.2685,1.043
0.2055,1.044
0.1282,1.045
0.0292,1.046
-0.0323,1.047
-0.0555,1.048
-0.054,1.049
-0.06,1.05
-0.0825,1.051
-0.1613,1.052
-0.225,1.053
-0.216,1.054
-0.1313,1.055
-0.0338,1.056
0.0127,1.057
-0.0173,1.058
-0.1215,1.059
-0.1193,1.06
0.0195,1.061
0.1207,1.062
0.2212,1.063
0.3292,1.064
0.3315,1.065
0.2985,1.066
0.2212,1.067
0.1335,1.068
0.0772,1.069
-0.0105,1.07
-0.0608,1.071
-0.0511,1.072
-0.0511,1.073
-0.0765,1.074
-0.1193,1.075
-0.1508,1.076
-0.1515,1.077
-0.1433,1.078
-0.1065,1.079
-0.0511,1.08
0.009,1.081
0.0532,1.082
0.0412,1.083
0.015,1.084
-0.0128,1.085
-0.0368,1.086
-0.0405,1.087
-0.0293,1.088
-0.0195,1.089
-0.0428,1.09
-0.0975,1.091
-0.1673,1.092
-0.1958,1.093
-0.1478,1.094
-0.0743,1.095
0.0217,1.096
0.1005,1.097
0.1102,1.098
0.0937,1.099
0.099,1.1
0.0825,1.101
0.0517,1.102
0.0375,1.103
0.0495,1.104
0.0592,1.105
-0.0091,1.106
-0.0405,1.107
-0.0008,1.108
0.0532,1.109
0.0712,1.11
0.0892,1.111
0.1042,1.112
0.0705,1.113
0.045,1.114
0.0037,1.115
-0.0113,1.116
-0.0233,1.117
-0.0728,1.118
-0.0788,1.119
-0.0713,1.12
-0.0915,1.121
-0.1133,1.122
-0.0878,1.123
-0.0278,1.124
-0.0218,1.125
-0.0713,1.126
-0.0975,1.127
-0.0818,1.128
-0.0203,1.129
0.0645,1.13
0.1155,1.131
0.1387,1.132
0.1695,1.133
0.1807,1.134
0.1275,1.135
0.0517,1.136
0.0067,1.137
0.0015,1.138
-0.012,1.139
-0.0346,1.14
-0.0315,1.141
-0.042,1.142
-0.0428,1.143
-0.0353,1.144
-0.0383,1.145
-0.0533,1.146
-0.1028,1.147
-0.1088,1.148
-0.0645,1.149
-0.0413,1.15
-0.021,1.151
0.003,1.152
0.0082,1.153
-0.0068,1.154
-0.0233,1.155
-0.0443,1.156
-0.0165,1.157
0.057,1.158
0.0945,1.159
0.126,1.16
0.141,1.161
0.1147,1.162
0.0832,1.163
0.0607,1.164
0.0217,1.165
-0.0053,1.166
0.0172,1.167
-0.0128,1.168
-0.063,1.169
-0.0953,1.17
-0.1665,1.171
-0.21,1.172
-0.1545,1.173
-0.0488,1.174
0.03,1.175
0.072,1.176
0.0345,1.177
-0.0533,1.178
-0.1448,1.179
-0.1741,1.18
-0.1073,1.181
-0.0046,1.182
0.0967,1.183
0.1605,1.184
0.1852,1.185
0.1837,1.186
0.18,1.187
0.1605,1.188
0.132,1.189
0.0937,1.19
0.0525,1.191
0.024,1.192
-0.0173,1.193
-0.0495,1.194
-0.0706,1.195
-0.0691,1.196
-0.0675,1.197
-0.0713,1.198
-0.0735,1.199
-0.0863,1.2
-0.0938,1.201
-0.0893,1.202
-0.0713,1.203
-0.0353,1.204
-0.0083,1.205
-0.0383,1.206
-0.054,1.207
-0.0293,1.208
-0.0053,1.209
0.003,1.21
0.027,1.211
0.0727,1.212
0.0765,1.213
0.0667,1.214
0.0322,1.215
-0.0308,1.216
-0.0998,1.217
-0.135,1.218
-0.0758,1.219
0.009,1.22
0.0975,1.221
0.1552,1.222
0.1567,1.223
0.1342,1.224
0.0817,1.225
0.0262,1.226
-0.0046,1.227
-0.003,1.228
-0.0413,1.229
-0.0533,1.23
-0.048,1.231
-0.0743,1.232
-0.0728,1.233
-0.0405,1.234
0.0127,1.235
0.033,1.236
-0.012,1.237
-0.0968,1.238
-0.0863,1.239
-0.0195,1.24
0.0262,1.241
0.0945,1.242
0.1125,1.243
0.084,1.244
0.036,1.245
-0.0195,1.246
-0.0615,1.247
-0.0615,1.248
-0.0615,1.249
-0.075,1.25
-0.0638,1.251
-0.0465,1.252
-0.0165,1.253
0.0135,1.254
0.024,1.255
0.0337,1.256
0.0765,1.257
0.0787,1.258
0.0195,1.259
0.0075,1.26
0.0232,1.261
0.0412,1.262
0.0547,1.263
0.0307,1.264
0.0052,1.265
-0.0113,1.266
-0.0315,1.267
-0.0458,1.268
-0.0511,1.269
-0.0473,1.27
-0.039,1.271
-0.0398,1.272
-0.0915,1.273
-0.12,1.274
-0.0593,1.275
-0.0008,1.276
0.0667,1.277
0.1065,1.278
0.0787,1.279
0.0367,1.28
-0.003,1.281
-0.0181,1.282
0.0127,1.283
0.0667,1.284
0.0727,1.285
0.078,1.286
0.054,1.287
-0.039,1.288
-0.0893,1.289
-0.0728,1.29
-0.0645,1.291
-0.0443,1.292
-0.0256,1.293
-0.0368,1.294
0.0015,1.295
0.042,1.296
0.0727,1.297
0.1095,1.298
0.1042,1.299
0.0742,1.3
0.0277,1.301
-0.0308,1.302
-0.0511,1.303
-0.0256,1.304
-0.0308,1.305
-0.048,1.306
-0.0405,1.307
-0.0256,1.308
-0.0091,1.309
-0.048,1.31
-0.1118,1.311
-0.135,1.312
-0.1163,1.313
-0.0278,1.314
0.066,1.315
0.126,1.316
0.1402,1.317
0.105,1.318
0.072,1.319
0.018,1.32
-0.0195,1.321
-0.0315,1.322
-0.0615,1.323
-0.0608,1.324
0.0045,1.325
0.0412,1.326
0.03,1.327
0.039,1.328
0.0225,1.329
0.009,1.33
-0.0091,1.331
-0.0533,1.332
-0.0563,1.333
-0.0758,1.334
-0.1103,1.335
-0.0653,1.336
0.0,1.337
0.0562,1.338
0.0862,1.339
0.0562,1.34
0.036,1.341
0.0127,1.342
-0.0203,1.343
-0.0368,1.344
-0.0248,1.345
-0.0143,1.346
-0.0038,1.347
0.0015,1.348
-0.0091,1.349
0.003,1.35
-0.0165,1.351
-0.0315,1.352
-0.0293,1.353
-0.042,1.354
-0.0181,1.355
0.021,1.356
0.0382,1.357
0.0277,1.358
0.009,1.359
0.0157,1.36
0.024,1.361
0.033,1.362
0.0532,1.363
0.0555,1.364
0.0682,1.365
0.087,1.366
0.0427,1.367
0.0105,1.368
-0.0015,1.369
-0.0218,1.37
-0.0218,1.371
-0.0361,1.372
-0.0293,1.373
-0.0285,1.374
-0.0346,1.375
-0.0278,1.376
-0.039,1.377
-0.0383,1.378
-0.0428,1.379
-0.048,1.38
-0.0653,1.381
-0.0743,1.382
-0.063,1.383
-0.042,1.384
-0.0053,1.385
0.0052,1.386
0.0105,1.387
0.0247,1.388
0.0142,1.389
-0.0158,1.39
-0.024,1.391
0.0112,1.392
0.0592,1.393
0.1027,1.394
0.1275,1.395
0.1162,1.396
0.093,1.397
0.0487,1.398
0.0187,1.399
0.0225,1.4
0.0135,1.401
-0.0165,1.402
-0.039,1.403
-0.0413,1.404
-0.0511,1.405
-0.0465,1.406
-0.0473,1.407
-0.0346,1.408
-0.0038,1.409
-0.003,1.41
-0.0256,1.411
-0.0413,1.412
-0.0368,1.413
-0.0353,1.414
-0.0195,1.415
-0.0023,1.416
0.0052,1.417
0.012,1.418
0.0135,1.419
0.0165,1.42
-0.0038,1.421
-0.0623,1.422
-0.117,1.423
-0.0758,1.424
-0.003,1.425
0.0532,1.426
0.1005,1.427
0.093,1.428
0.1035,1.429
0.1012,1.43
0.0517,1.431
0.0067,1.432
-0.0203,1.433
-0.0338,1.434
-0.0503,1.435
-0.0675,1.436
-0.0765,1.437
-0.0691,1.438
-0.075,1.439
-0.0555,1.44
-0.0218,1.441
0.0015,1.442
0.0667,1.443
0.123,1.444
0.135,1.445
0.126,1.446
0.0577,1.447
-0.0181,1.448
-0.0443,1.449
-0.054,1.45
-0.054,1.451
-0.027,1.452
0.0007,1.453
0.0052,1.454
0.012,1.455
0.009,1.456
0.0,1.457
-0.003,1.458
-0.015,1.459
-0.0181,1.46
-0.0346,1.461
-0.0443,1.462
-0.0405,1.463
-0.0353,1.464
-0.0233,1.465
-0.0181,1.466
0.0112,1.467
0.0165,1.468
0.0142,1.469
0.0105,1.47
-0.0098,1.471
0.009,1.472
0.0195,1.473
0.015,1.474
0.024,1.475
0.0397,1.476
0.0457,1.477
0.0457,1.478
0.0292,1.479
0.0,1.48
-0.0091,1.481
-0.0256,1.482
-0.0465,1.483
-0.0368,1.484
-0.0098,1.485
-0.0053,1.486
-0.0173,1.487
-0.0443,1.488
-0.0728,1.489
-0.0653,1.49
-0.042,1.491
-0.0053,1.492
0.0315,1.493
0.0375,1.494
0.021,1.495
0.0082,1.496
0.0045,1.497
0.0202,1.498
0.0277,1.499
0.0322,1.5
0.0502,1.501
0.0345,1.502
0.0105,1.503
-0.0008,1.504
-0.0091,1.505
-0.0143,1.506
-0.0113,1.507
-0.0023,1.508
-0.012,1.509
-0.0233,1.51
-0.054,1.511
-0.075,1.512
-0.0555,1.513
-0.0353,1.514
0.0045,1.515
0.0495,1.516
0.081,1.517
0.0967,1.518
0.0697,1.519
0.0322,1.52
-0.0233,1.521
-0.0825,1.522
-0.1245,1.523
-0.132,1.524
-0.0691,1.525
0.021,1.526
0.0855,1.527
0.1245,1.528
0.1252,1.529
0.0937,1.53
0.048,1.531
0.0105,1.532
-0.0256,1.533
-0.0383,1.534
-0.0323,1.535
-0.0375,1.536
-0.0405,1.537
-0.0578,1.538
-0.048,1.539
-0.0218,1.54
-0.0008,1.541
0.0225,1.542
0.0232,1.543
0.0255,1.544
0.015,1.545
0.0142,1.546
0.0345,1.547
0.0285,1.548
0.0292,1.549
0.0105,1.55
-0.0158,1.551
-0.0195,1.552
-0.0413,1.553
-0.066,1.554
-0.0856,1.555
-0.0818,1.556
-0.0458,1.557
-0.0128,1.558
0.003,1.559
0.0105,1.56
0.024,1.561
0.0202,1.562
-0.0053,1.563
-0.0091,1.564
0.0067,1.565
0.0075,1.566
0.027,1.567
0.048,1.568
0.0397,1.569
0.0382,1.57
0.0502,1.571
0.0517,1.572
0.033,1.573
0.0307,1.574
0.0157,1.575
-0.0053,1.576
-0.0181,1.577
-0.039,1.578
-0.0188,1.579
-0.0023,1.58
-0.027,1.581
-0.0285,1.582
-0.0015,1.583
0.0045,1.584
-0.015,1.585
-0.0315,1.586
-0.0353,1.587
-0.0195,1.588
-0.0046,1.589
-0.0165,1.59
-0.078,1.591
-0.1006,1.592
-0.042,1.593
0.018,1.594
0.0727,1.595
0.1095,1.596
0.0712,1.597
0.006,1.598
0.0022,1.599
0.0285,1.6
0.0652,1.601
0.1207,1.602
0.1267,1.603
0.0652,1.604
-0.0203,1.605
-0.075,1.606
-0.1013,1.607
-0.1028,1.608
-0.0803,1.609
-0.0713,1.61
-0.0436,1.611
0.0015,1.612
0.0247,1.613
0.0255,1.614
0.0022,1.615
0.0022,1.616
0.0165,1.617
0.021,1.618
0.027,1.619
0.018,1.62
0.003,1.621
-0.012,1.622
-0.0143,1.623
-0.0173,1.624
-0.0218,1.625
-0.015,1.626
-0.0091,1.627
0.0015,1.628
-0.0068,1.629
-0.0511,1.63
-0.0803,1.631
-0.048,1.632
-0.0173,1.633
-0.0075,1.634
-0.0091,1.635
-0.0195,1.636
0.0082,1.637
0.0292,1.638
0.0367,1.639
0.0337,1.64
0.033,1.641
0.0307,1.642
0.018,1.643
0.027,1.644
0.0367,1.645
0.042,1.646
-0.0181,1.647
-0.0608,1.648
-0.0428,1.649
-0.0308,1.65
-0.0015,1.651
0.0495,1.652
0.0892,1.653
0.072,1.654
0.054,1.655
0.0277,1.656
-0.0218,1.657
-0.0525,1.658
-0.057,1.659
-0.03,1.66
-0.0098,1.661
-0.006,1.662
0.0007,1.663
0.0232,1.664
0.012,1.665
-0.0263,1.666
-0.0413,1.667
-0.0346,1.668
-0.0165,1.669
-0.0135,1.67
-0.0128,1.671
-0.0143,1.672
-0.0008,1.673
0.0135,1.674
0.0112,1.675
0.0022,1.676
0.0052,1.677
0.0202,1.678
0.0,1.679
-0.0158,1.68
-0.0105,1.681
-0.0053,1.682
0.012,1.683
0.0345,1.684
0.018,1.685
-0.015,1.686
-0.012,1.687
-0.0135,1.688
0.0037,1.689
0.0382,1.69
0.0307,1.691
0.012,1.692
0.0157,1.693
0.0232,1.694
0.0187,1.695
0.009,1.696
0.0,1.697
-0.0143,1.698
-0.015,1.699
-0.0068,1.7
-0.0128,1.701
-0.0188,1.702
-0.0368,1.703
-0.045,1.704
-0.0308,1.705
-0.021,1.706
-0.0173,1.707
-0.0015,1.708
0.0067,1.709
-0.0278,1.71
-0.0495,1.711
-0.0428,1.712
-0.0443,1.713
-0.0555,1.714
-0.0233,1.715
0.0525,1.716
0.096,1.717
0.1125,1.718
0.1057,1.719
0.0697,1.72
0.0315,1.721
-0.0128,1.722
-0.0585,1.723
-0.0645,1.724
-0.0323,1.725
-0.0233,1.726
-0.0428,1.727
-0.0533,1.728
-0.024,1.729
0.0127,1.73
0.0525,1.731
0.0675,1.732
0.0442,1.733
0.0345,1.734
0.0067,1.735
-0.0128,1.736
0.0052,1.737
0.0097,1.738
-0.0053,1.739
0.0067,1.74
0.009,1.741
-0.012,1.742
-0.027,1.743
-0.0308,1.744
-0.0098,1.745
-0.003,1.746
-0.0195,1.747
-0.012,1.748
0.0097,1.749
0.0292,1.75
0.042,1.751
0.0382,1.752
0.0225,1.753
-0.0046,1.754
-0.0315,1.755
-0.0503,1.756
-0.0653,1.757
-0.0668,1.758
-0.0638,1.759
-0.066,1.76
-0.0645,1.761
-0.0428,1.762
-0.0053,1.763
0.0375,1.764
0.0817,1.765
0.0922,1.766
0.0787,1.767
0.0487,1.768
-0.0083,1.769
-0.0278,1.77
-0.0128,1.771
-0.003,1.772
0.0015,1.773
-0.0015,1.774
0.0022,1.775
0.0157,1.776
0.0232,1.777
0.0195,1.778
-0.0195,1.779
-0.0436,1.78
-0.0105,1.781
0.0255,1.782
0.0405,1.783
0.0157,1.784
-0.0091,1.785
-0.0248,1.786
-0.057,1.787
-0.0713,1.788
-0.0683,1.789
-0.0413,1.79
0.0105,1.791
0.0825,1.792
0.1305,1.793
0.123,1.794
0.072,1.795
0.0015,1.796
-0.0188,1.797
0.003,1.798
0.0045,1.799
-0.024,1.8
-0.0525,1.801
-0.0555,1.802
-0.0608,1.803
-0.0555,1.804
-0.0256,1.805
-0.0015,1.806
0.0165,1.807
0.024,1.808
0.0307,1.809
0.0465,1.81
0.0195,1.811
-0.0338,1.812
-0.0608,1.813
-0.0555,1.814
-0.0308,1.815
-0.0091,1.816
0.0157,1.817
0.0435,1.818
0.0495,1.819
0.024,1.82
-0.0038,1.821
-0.0278,1.822
-0.0368,1.823
-0.0285,1.824
-0.0248,1.825
-0.0458,1.826
-0.078,1.827
-0.042,1.828
0.009,1.829
0.0412,1.83
0.0772,1.831
0.0705,1.832
0.048,1.833
0.0277,1.834
0.0075,1.835
-0.0091,1.836
-0.0008,1.837
0.0045,1.838
-0.0105,1.839
-0.0098,1.84
-0.0091,1.841
-0.0068,1.842
-0.012,1.843
-0.0143,1.844
-0.003,1.845
0.0037,1.846
0.0015,1.847
-0.003,1.848
-0.0105,1.849
-0.0135,1.85
-0.0128,1.851
-0.0405,1.852
-0.0878,1.853
-0.0953,1.854
-0.0503,1.855
0.0075,1.856
0.0622,1.857
0.0915,1.858
0.0817,1.859
0.054,1.86
-0.0128,1.861
-0.1125,1.862
-0.1223,1.863
-0.048,1.864
0.0165,1.865
0.0997,1.866
0.147,1.867
0.1515,1.868
0.1237,1.869
0.0645,1.87
0.0195,1.871
-0.0046,1.872
-0.015,1.873
-0.0256,1.874
-0.0346,1.875
-0.0645,1.876
-0.0788,1.877
-0.0728,1.878
-0.0721,1.879
-0.042,1.88
-0.0135,1.881
0.0172,1.882
0.0307,1.883
0.0142,1.884
-0.0053,1.885
-0.033,1.886
-0.0555,1.887
-0.0368,1.888
0.0082,1.889
0.0255,1.89
0.0547,1.891
0.0592,1.892
0.0337,1.893
0.0067,1.894
-0.0195,1.895
-0.0158,1.896
0.0045,1.897
0.0232,1.898
-0.0015,1.899
-0.0203,1.9
-0.0008,1.901
0.0292,1.902
0.0397,1.903
0.0217,1.904
0.012,1.905
0.0172,1.906
0.0022,1.907
-0.03,1.908
-0.048,1.909
-0.0795,1.91
-0.1006,1.911
-0.0691,1.912
-0.0308,1.913
0.0015,1.914
0.0367,1.915
0.0652,1.916
0.0645,1.917
0.039,1.918
0.0217,1.919
0.0157,1.92
0.012,1.921
0.0052,1.922
0.0045,1.923
0.0157,1.924
0.0052,1.925
-0.0218,1.926
-0.0368,1.927
-0.027,1.928
-0.0128,1.929
-0.0203,1.93
-0.0405,1.931
-0.039,1.932
-0.0173,1.933
0.0015,1.934
0.0255,1.935
0.039,1.936
0.0427,1.937
0.0375,1.938
0.0217,1.939
0.009,1.94
-0.024,1.941
-0.0623,1.942
-0.0668,1.943
-0.0503,1.944
-0.0143,1.945
0.0337,1.946
0.0465,1.947
0.0465,1.948
0.039,1.949
-0.0008,1.95
-0.0263,1.951
-0.0383,1.952
-0.054,1.953
-0.042,1.954
-0.024,1.955
0.0112,1.956
0.042,1.957
0.0502,1.958
0.0645,1.959
0.0532,1.96
0.027,1.961
-0.0023,1.962
-0.0263,1.963
-0.03,1.964
-0.0105,1.965
0.0165,1.966
0.024,1.967
0.0232,1.968
0.0292,1.969
0.0165,1.97
-0.0091,1.971
-0.0173,1.972
-0.0278,1.973
-0.0338,1.974
-0.0353,1.975
-0.039,1.976
-0.0405,1.977
-0.039,1.978
-0.0323,1.979
-0.0368,1.98
-0.0413,1.981
-0.0128,1.982
0.024,1.983
0.0412,1.984
0.021,1.985
-0.0233,1.986
-0.042,1.987
-0.0503,1.988
-0.0856,1.989
-0.06,1.99
0.0097,1.991
0.0607,1.992
0.1335,1.993
0.1747,1.994
0.1575,1.995
0.0952,1.996
0.0322,1.997
-0.0105,1.998
-0.063,1.999
-0.1013,2.0
-0.075,2.001
-0.0256,2.002
-0.0068,2.003
0.0337,2.004
0.0457,2.005
0.0352,2.006
0.0157,2.007
-0.0278,2.008
-0.0691,2.009
-0.0795,2.01
-0.0548,2.011
-0.0218,2.012
0.0202,2.013
0.0217,2.014
0.0172,2.015
0.0112,2.016
0.0007,2.017
0.0007,2.018
0.009,2.019
0.0255,2.02
0.0315,2.021
0.0532,2.022
0.0465,2.023
0.0457,2.024
0.0397,2.025
-0.0218,2.026
-0.084,2.027
-0.1178,2.028
-0.1125,2.029
-0.0871,2.03
-0.0428,2.031
0.0075,2.032
0.0517,2.033
0.081,2.034
0.0817,2.035
0.0277,2.036
-0.0405,2.037
-0.0511,2.038
-0.0473,2.039
-0.0338,2.04
0.0022,2.041
0.0292,2.042
0.048,2.043
0.0772,2.044
0.09,2.045
0.066,2.046
0.0412,2.047
0.0232,2.048
-0.003,2.049
-0.0203,2.05
-0.033,2.051
-0.039,2.052
-0.033,2.053
-0.0375,2.054
-0.0346,2.055
-0.024,2.056
-0.0128,2.057
-0.0105,2.058
-0.0218,2.059
-0.0256,2.06
-0.0256,2.061
-0.0256,2.062
-0.0278,2.063
-0.0293,2.064
-0.0278,2.065
-0.0256,2.066
-0.0135,2.067
0.0015,2.068
0.0075,2.069
-0.0023,2.07
-0.0053,2.071
0.0105,2.072
0.0187,2.073
0.024,2.074
0.036,2.075
0.0442,2.076
0.0465,2.077
0.0442,2.078
0.036,2.079
0.018,2.08
-0.0046,2.081
-0.0135,2.082
-0.0203,2.083
-0.0105,2.084
-0.003,2.085
-0.012,2.086
-0.0181,2.087
-0.0203,2.088
-0.0143,2.089
-0.021,2.09
-0.0278,2.091
-0.0218,2.092
-0.0143,2.093
0.009,2.094
0.0397,2.095
0.0472,2.096
0.048,2.097
0.0375,2.098
-0.0046,2.099
-0.0436,2.1
-0.0653,2.101
-0.078,2.102
-0.0473,2.103
-0.0143,2.104
0.0052,2.105
0.0457,2.106
0.0585,2.107
0.0517,2.108
0.0285,2.109
-0.0008,2.11
-0.0218,2.111
-0.0525,2.112
-0.0765,2.113
-0.0706,2.114
-0.033,2.115
0.009,2.116
0.0457,2.117
0.066,2.118
0.069,2.119
0.063,2.12
0.0525,2.121
0.0442,2.122
0.0315,2.123
0.0292,2.124
0.0292,2.125
0.0135,2.126
-0.0203,2.127
-0.084,2.128
-0.1058,2.129
-0.0788,2.13
-0.0413,2.131
0.0187,2.132
0.063,2.133
0.0937,2.134
0.1005,2.135
0.0645,2.136
0.0187,2.137
-0.0135,2.138
-0.0346,2.139
-0.0503,2.14
-0.0878,2.141
-0.1178,2.142
-0.0818,2.143
-0.0428,2.144
-0.0128,2.145
0.0165,2.146
0.0067,2.147
-0.0023,2.148
-0.015,2.149
-0.0323,2.15
-0.0308,2.151
-0.0038,2.152
0.024,2.153
0.0472,2.154
0.0592,2.155
0.0382,2.156
0.0135,2.157
-0.0195,2.158
-0.0668,2.159
-0.0691,2.16
-0.0173,2.161
0.0367,2.162
0.084,2.163
0.114,2.164
0.1117,2.165
0.0682,2.166
0.0172,2.167
-0.0015,2.168
-0.0225,2.169
-0.0511,2.17
-0.0555,2.171
-0.0368,2.172
-0.0165,2.173
0.0075,2.174
0.0142,2.175
-0.0046,2.176
-0.0285,2.177
-0.0428,2.178
-0.0578,2.179
-0.0788,2.18
-0.045,2.181
0.0105,2.182
0.0412,2.183
0.0772,2.184
0.096,2.185
0.0802,2.186
0.0457,2.187
0.012,2.188
-0.0188,2.189
-0.0555,2.19
-0.081,2.191
-0.0675,2.192
-0.0405,2.193
-0.0248,2.194
0.0022,2.195
0.0217,2.196
0.0352,2.197
0.033,2.198
0.0202,2.199
0.0052,2.2
-0.0195,2.201
-0.027,2.202
-0.0368,2.203
-0.0338,2.204
-0.0173,2.205
-0.012,2.206
-0.012,2.207
-0.0368,2.208
-0.0443,2.209
-0.0293,2.21
-0.0068,2.211
0.0322,2.212
0.0487,2.213
0.057,2.214
0.0562,2.215
0.0382,2.216
0.0067,2.217
-0.0105,2.218
-0.0165,2.219
-0.024,2.22
-0.024,2.221
-0.0143,2.222
0.0157,2.223
0.0232,2.224
0.0262,2.225
0.0427,2.226
0.0495,2.227
0.039,2.228
0.0127,2.229
-0.0053,2.23
-0.027,2.231
-0.042,2.232
-0.0353,2.233
-0.0188,2.234
-0.0008,2.235
-0.003,2.236
-0.0165,2.237
-0.0143,2.238
-0.006,2.239
0.0,2.24
0.0067,2.241
0.0022,2.242
-0.0008,2.243
-0.003,2.244
-0.012,2.245
-0.0083,2.246
-0.0068,2.247
-0.0105,2.248
-0.0091,2.249
-0.0046,2.25
-0.0023,2.251
-0.006,2.252
0.0052,2.253
0.0165,2.254
0.0052,2.255
-0.003,2.256
0.0142,2.257
0.0187,2.258
-0.0015,2.259
-0.0038,2.26
0.0,2.261
0.0082,2.262
0.0165,2.263
0.0157,2.264
-0.0038,2.265
-0.0195,2.266
-0.0158,2.267
-0.0203,2.268
-0.0143,2.269
-0.003,2.27
0.0015,2.271
-0.0105,2.272
-0.03,2.273
-0.033,2.274
-0.0338,2.275
-0.0256,2.276
-0.0105,2.277
0.0045,2.278
0.018,2.279
0.0322,2.28
0.0277,2.281
0.012,2.282
0.0015,2.283
0.0015,2.284
0.0067,2.285
0.018,2.286
0.0352,2.287
0.0285,2.288
0.0202,2.289
0.015,2.29
0.012,2.291
0.0052,2.292
-0.024,2.293
-0.06,2.294
-0.0848,2.295
-0.1103,2.296
-0.1441,2.297
-0.1088,2.298
-0.0308,2.299
0.0375,2.3
0.0877,2.301
0.09,2.302
0.0885,2.303
0.0937,2.304
0.0915,2.305
0.0967,2.306
0.111,2.307
0.0915,2.308
0.048,2.309
0.0165,2.31
-0.0015,2.311
-0.0338,2.312
-0.0825,2.313
-0.1163,2.314
-0.1118,2.315
-0.0803,2.316
-0.081,2.317
-0.0675,2.318
-0.0053,2.319
0.0465,2.32
0.0652,2.321
0.0592,2.322
0.0375,2.323
0.0202,2.324
-0.0053,2.325
-0.0165,2.326
-0.0053,2.327
0.012,2.328
0.0397,2.329
0.033,2.33
0.024,2.331
0.0097,2.332
-0.0068,2.333
-0.012,2.334
-0.024,2.335
-0.0195,2.336
-0.0195,2.337
-0.0105,2.338
-0.0105,2.339
-0.0173,2.34
-0.0135,2.341
-0.0195,2.342
-0.0256,2.343
-0.042,2.344
-0.0525,2.345
-0.0465,2.346
-0.0278,2.347
-0.0233,2.348
-0.0218,2.349
-0.0135,2.35
-0.0105,2.351
0.009,2.352
0.027,2.353
0.0375,2.354
0.0442,2.355
0.0405,2.356
0.0217,2.357
-0.0233,2.358
-0.0503,2.359
-0.0428,2.36
-0.0368,2.361
-0.0203,2.362
0.0045,2.363
0.0187,2.364
0.0405,2.365
0.0577,2.366
0.0712,2.367
0.0742,2.368
0.0615,2.369
0.0397,2.37
0.0075,2.371
-0.0053,2.372
-0.003,2.373
0.0015,2.374
0.0015,2.375
-0.0128,2.376
-0.0218,2.377
-0.021,2.378
-0.0218,2.379
-0.0173,2.38
-0.0181,2.381
-0.0256,2.382
-0.0308,2.383
-0.0436,2.384
-0.0458,2.385
-0.033,2.386
-0.0346,2.387
-0.0315,2.388
-0.0091,2.389
0.0187,2.39
0.0202,2.391
-0.0075,2.392
-0.039,2.393
-0.0428,2.394
-0.03,2.395
-0.0113,2.396
0.0442,2.397
0.0862,2.398
0.0975,2.399
0.093,2.4
0.06,2.401
0.024,2.402
0.006,2.403
0.012,2.404
0.0022,2.405
-0.012,2.406
-0.0053,2.407
-0.0015,2.408
0.0015,2.409
0.0015,2.41
-0.0075,2.411
-0.0233,2.412
-0.0285,2.413
-0.0218,2.414
-0.0105,2.415
0.0015,2.416
0.0082,2.417
0.0127,2.418
0.012,2.419
0.0045,2.42
-0.0105,2.421
-0.0181,2.422
-0.0143,2.423
-0.0105,2.424
-0.0015,2.425
-0.0068,2.426
-0.0315,2.427
-0.0615,2.428
-0.0743,2.429
-0.0713,2.43
-0.0548,2.431
-0.0256,2.432
0.009,2.433
0.0502,2.434
0.069,2.435
0.0735,2.436
0.0637,2.437
0.057,2.438
0.0427,2.439
0.009,2.44
-0.003,2.441
-0.0173,2.442
-0.0218,2.443
-0.0233,2.444
-0.024,2.445
-0.0143,2.446
-0.012,2.447
-0.0128,2.448
-0.0195,2.449
-0.0218,2.45
-0.0181,2.451
-0.0233,2.452
-0.0428,2.453
-0.0428,2.454
-0.027,2.455
-0.024,2.456
-0.0248,2.457
-0.048,2.458
-0.0533,2.459
-0.0181,2.46
0.0217,2.461
0.0675,2.462
0.108,2.463
0.1365,2.464
0.129,2.465
0.0945,2.466
0.0675,2.467
0.0315,2.468
0.012,2.469
-0.0038,2.47
-0.0203,2.471
-0.027,2.472
-0.0368,2.473
-0.0405,2.474
-0.0465,2.475
-0.0465,2.476
-0.039,2.477
-0.027,2.478
-0.0188,2.479
-0.0225,2.48
-0.0218,2.481
-0.021,2.482
-0.0233,2.483
-0.027,2.484
-0.0181,2.485
-0.0023,2.486
0.0045,2.487
0.0157,2.488
0.0315,2.489
0.0345,2.49
0.018,2.491
0.0022,2.492
0.003,2.493
0.0007,2.494
0.0037,2.495
0.0015,2.496
-0.0068,2.497
-0.012,2.498
-0.0165,2.499
-0.0173,2.5
-0.0256,2.501
-0.0293,2.502
-0.024,2.503
-0.0195,2.504
-0.0091,2.505
0.0015,2.506
0.015,2.507
0.0157,2.508
0.015,2.509
0.009,2.51
-0.0105,2.511
-0.03,2.512
-0.054,2.513
-0.0615,2.514
-0.0315,2.515
0.0082,2.516
0.0607,2.517
0.099,2.518
0.105,2.519
0.102,2.52
0.0652,2.521
-0.0046,2.522
-0.0458,2.523
-0.039,2.524
-0.039,2.525
-0.042,2.526
-0.021,2.527
-0.0181,2.528
-0.024,2.529
-0.0195,2.53
-0.0098,2.531
0.0015,2.532
0.0,2.533
-0.0053,2.534
-0.0046,2.535
-0.003,2.536
-0.0008,2.537
0.0105,2.538
0.0045,2.539
-0.012,2.54
-0.0083,2.541
0.0015,2.542
0.0157,2.543
0.0217,2.544
0.033,2.545
0.057,2.546
0.0532,2.547
0.0382,2.548
0.0165,2.549
-0.0143,2.55
-0.0225,2.551
-0.012,2.552
-0.006,2.553
-0.0068,2.554
-0.0091,2.555
-0.012,2.556
-0.0233,2.557
-0.0361,2.558
-0.0443,2.559
-0.0473,2.56
-0.0323,2.561
-0.0135,2.562
0.0037,2.563
0.0142,2.564
0.0202,2.565
0.0202,2.566
0.0112,2.567
-0.003,2.568
-0.0181,2.569
-0.0075,2.57
0.009,2.571
0.0127,2.572
0.0075,2.573
0.0,2.574
-0.0053,2.575
-0.0181,2.576
-0.0165,2.577
-0.0128,2.578
-0.0098,2.579
0.0007,2.58
0.0037,2.581
0.0052,2.582
0.0105,2.583
0.0067,2.584
-0.0046,2.585
-0.0188,2.586
-0.0225,2.587
-0.0098,2.588
-0.0015,2.589
-0.0015,2.59
-0.0015,2.591
0.003,2.592
0.015,2.593
0.0255,2.594
0.0255,2.595
0.0075,2.596
-0.0098,2.597
-0.0143,2.598
-0.0083,2.599
0.0015,2.6
0.0105,2.601
0.0217,2.602
0.027,2.603
0.0225,2.604
0.015,2.605
-0.0046,2.606
-0.0293,2.607
-0.0383,2.608
-0.039,2.609
-0.0293,2.61
-0.0128,2.611
-0.0015,2.612
0.0165,2.613
0.0232,2.614
0.0217,2.615
0.018,2.616
-0.0038,2.617
-0.03,2.618
-0.0375,2.619
-0.0143,2.62
-0.003,2.621
-0.0068,2.622
0.0052,2.623
0.0217,2.624
0.0375,2.625
0.0487,2.626
0.0607,2.627
0.0517,2.628
0.0187,2.629
-0.0068,2.63
-0.0195,2.631
-0.006,2.632
0.0045,2.633
-0.0075,2.634
-0.0135,2.635
-0.0135,2.636
-0.0233,2.637
-0.0263,2.638
-0.027,2.639
-0.0315,2.64
-0.0315,2.641
-0.0323,2.642
-0.0158,2.643
0.0015,2.644
0.0142,2.645
0.033,2.646
0.0345,2.647
0.036,2.648
0.0345,2.649
0.0105,2.65
-0.0195,2.651
-0.021,2.652
-0.0113,2.653
-0.0128,2.654
-0.0083,2.655
-0.0113,2.656
-0.0113,2.657
-0.0091,2.658
-0.0113,2.659
-0.0083,2.66
-0.0053,2.661
-0.0046,2.662
-0.0068,2.663
-0.0083,2.664
-0.0075,2.665
0.0007,2.666
0.0052,2.667
0.0007,2.668
-0.0053,2.669
-0.0038,2.67
-0.0015,2.671
-0.0068,2.672
-0.0053,2.673
-0.0008,2.674
0.0,2.675
-0.0015,2.676
0.0022,2.677
0.0082,2.678
0.0007,2.679
-0.0046,2.68
0.0037,2.681
0.018,2.682
0.0142,2.683
0.0067,2.684
0.006,2.685
0.0052,2.686
0.0082,2.687
0.0067,2.688
0.0007,2.689
-0.0038,2.69
-0.0053,2.691
-0.0008,2.692
0.0007,2.693
0.0007,2.694
-0.0008,2.695
-0.0015,2.696
0.003,2.697
0.0022,2.698
0.0015,2.699
-0.0015,2.7
-0.006,2.701
-0.0083,2.702
-0.0091,2.703
-0.0083,2.704
-0.0098,2.705
-0.0098,2.706
-0.0068,2.707
-0.0046,2.708
-0.0008,2.709
0.0052,2.71
-0.0008,2.711
-0.0038,2.712
0.0,2.713
-0.0038,2.714
-0.0023,2.715
-0.0046,2.716
-0.0053,2.717
-0.0015,2.718
-0.0053,2.719
-0.0053,2.72
-0.0053,2.721
-0.0053,2.722
-0.0038,2.723
-0.0015,2.724
0.003,2.725
0.0045,2.726
0.0052,2.727
0.0075,2.728
0.0075,2.729
0.0082,2.73
0.009,2.731
0.0052,2.732
0.0022,2.733
-0.0008,2.734
-0.0038,2.735
-0.0046,2.736
-0.0053,2.737
-0.0068,2.738
-0.003,2.739
-0.0015,2.74
-0.012,2.741
-0.0173,2.742
-0.0195,2.743
-0.0308,2.744
-0.0181,2.745
0.0045,2.746
0.0165,2.747
0.0217,2.748
0.0232,2.749
0.0247,2.75
0.0202,2.751
0.0202,2.752
0.0075,2.753
0.0022,2.754
0.0045,2.755
-0.0068,2.756
-0.0128,2.757
-0.006,2.758
0.0067,2.759
0.0082,2.76
0.0022,2.761
-0.0023,2.762
-0.0068,2.763
-0.0098,2.764
-0.0113,2.765
-0.0068,2.766
-0.0015,2.767
0.0045,2.768
0.003,2.769
-0.0053,2.77
-0.012,2.771
-0.0143,2.772
-0.0083,2.773
-0.012,2.774
-0.0143,2.775
-0.0143,2.776
-0.0158,2.777
-0.015,2.778
-0.0135,2.779
-0.0075,2.78
-0.0015,2.781
0.0052,2.782
0.0127,2.783
0.018,2.784
0.0157,2.785
0.009,2.786
0.003,2.787
-0.0008,2.788
-0.0015,2.789
-0.0008,2.79
-0.003,2.791
-0.0083,2.792
0.0015,2.793
0.0127,2.794
0.0015,2.795
-0.021,2.796
-0.0158,2.797
-0.0008,2.798
-0.0015,2.799
0.0,2.8
-0.0015,2.801
0.0015,2.802
0.0052,2.803
0.0052,2.804
0.006,2.805
0.0052,2.806
0.0082,2.807
0.0052,2.808
-0.003,2.809
-0.0038,2.81
-0.0023,2.811
-0.0046,2.812
-0.0015,2.813
-0.0046,2.814
-0.0068,2.815
0.0022,2.816
0.0082,2.817
0.0067,2.818
0.003,2.819
-0.0008,2.82
-0.0015,2.821
-0.0008,2.822
0.0022,2.823
0.0052,2.824
0.0007,2.825
-0.0008,2.826
-0.0015,2.827
-0.003,2.828
-0.0023,2.829
-0.003,2.83
-0.003,2.831
-0.0068,2.832
-0.012,2.833
-0.0053,2.834
0.0015,2.835
0.0037,2.836
0.0022,2.837
0.003,2.838
0.0015,2.839
-0.0046,2.84
-0.0053,2.841
0.0,2.842
-0.0008,2.843
-0.0053,2.844
-0.0098,2.845
-0.0091,2.846
-0.0046,2.847
0.0015,2.848
0.003,2.849
-0.0105,2.85
-0.006,2.851
0.0037,2.852
-0.0038,2.853
0.0,2.854
0.0052,2.855
0.0022,2.856
-0.0008,2.857
0.0007,2.858
0.0007,2.859
0.0007,2.86
0.0007,2.861
0.0022,2.862
0.0052,2.863
0.0,2.864
0.0,2.865
0.0015,2.866
0.0022,2.867
-0.003,2.868
-0.0068,2.869
-0.0015,2.87
-0.0053,2.871
-0.0083,2.872
-0.0105,2.873
-0.0075,2.874
-0.0053,2.875
-0.0083,2.876
-0.0015,2.877
0.006,2.878
0.0022,2.879
-0.003,2.88
-0.0008,2.881
0.0097,2.882
0.0082,2.883
-0.0015,2.884
0.0007,2.885
-0.0008,2.886
-0.006,2.887
-0.012,2.888
-0.0128,2.889
-0.0135,2.89
-0.0165,2.891
-0.0038,2.892
0.015,2.893
0.0202,2.894
0.0142,2.895
0.0105,2.896
0.003,2.897
-0.0075,2.898
-0.0135,2.899
-0.0091,2.9
-0.003,2.901
-0.012,2.902
-0.0068,2.903
0.012,2.904
0.009,2.905
-0.0053,2.906
-0.0053,2.907
0.0037,2.908
0.0202,2.909
0.0165,2.91
0.0022,2.911
0.0015,2.912
-0.0053,2.913
-0.0128,2.914
-0.0143,2.915
-0.0068,2.916
-0.0098,2.917
-0.0165,2.918
-0.0173,2.919
-0.0181,2.92
-0.0068,2.921
-0.0015,2.922
0.0052,2.923
0.018,2.924
0.0202,2.925
0.0127,2.926
0.0082,2.927
0.003,2.928
-0.0015,2.929
0.003,2.93
0.003,2.931
0.0112,2.932
0.0067,2.933
-0.0046,2.934
-0.0068,2.935
-0.0091,2.936
-0.0046,2.937
-0.0091,2.938
-0.0113,2.939
-0.0128,2.94
-0.0195,2.941
-0.0165,2.942
-0.006,2.943
0.0195,2.944
0.0195,2.945
0.003,2.946
0.0105,2.947
0.0112,2.948
0.003,2.949
-0.0083,2.95
-0.0195,2.951
-0.0195,2.952
-0.0256,2.953
-0.024,2.954
-0.0046,2.955
0.024,2.956
0.0292,2.957
0.021,2.958
0.0195,2.959
0.012,2.96
0.0105,2.961
0.0045,2.962
-0.003,2.963
-0.012,2.964
-0.0181,2.965
-0.0181,2.966
-0.0181,2.967
-0.0068,2.968
-0.0046,2.969
-0.0015,2.97
0.0165,2.971
0.027,2.972
0.0157,2.973
0.0,2.974
-0.003,2.975
-0.0046,2.976
-0.0053,2.977
-0.015,2.978
-0.0158,2.979
0.0015,2.98
0.0105,2.981
0.0045,2.982
0.0037,2.983
0.009,2.984
0.0097,2.985
0.0172,2.986
0.0082,2.987
-0.0015,2.988
-0.003,2.989
-0.0098,2.99
-0.0158,2.991
-0.027,2.992
-0.0203,2.993
-0.003,2.994
0.0052,2.995
0.003,2.996
-0.0046,2.997
-0.0075,2.998
-0.0091,2.999
-0.0143,3.0
-0.0256,3.001
-0.0203,3.002
-0.0053,3.003
0.0082,3.004
0.0225,3.005
0.0315,3.006
0.024,3.007
0.0097,3.008
0.018,3.009
0.0135,3.01
-0.0083,3.011
-0.0248,3.012
-0.0285,3.013
-0.0143,3.014
-0.0098,3.015
-0.0091,3.016
-0.0015,3.017
0.0067,3.018
0.0105,3.019
0.0015,3.02
0.003,3.021
0.003,3.022
-0.0015,3.023
-0.0053,3.024
-0.0068,3.025
0.0037,3.026
0.0045,3.027
0.0037,3.028
0.012,3.029
0.0082,3.03
-0.0038,3.031
-0.0083,3.032
-0.0083,3.033
-0.0023,3.034
0.012,3.035
0.0105,3.036
-0.003,3.037
-0.0075,3.038
-0.0083,3.039
-0.006,3.04
-0.0046,3.041
0.0037,3.042
0.018,3.043
0.0157,3.044
0.0045,3.045
-0.0053,3.046
-0.0091,3.047
-0.0091,3.048
-0.0075,3.049
-0.0068,3.05
-0.0075,3.051
-0.0068,3.052
-0.006,3.053
-0.0053,3.054
-0.0053,3.055
-0.0053,3.056
0.0052,3.057
0.0127,3.058
0.0045,3.059
-0.003,3.06
-0.0098,3.061
-0.0195,3.062
-0.0225,3.063
-0.0233,3.064
-0.0158,3.065
0.0127,3.066
0.0367,3.067
0.0285,3.068
0.0157,3.069
0.0105,3.07
0.0052,3.071
0.003,3.072
-0.0015,3.073
-0.0008,3.074
0.0045,3.075
0.0225,3.076
0.0277,3.077
0.006,3.078
-0.003,3.079
-0.0083,3.08
-0.0128,3.081
-0.015,3.082
-0.0218,3.083
-0.0278,3.084
-0.033,3.085
-0.0256,3.086
-0.015,3.087
-0.0046,3.088
0.0135,3.089
0.042,3.09
0.0562,3.091
0.0352,3.092
0.0105,3.093
0.0015,3.094
-0.0053,3.095
-0.0068,3.096
-0.0091,3.097
-0.0113,3.098
-0.0135,3.099
-0.0135,3.1
-0.0113,3.101
-0.0105,3.102
-0.0068,3.103
-0.0046,3.104
-0.0075,3.105
-0.0105,3.106
-0.0091,3.107
-0.0068,3.108
-0.0068,3.109
0.0022,3.11
0.0157,3.111
0.0217,3.112
0.0165,3.113
0.0075,3.114
0.0022,3.115
0.0,3.116
-0.0015,3.117
-0.003,3.118
-0.0075,3.119
-0.0091,3.12
-0.0075,3.121
-0.0098,3.122
-0.0105,3.123
-0.0091,3.124
-0.0098,3.125
-0.0015,3.126
0.0157,3.127
0.0232,3.128
0.0127,3.129
-0.0008,3.13
-0.0053,3.131
-0.0091,3.132
-0.0091,3.133
-0.006,3.134
-0.003,3.135
-0.003,3.136
0.0015,3.137
0.0007,3.138
-0.0046,3.139
0.0,3.14
-0.0053,3.141
-0.0068,3.142
0.0022,3.143
0.0112,3.144
0.0127,3.145
0.0052,3.146
0.0037,3.147
0.0067,3.148
0.0007,3.149
-0.0091,3.15
-0.0158,3.151
-0.0203,3.152
-0.0188,3.153
-0.012,3.154
-0.0091,3.155
-0.0105,3.156
-0.0015,3.157
0.012,3.158
0.018,3.159
0.012,3.16
0.0007,3.161
-0.0128,3.162
-0.0233,3.163
-0.021,3.164
-0.0091,3.165
0.0067,3.166
0.0142,3.167
0.0157,3.168
0.0105,3.169
0.0015,3.17
-0.0008,3.171
-0.0023,3.172
-0.003,3.173
-0.0053,3.174
-0.0075,3.175
-0.006,3.176
-0.0053,3.177
-0.0023,3.178
-0.0015,3.179
0.0052,3.18
0.018,3.181
0.0232,3.182
0.0165,3.183
0.0075,3.184
0.0022,3.185
-0.0008,3.186
-0.003,3.187
-0.0083,3.188
-0.0075,3.189
-0.0053,3.19
-0.0091,3.191
-0.0091,3.192
-0.0105,3.193
-0.0105,3.194
-0.0053,3.195
0.0007,3.196
0.0082,3.197
0.009,3.198
0.0015,3.199
-0.003,3.2
-0.006,3.201
-0.006,3.202
-0.0008,3.203
-0.0015,3.204
-0.0038,3.205
-0.0023,3.206
-0.0008,3.207
0.0007,3.208
0.0007,3.209
-0.0015,3.21
-0.0053,3.211
-0.0098,3.212
-0.0113,3.213
-0.0098,3.214
-0.0105,3.215
-0.0098,3.216
-0.0068,3.217
0.0,3.218
0.0127,3.219
0.0262,3.22
0.0232,3.221
0.0082,3.222
0.0015,3.223
-0.003,3.224
-0.003,3.225
-0.003,3.226
-0.0053,3.227
-0.0083,3.228
-0.0091,3.229
-0.0053,3.23
-0.003,3.231
0.0007,3.232
0.0007,3.233
-0.0008,3.234
0.0007,3.235
0.0007,3.236
0.0015,3.237
0.0007,3.238
-0.0038,3.239
-0.0046,3.24
-0.0015,3.241
0.0052,3.242
0.0112,3.243
-0.0008,3.244
-0.0098,3.245
-0.0098,3.246
-0.0105,3.247
-0.0068,3.248
-0.0015,3.249
0.0082,3.25
0.0142,3.251
0.009,3.252
