VaMe,time
-0.00012014681064922415,0.001
-0.004894087627441938,0.002
-0.009198764438896669,0.003
-0.01259742690517446,0.004
-0.0147815937579678,0.005
-0.015674492371322075,0.006
-0.01544447099377705,0.007
-0.014418950775054373,0.008
-0.012940002092874043,0.009
-0.011241887107658107,0.01
-0.00943810094821994,0.011
-0.0075923931290718585,0.012
-0.005764297106353855,0.013
-0.0039923869038432595,0.014
-0.002270381557446844,0.015
-0.0005577281001169782,0.016
0.0011844184914999475,0.017
0.002945943131030574,0.018
0.004624781209387115,0.019
0.006021544322964444,0.02
0.0068928096635410075,0.021
0.007050164000383544,0.022
0.006463055925581142,0.023
0.005309859544949071,0.024
0.003945562618915506,0.025
0.0027943231651236396,0.026
0.0022010329526297827,0.027
0.002298313679640587,0.028
0.0029498146303912638,0.029
0.003803483332999231,0.03
0.004435620270527397,0.031
0.004506019809904319,0.032
0.003851023235835425,0.033
0.002510440714162045,0.034
0.0007005150853736808,0.035
-0.0012644965249911536,0.036
-0.003064236122833018,0.037
-0.0044347096451543425,0.038
-0.0051999735197540324,0.039
-0.005286331867039274,0.04
-0.004718321111769993,0.041
-0.003600860602263706,0.042
-0.0021062902471491772,0.043
-0.0004617260877518067,0.044
0.0010944272598703536,0.045
0.002385784443417611,0.046
0.003342525672238196,0.047
0.003972636112243714,0.048
0.004296824983841828,0.049
0.004306608175891289,0.05
0.003962823890684699,0.051
0.0032329101650173447,0.052
0.002145708283703411,0.053
0.0008164615168855165,0.054
-0.0005766542469264839,0.055
-0.0018328558234965132,0.056
-0.002760524492737088,0.057
-0.003214768251853729,0.058
-0.003153876722714256,0.059
-0.0026852457356853114,0.06
-0.0020527135806058133,0.061
-0.0015624382192194572,0.062
-0.0014900048786753296,0.063
-0.0019898081246201007,0.064
-0.0030112694118003577,0.065
-0.004270114307783503,0.066
-0.00532663913326757,0.067
-0.005737827742662352,0.068
-0.005204737529866628,0.069
-0.0036747972137682753,0.07
-0.0013683273142721419,0.071
0.0012990963857729219,0.072
0.0038565842917896867,0.073
0.005895138970054856,0.074
0.007130050444965225,0.075
0.007435521806911696,0.076
0.006868496224164006,0.077
0.005661881400268857,0.078
0.004170240872916593,0.079
0.002778394920188491,0.08
0.0017958678301671013,0.081
0.001368566062356668,0.082
0.0014378640927246557,0.083
0.0017621856467732661,0.084
0.0020078746948897987,0.085
0.0018844259887502348,0.086
0.0012585309236007442,0.087
0.0001983542149186024,0.088
-0.0010621428016300597,0.089
-0.0022308452860853767,0.09
-0.0030892807155328025,0.091
-0.0035687828781192955,0.092
-0.003724848699139509,0.093
-0.0036370557992066407,0.094
-0.0033262184773310086,0.095
-0.0027611556829626096,0.096
-0.0019336781159329638,0.097
-0.0009272969693653007,0.098
6.861131803087016e-05,0.099
0.0008070261578404783,0.1
0.001087399967553193,0.101
0.0008620568975144106,0.102
0.0002522944276946829,0.103
-0.0005279101234039768,0.104
-0.001246910485447412,0.105
-0.0016958769221787065,0.106
-0.0017350997103818904,0.107
-0.0013398025277721439,0.108
-0.0006039058080204845,0.109
0.00029266815038905754,0.11
0.0011277486762692583,0.111
0.0016914658643874545,0.112
0.0018517888876183471,0.113
0.0016081704687521679,0.114
0.0010937392270051096,0.115
0.0005089442975977188,0.116
3.1961861031488704e-05,0.117
-0.00022817637635118065,0.118
-0.0002275284807566302,0.119
2.8202076679593338e-05,0.12
0.00048644946884156043,0.121
0.0010487594454197276,0.122
0.0015932704815655031,0.123
0.0020084932030876167,0.124
0.002206535684513945,0.125
0.0021285841736687866,0.126
0.00176477160409502,0.127
0.001161789820184892,0.128
0.0004076874961376527,0.129
-0.00037076154240759453,0.13
-0.000999332631042351,0.131
-0.0012768715633055757,0.132
-0.0010373716955681318,0.133
-0.00023138936214854377,0.134
0.0010108115793260426,0.135
0.0023592184621366026,0.136
0.0033286633013582837,0.137
0.0034296603339047174,0.138
0.0024002583270244853,0.139
0.00037229312478534725,0.14
-0.002163386355341102,0.141
-0.004562570381750189,0.142
-0.006250554005167917,0.143
-0.006855211627192686,0.144
-0.006250185329559592,0.145
-0.004549132665818664,0.146
-0.002075592536014716,0.147
0.0006898090427958403,0.148
0.0031945164632167203,0.149
0.004939448126506176,0.15
0.005618762003032381,0.151
0.00520368146502305,0.152
0.0039145594674157395,0.153
0.0021077008456940713,0.154
0.000157764050710771,0.155
-0.0016156887133841444,0.156
-0.002978446250429146,0.157
-0.00378556693321987,0.158
-0.003976374470053158,0.159
-0.003569947744132347,0.16
-0.0026589262619767517,0.161
-0.001395884543921114,0.162
2.8897397932870904e-05,0.163
0.0014203934237435878,0.164
0.002620589435901566,0.165
0.0035321379077786763,0.166
0.00410770749706432,0.167
0.004329163076131788,0.168
0.004192433439040834,0.169
0.003699067460994558,0.17
0.0028608212200120866,0.171
0.0017164081467850919,0.172
0.0003552650364057925,0.173
-0.0010743998867549624,0.174
-0.0023939034647421126,0.175
-0.0034337476557394706,0.176
-0.004058987300452172,0.177
-0.004187646476897154,0.178
-0.0038090602929474844,0.179
-0.002991372448712669,0.18
-0.0018740428144214682,0.181
-0.0006588055560759933,0.182
0.0004181490721429317,0.183
0.0011614830620810665,0.184
0.0014992387787546634,0.185
0.001500048420998687,0.186
0.0013133191030017405,0.187
0.0010961791884315905,0.188
0.0009783230780822754,0.189
0.0010402242444003933,0.19
0.0012877542364536957,0.191
0.0016519907063878509,0.192
0.0020213393706934877,0.193
0.0022897548269551365,0.194
0.002400484151262785,0.195
0.002361703832300028,0.196
0.002227599017883824,0.197
0.002053572100565877,0.198
0.001849809711192141,0.199
0.001566152667571082,0.2
0.0011144015749495009,0.201
0.0004115394262247763,0.202
-0.0005705681421473887,0.203
-0.0017693113209248058,0.204
-0.0030349018997669047,0.205
-0.004173710696561268,0.206
-0.005002699338179443,0.207
-0.005388560002636074,0.208
-0.005265902000368175,0.209
-0.004636555050055977,0.21
-0.0035478352106029882,0.211
-0.0020680970245603282,0.212
-0.00028981324867554254,0.213
0.0016406104467229972,0.214
0.0034976613419145032,0.215
0.005000775160002369,0.216
0.005895859121395186,0.217
0.006033589151751991,0.218
0.005394792405846514,0.219
0.004083810845114495,0.22
0.0023237709525205726,0.221
0.0004357795644639511,0.222
-0.001235736724232106,0.223
-0.0024249120723842483,0.224
-0.0030119442220156883,0.225
-0.0030410183782541176,0.226
-0.002688455592973434,0.227
-0.0021833773846122936,0.228
-0.001720255007133453,0.229
-0.0014081713094396433,0.23
-0.001271808325578129,0.231
-0.0012781112420048506,0.232
-0.0013479565026175671,0.233
-0.001357134882824613,0.234
-0.0011621461562607305,0.235
-0.0006573525709244534,0.236
0.00016828668405329678,0.237
0.0012151889045065355,0.238
0.002307255626161736,0.239
0.0032454231164664483,0.24
0.0038530718587609673,0.241
0.004009903751496413,0.242
0.0036752526180509606,0.243
0.0029022014310011164,0.244
0.001837150778153555,0.245
0.0006882236286600929,0.246
-0.00033516507414401374,0.247
-0.0010822539594678117,0.248
-0.0014932300504758248,0.249
-0.00159766898729678,0.25
-0.0014904547958360386,0.251
-0.0012978082585018572,0.252
-0.0011389005465427006,0.253
-0.0010874355283447238,0.254
-0.0011478878675354371,0.255
-0.001264203192302934,0.256
-0.0013545972086039142,0.257
-0.0013467368914557556,0.258
-0.0011971418451085583,0.259
-0.0008905324993885332,0.26
-0.00042379433985155647,0.261
0.00020144637514931302,0.262
0.0009616725821121632,0.263
0.0017928205058928572,0.264
0.002591737981755631,0.265
0.0032354588973980566,0.266
0.0036111803977453955,0.267
0.0036424752298793287,0.268
0.003309075769570921,0.269
0.00266424958498521,0.27
0.0018228304670163103,0.271
0.0009054239457554493,0.272
-1.3450645419821322e-05,0.273
-0.0009054171917369056,0.274
-0.001754223190471066,0.275
-0.002527756301806828,0.276
-0.0031708790828083467,0.277
-0.0036171884096839234,0.278
-0.00380547951178695,0.279
-0.0036951370389743466,0.28
-0.0032872917093108183,0.281
-0.002637960899260901,0.282
-0.0018499808850773263,0.283
-0.0010489344325077183,0.284
-0.0003379362562172967,0.285
0.00025466485964104865,0.286
0.000782019370706286,0.287
0.001328011454688626,0.288
0.001947164094537639,0.289
0.002627976066970559,0.29
0.0032908673169698313,0.291
0.003827326187966922,0.292
0.00415076118123301,0.293
0.004220258853975659,0.294
0.0040331939773688005,0.295
0.00359688819475223,0.296
0.002901462621300229,0.297
0.0019249422798534588,0.298
0.0006626385275195831,0.299
-0.0008454111034903597,0.3
-0.002485071792036478,0.301
-0.004049015231881208,0.302
-0.005268242708253091,0.303
-0.005897042413953898,0.304
-0.0058063675774446075,0.305
-0.005024592517002843,0.306
-0.0036998544039073323,0.307
-0.0020364856855072193,0.308
-0.00026883686324530954,0.309
0.0013439684647823956,0.31
0.0025575705394282134,0.311
0.003217500760664406,0.312
0.0033136677088612156,0.313
0.002969951321665201,0.314
0.002381401277120893,0.315
0.0017415295468529907,0.316
0.0011917906059126682,0.317
0.00080374836344197,0.318
0.0005829188931027114,0.319
0.00048289503476127335,0.32
0.00043231023049303887,0.321
0.00036994668704262197,0.322
0.0002719120604824488,0.323
0.00016166794977852362,0.324
0.00010154708658434827,0.325
0.0001645247431575889,0.326
0.00039181188721797806,0.327
0.0007630343495523255,0.328
0.0011987402708310724,0.329
0.001578303602836438,0.33
0.0017647440803324563,0.331
0.0016538139535490085,0.332
0.0012303370542799308,0.333
0.0005783720442662432,0.334
-0.00016985027166579184,0.335
-0.0009065183311290173,0.336
-0.0015914445605009545,0.337
-0.0022400459740849867,0.338
-0.002877027030220581,0.339
-0.0034932796403526986,0.34
-0.00402793650413523,0.341
-0.004382191465866142,0.342
-0.0044434640383530415,0.343
-0.004098770135650382,0.344
-0.0032552128524824682,0.345
-0.0018869050810032659,0.346
-8.796630975092754e-05,0.347
0.0019114216157855523,0.348
0.0037912000116614324,0.349
0.005231507482570548,0.35
0.005999738536089261,0.351
0.006001919328310201,0.352
0.0052942080389464154,0.353
0.004064309065153801,0.354
0.002591671896464998,0.355
0.0011812361530280592,0.356
7.919227857775365e-05,0.357
-0.0005916596956775794,0.358
-0.0008530842595293118,0.359
-0.0008425296723314924,0.36
-0.0007380890936444029,0.361
-0.0006761395419846211,0.362
-0.000712443007844141,0.363
-0.0008376063389844325,0.364
-0.0010141331689622567,0.365
-0.0011998767119640408,0.366
-0.0013516129613264226,0.367
-0.0014234652925746952,0.368
-0.0013762729808311014,0.369
-0.001203624479886273,0.37
-0.0009491256789657093,0.371
-0.0006810144072207006,0.372
-0.00044573153318474987,0.373
-0.0002502595805704272,0.374
-7.566621625810348e-05,0.375
0.00010396682976494007,0.376
0.0002995323804128702,0.377
0.00048559380337543815,0.378
0.0006063347312029849,0.379
0.0006060950646953136,0.38
0.00045229404196257984,0.381
0.00014809222481807632,0.382
-0.0002512368232339389,0.383
-0.0006348475996525242,0.384
-0.0008731196119468082,0.385
-0.0008734159547568294,0.386
-0.0006066286625313748,0.387
-0.00010619703856418231,0.388
0.0005414970308727328,0.389
0.0012312325735278915,0.39
0.0018864278232338745,0.391
0.0024745145914160556,0.392
0.00298683318894442,0.393
0.003409615783949966,0.394
0.0037020142987382433,0.395
0.003797621756044902,0.396
0.0036334860749183302,0.397
0.0031851777241312306,0.398
0.002480335310080431,0.399
0.001578226807479237,0.4
0.0005330810859297882,0.401
-0.0006283098830770555,0.402
-0.0018939823422178179,0.403
-0.003220511324903673,0.404
-0.004491865982184074,0.405
-0.005523705684545907,0.406
-0.006110115008824066,0.407
-0.006093377128415938,0.408
-0.005441794914655016,0.409
-0.00428831021411878,0.41
-0.0028795278136648653,0.411
-0.001473054827989225,0.412
-0.00026731241842900224,0.413
0.0006217569291991339,0.414
0.0011722758292966044,0.415
0.0014617052789724324,0.416
0.0016423067099594609,0.417
0.0018785923853532336,0.418
0.002277901424330287,0.419
0.002849342919026784,0.42
0.0034939334557966242,0.421
0.004028096064706724,0.422
0.004245771845391302,0.423
0.0039924659270043125,0.424
0.003218072882763796,0.425
0.00200245265346786,0.426
0.000551524353895378,0.427
-0.0008450644390879927,0.428
-0.0018942282736820416,0.429
-0.0024005127909423147,0.43
-0.00233758595733027,0.431
-0.0018397048202540758,0.432
-0.0011218431762133419,0.433
-0.00038480239381928307,0.434
0.00023840183102345904,0.435
0.0006840716837443798,0.436
0.000937774634985505,0.437
0.0010193690294246097,0.438
0.000975815972173976,0.439
0.0008650024513740357,0.44
0.0007250806149754054,0.441
0.0005518090955623113,0.442
0.00030814098558833424,0.443
-3.672829950295975e-05,0.444
-0.00047346577169401306,0.445
-0.000950019618342887,0.446
-0.0013869904874792762,0.447
-0.001695222793654974,0.448
-0.0018007351719528603,0.449
-0.0016728611215098114,0.45
-0.0013331298235417822,0.451
-0.0008382079842263948,0.452
-0.000261171684040247,0.453
0.00031106078044458796,0.454
0.0007806131587466576,0.455
0.0010638471959272461,0.456
0.0011266805633523432,0.457
0.0009979378582597193,0.458
0.0007545420905887667,0.459
0.0004945154478652832,0.46
0.00030115078683176904,0.461
0.00020830401234825103,0.462
0.00019663716031992416,0.463
0.00021814857792087184,0.464
0.00022184260252408733,0.465
0.00017013594132270622,0.466
3.909454259046903e-05,0.467
-0.00018319338334066716,0.468
-0.00047316874491919067,0.469
-0.0007448480375915799,0.47
-0.0008705278524431401,0.471
-0.0007499210764016459,0.472
-0.0003680609485696954,0.473
0.0001988119923811199,0.474
0.0008188322819883875,0.475
0.001356672133588608,0.476
0.001717729766213632,0.477
0.0018646372621868548,0.478
0.0018000551002736519,0.479
0.0015366517358038842,0.48
0.0010924740031971031,0.481
0.0005135529947039582,0.482
-0.00011002989041263918,0.483
-0.0006546905805533563,0.484
-0.000997185889848695,0.485
-0.001052653781450186,0.486
-0.0007982951679966057,0.487
-0.00027756159180745304,0.488
0.0004128282142218286,0.489
0.0011444858981380656,0.49
0.0017792670668014738,0.491
0.0021868475455895666,0.492
0.002261733059555064,0.493
0.0019524229779520393,0.494
0.0012905877706251047,0.495
0.00038655605836053996,0.496
-0.00061049651098048,0.497
-0.0015544027030736267,0.498
-0.0023266453542014932,0.499
-0.0028516218141637945,0.5
-0.0031068634523862305,0.501
-0.003121303176482514,0.502
-0.0029623610218455993,0.503
-0.0027114850992654067,0.504
-0.0024201565043305007,0.505
-0.002077398331260019,0.506
-0.0016329202236558579,0.507
-0.001050606966253122,0.508
-0.00034187390141206535,0.509
0.0004399326822838051,0.51
0.001236996223687227,0.511
0.0020154092934668265,0.512
0.0027505162041666885,0.513
0.0033908048585124333,0.514
0.0038505107653079027,0.515
0.004053043734277448,0.516
0.003985458765685848,0.517
0.00370564736975142,0.518
0.003306238430194398,0.519
0.0028808681593093643,0.52
0.0025003956711872185,0.521
0.002180195329838301,0.522
0.0018535882214429347,0.523
0.0013880492504272904,0.524
0.0006494620263290586,0.525
-0.0004198033467466444,0.526
-0.0017548982824808124,0.527
-0.0031790207693030152,0.528
-0.0044618505543041805,0.529
-0.005397166808034469,0.53
-0.005860428187133132,0.531
-0.0058243528352141865,0.532
-0.005346410993051301,0.533
-0.004544673498530198,0.534
-0.0035639149222398774,0.535
-0.002539043755359984,0.536
-0.0015669283160544521,0.537
-0.0006932140069397471,0.538
8.22047039479335e-05,0.539
0.0007898465804499307,0.54
0.0014784405625023372,0.541
0.002201968255320574,0.542
0.002993387643943564,0.543
0.003828395236631435,0.544
0.004609944221285828,0.545
0.00520027459633031,0.546
0.005483290192240926,0.547
0.005409771554536406,0.548
0.005002721889037728,0.549
0.00434629858069996,0.55
0.00356565498028606,0.551
0.0027766876353443205,0.552
0.0020295944771504004,0.553
0.0012984202609767615,0.554
0.0005246261341573657,0.555
-0.0003256860994517372,0.556
-0.0012317252749976266,0.557
-0.0021237029076367846,0.558
-0.0029112013146294913,0.559
-0.0035130929825130104,0.56
-0.003878815649147262,0.561
-0.004000863385856909,0.562
-0.003909118024209209,0.563
-0.0036551106733996495,0.564
-0.00330197223718406,0.565
-0.0029091082333972027,0.566
-0.0025125198154245733,0.567
-0.002126246899931567,0.568
-0.001765140738272372,0.569
-0.0014539846325311787,0.57
-0.0012077108722442665,0.571
-0.0010063983677310563,0.572
-0.0007821921939009587,0.573
-0.00042624064082936655,0.574
0.0001666495415074064,0.575
0.0010207875671085411,0.576
0.002033078735337384,0.577
0.0030169581990601253,0.578
0.0037902732629940704,0.579
0.004226390008420366,0.58
0.0042704649377002845,0.581
0.003945243989993682,0.582
0.0033426399214097533,0.583
0.0025996691838547506,0.584
0.0018561726889024656,0.585
0.0012041572601447293,0.586
0.0006652386985444387,0.587
0.00022015154796144307,0.588
-0.0001342211386104047,0.589
-0.0003627066668643425,0.59
-0.00043344887681840506,0.591
-0.00037541787448401213,0.592
-0.00029307525904225955,0.593
-0.00032808921723578535,0.594
-0.0005899748401359446,0.595
-0.0010954063129636309,0.596
-0.001757122963438366,0.597
-0.0024222487650174354,0.598
-0.0029272701358294528,0.599
-0.003148141838770854,0.6
-0.0030341499342600824,0.601
-0.002610540471936713,0.602
-0.0019463715958683524,0.603
-0.0011119035369455143,0.604
-0.00016202727064355723,0.605
0.0008514455457708423,0.606
0.0018660291294905526,0.607
0.002799919241013989,0.608
0.00354815635847254,0.609
0.004002589476581544,0.61
0.004090622911781384,0.611
0.0037940132887238896,0.612
0.0031375785249332902,0.613
0.002180598946549064,0.614
0.0010263386874028828,0.615
-0.0001758081875281561,0.616
-0.0012587894754052494,0.617
-0.0020912097908151735,0.618
-0.002623133309967323,0.619
-0.0028830038002292738,0.62
-0.0029277311813234036,0.621
-0.0027905570978228296,0.622
-0.0024571115298307818,0.623
-0.001880895374565847,0.624
-0.0010309370025158493,0.625
6.118141878706763e-05,0.626
0.0012858558008891,0.627
0.0024784516977250878,0.628
0.0034603923820132033,0.629
0.004073391954021008,0.63
0.004204158635034392,0.631
0.003807591744071115,0.632
0.0029299989511377728,0.633
0.0017169401562238907,0.634
0.00037453044970025905,0.635
-0.0009097252069614739,0.636
-0.0020231458689380873,0.637
-0.002923207521981409,0.638
-0.0035983231930940057,0.639
-0.004028741475767271,0.64
-0.004167071944963961,0.641
-0.003952761274938258,0.642
-0.0033611799075895484,0.643
-0.0024574598919800553,0.644
-0.0013987268113871852,0.645
-0.0003704085281124424,0.646
0.0004793845498961856,0.647
0.0010630893510794705,0.648
0.0013629018355912142,0.649
0.0014399409603063408,0.65
0.0014112149126270842,0.651
0.0013878370739327584,0.652
0.0014212295179657946,0.653
0.0014976595387837363,0.654
0.00157197539664243,0.655
0.001609441692965957,0.656
0.001608947088524097,0.657
0.0015967513651974422,0.658
0.001606276728320761,0.659
0.0016715172176689655,0.66
0.0018335305050994413,0.661
0.0021194968546678684,0.662
0.0024905004462367833,0.663
0.002820847037752012,0.664
0.0029398677124525046,0.665
0.002693705375401614,0.666
0.00198561841833448,0.667
0.0007990621487597705,0.668
-0.0007797803453012263,0.669
-0.0025496494434015236,0.67
-0.0042248324630964245,0.671
-0.00551503948404849,0.672
-0.006207557957573463,0.673
-0.00621162898893607,0.674
-0.005569882126665035,0.675
-0.004436649463534192,0.676
-0.003019318151894317,0.677
-0.0015226892032859393,0.678
-0.0001307197766435243,0.679
0.0009985091545808432,0.68
0.0017557846327053116,0.681
0.0021131416512064497,0.682
0.0021451460640277533,0.683
0.002028480997459356,0.684
0.001993993214087807,0.685
0.002224087217327543,0.686
0.0027671781913717487,0.687
0.0035374460993195553,0.688
0.0043668594162095346,0.689
0.005046731912357387,0.69
0.005360718499379492,0.691
0.005136645689655641,0.692
0.004303840596497874,0.693
0.0029277652282144254,0.694
0.00120764313252871,0.695
-0.0005769950949831299,0.696
-0.0021541289754412724,0.697
-0.0033263051890674933,0.698
-0.003995466058409891,0.699
-0.004169887952931307,0.7
-0.003954149229327725,0.701
-0.0035007130277389404,0.702
-0.0029426462889412894,0.703
-0.002352763813126364,0.704
-0.0017498256467824286,0.705
-0.0011443877738282707,0.706
-0.0005853849237463655,0.707
-0.00016061654637595152,0.708
4.473307398635686e-05,0.709
-9.992024375076835e-06,0.71
-0.00030177935968125083,0.711
-0.0007504400961105589,0.712
-0.0012364070900979345,0.713
-0.0016107571504847876,0.714
-0.0017154234278169776,0.715
-0.001435917621876136,0.716
-0.0007615961663995309,0.717
0.00018973308037414,0.718
0.001210259191047785,0.719
0.0020918971300884484,0.72
0.0027059436959675975,0.721
0.0030220277688808965,0.722
0.0030786905449976,0.723
0.002947060721252871,0.724
0.00271251033400936,0.725
0.002466518393172666,0.726
0.002286824091491232,0.727
0.0022160706596974513,0.728
0.002260732301180698,0.729
0.0023941066642189156,0.73
0.002549243944448389,0.731
0.0026210254596397997,0.732
0.0024862484350130897,0.733
0.002032720857310685,0.734
0.0011911795637868363,0.735
-3.5568319039286874e-05,0.736
-0.001548178669760516,0.737
-0.0031402507749490795,0.738
-0.00452822879659229,0.739
-0.0054310027410830524,0.74
-0.005663938825195522,0.741
-0.005200717816828883,0.742
-0.004178424491525844,0.743
-0.002839575726427375,0.744
-0.0014438007182606943,0.745
-0.00020633068218858146,0.746
0.0007234778132181874,0.747
0.0012648834947177551,0.748
0.0014032074099136211,0.749
0.0011839466635280972,0.75
0.0006969448158348708,0.751
5.4073639695346616e-05,0.752
-0.0006240724603565563,0.753
-0.001213620219195121,0.754
-0.0016016614812038729,0.755
-0.0017087491845250895,0.756
-0.0015012129011831956,0.757
-0.0009903210755155547,0.758
-0.00022918084774951788,0.759
0.0006942596756669921,0.76
0.001678321555360031,0.761
0.0026363876539483556,0.762
0.0035064082251010367,0.763
0.004231838608477069,0.764
0.00474560807314025,0.765
0.004981736289120282,0.766
0.00489077067914353,0.767
0.004440149656443408,0.768
0.003623181132040355,0.769
0.0024779199697930318,0.77
0.0010868722239504914,0.771
-0.0004350399847918199,0.772
-0.0019452652917944966,0.773
-0.0032840277823331368,0.774
-0.004300790320174669,0.775
-0.004886833193919175,0.776
-0.004992214014817224,0.777
-0.004619044819308542,0.778
-0.00382150566196977,0.779
-0.0027256453758921734,0.78
-0.001526281150334189,0.781
-0.00042971103702990496,0.782
0.0004271643535617459,0.783
0.0010265396309135334,0.784
0.0014534834915610744,0.785
0.0018151127081724205,0.786
0.0021507068055115503,0.787
0.002405195473567936,0.788
0.0024825520870834523,0.789
0.0023302433263151716,0.79
0.001986630010896256,0.791
0.0015663057660087775,0.792
0.0012138090146939812,0.793
0.0010579292825399996,0.794
0.0011744302676688482,0.795
0.0015564350319518428,0.796
0.0020960371488315615,0.797
0.0025993611247398583,0.798
0.00285078002515196,0.799
0.0026896621459139985,0.8
0.0020527494355571116,0.801
0.000980069907368582,0.802
-0.00039769768096424135,0.803
-0.0018854263300305864,0.804
-0.0032716936735647565,0.805
-0.0043912245886634895,0.806
-0.005163666668422106,0.807
-0.005585785019468403,0.808
-0.005693116639680594,0.809
-0.005515408272972679,0.81
-0.00505144627111165,0.811
-0.004283917571220571,0.812
-0.003220727218553961,0.813
-0.0019293053101510844,0.814
-0.0005390818087197907,0.815
0.0007946245993849491,0.816
0.0019446960461574159,0.817
0.0028509406238585396,0.818
0.0035231346701629384,0.819
0.0040141911992142235,0.82
0.004385983742671733,0.821
0.004674638266480931,0.822
0.004855337663960694,0.823
0.004834872467657616,0.824
0.004490758079759845,0.825
0.0037307340222720534,0.826
0.002544697419925908,0.827
0.0010388392537919768,0.828
-0.0005645797888683233,0.829
-0.00198325702307846,0.83
-0.002975662895681728,0.831
-0.0034309179167829867,0.832
-0.0033944730675865694,0.833
-0.003016478678130058,0.834
-0.00245968113989282,0.835
-0.0018359634695279158,0.836
-0.0012039980403537323,0.837
-0.0005987160742272113,0.838
-5.609720610523385e-05,0.839
0.00038520316873874626,0.84
0.0007059652114519927,0.841
0.0009254380028247922,0.842
0.0010954306445145813,0.843
0.001280331364833366,0.844
0.0015383095415295554,0.845
0.001905055044213379,0.846
0.00237903100078119,0.847
0.0029099456053816707,0.848
0.0033973306887247075,0.849
0.0037099939735922606,0.85
0.0037246562159895507,0.851
0.003368905243899686,0.852
0.0026503933098317094,0.853
0.0016499382371145772,0.854
0.00048046717207512503,0.855
-0.0007491391120510724,0.856
-0.0019468485437398894,0.857
-0.0030467604107375034,0.858
-0.004013343888483194,0.859
-0.004820154190370308,0.86
-0.005423672186133632,0.861
-0.005767076644161763,0.862
-0.005806555885670126,0.863
-0.005529538143953619,0.864
-0.004953445390018617,0.865
-0.004121284710329105,0.866
-0.0030990918014268576,0.867
-0.0019582356668351466,0.868
-0.0007505130549342877,0.869
0.0004948633947352272,0.87
0.0017496803387974475,0.871
0.002967641054092838,0.872
0.004084052596736061,0.873
0.005024388646139009,0.874
0.005722876594075628,0.875
0.006155184534390224,0.876
0.0063511304723498545,0.877
0.006356505382944357,0.878
0.0061731703786813245,0.879
0.005740692873352879,0.88
0.004978666507137202,0.881
0.0038422393194298197,0.882
0.002351156441814516,0.883
0.000600148871661159,0.884
-0.0012389314858876545,0.885
-0.0029403289635059975,0.886
-0.004288407857227401,0.887
-0.005152770738384902,0.888
-0.005519396512396411,0.889
-0.005462737869936914,0.89
-0.0050957650946002585,0.891
-0.004532555250578101,0.892
-0.003863795536336953,0.893
-0.0031398529233253075,0.894
-0.002370490616137959,0.895
-0.0015493397870532423,0.896
-0.000693547716181169,0.897
0.0001289482400508591,0.898
0.0008104295120097923,0.899
0.0012475400181355654,0.9
0.0013887152281406065,0.901
0.0012676356565853775,0.902
0.0010101419880798206,0.903
0.0007936038647311616,0.904
0.000769299546305238,0.905
0.0010065662368128466,0.906
0.0014986250810855042,0.907
0.0021878485525502686,0.908
0.00295829317378617,0.909
0.003629757105857413,0.91
0.004004396582126687,0.911
0.003935223830987921,0.912
0.003364733917264349,0.913
0.002333629767005679,0.914
0.0009747065438405677,0.915
-0.0005050102440125923,0.916
-0.0018628080560159734,0.917
-0.002884691959551298,0.918
-0.0034369250638829206,0.919
-0.003471540892754303,0.92
-0.0030193097472322743,0.921
-0.002193071272390076,0.922
-0.0011731928662074413,0.923
-0.0001676321192655457,0.924
0.0006407571018882736,0.925
0.001144852070727387,0.926
0.0013299753897051767,0.927
0.001260067235939155,0.928
0.0010551349328799108,0.929
0.0008420042665513302,0.93
0.0006866225570564701,0.931
0.0005663264094989894,0.932
0.00040688332248814564,0.933
0.00014686987490693373,0.934
-0.0002185759121398362,0.935
-0.000632726623898715,0.936
-0.0009986415065145957,0.937
-0.0012074981267159086,0.938
-0.001173738989725872,0.939
-0.0008749489999723263,0.94
-0.0003748037497798473,0.941
0.00019102652229923238,0.942
0.0006678105575206685,0.943
0.0009403485390706691,0.944
0.0009650680528629641,0.945
0.0007788037114230583,0.946
0.00048258615358018776,0.947
0.00019560425986223247,0.948
5.042858848502093e-06,0.949
-5.1669466545832454e-05,0.95
2.5761841820319412e-05,0.951
0.00020464562288848004,0.952
0.0004137793078518638,0.953
0.0005630297811340117,0.954
0.0005830696091822673,0.955
0.0004515267429840037,0.956
0.00019101340192350844,0.957
-0.0001548344877000047,0.958
-0.0005427151535371032,0.959
-0.0009244324853703353,0.96
-0.0012267377279812884,0.961
-0.001349433974067867,0.962
-0.001203881769189667,0.963
-0.0007700424360214861,0.964
-0.00010981285171683085,0.965
0.000673862745523731,0.966
0.001474628975536458,0.967
0.0021888647996390724,0.968
0.0027133993165105977,0.969
0.002957219931285738,0.97
0.0028664416688243535,0.971
0.0024436612891155433,0.972
0.0017445021131389658,0.973
0.0008614756778025986,0.974
-8.69376564450254e-05,0.975
-0.0009638852148449197,0.976
-0.0016251789711307285,0.977
-0.001945435919048225,0.978
-0.0018642368721991083,0.979
-0.0014154319074425653,0.98
-0.0007067380061523282,0.981
0.00011510299506553623,0.982
0.0008764038568288832,0.983
0.0013955600846424902,0.984
0.0015274113939279226,0.985
0.0012013761941938733,0.986
0.00044113990973037947,0.987
-0.0006309616618492971,0.988
-0.0018184983742789605,0.989
-0.0028976410873744834,0.99
-0.0036612620472916413,0.991
-0.003965640375792284,0.992
-0.003779118610136566,0.993
-0.003189013134174892,0.994
-0.002353181514057155,0.995
-0.001437383949031872,0.996
-0.0005674819737711663,0.997
0.00019674314367569199,0.998
0.0008566460959306821,0.999
0.0014348623255674314,1.0
0.0019247212879429413,1.001
0.0022757114955820703,1.002
0.002436969291123813,1.003
0.0024191141885655425,1.004
0.00230640394049267,1.005
0.0022073534236218533,1.006
0.0021946211364936136,1.007
0.0022731723169557255,1.008
0.0023828747325753638,1.009
0.002424778311666484,1.01
0.002300224009159481,1.011
0.0019603488416477495,1.012
0.0014444503887676874,1.013
0.0008700631975848001,1.014
0.0003735655798560737,1.015
4.956689415427004e-05,1.016
-6.831370891105839e-05,1.017
6.629533162324437e-06,1.018
0.00023138031674792801,1.019
0.0005418171634300116,1.02
0.0008562231205381798,1.021
0.0010782506598198307,1.022
0.0011071772523016854,1.023
0.0008620700033180416,1.024
0.0003077004424398214,1.025
-0.0005333686027952119,1.026
-0.0015797849091351672,1.027
-0.002701250972588932,1.028
-0.0037456054005166987,1.029
-0.0045741971358767035,1.03
-0.005086741673428399,1.031
-0.005227871338005448,1.032
-0.004983156001543138,1.033
-0.004378989724422467,1.034
-0.0034888533732001315,1.035
-0.00242911078825627,1.036
-0.0013377309858160738,1.037
-0.0003430381961022844,1.038
0.00047519954644630714,1.039
0.001110339213113648,1.04
0.0016134964423204065,1.041
0.002059584755314396,1.042
0.0025244501729540037,1.043
0.0030635123927325596,1.044
0.0036870697674607493,1.045
0.004350729692427235,1.046
0.004962617448460171,1.047
0.0054023093067943435,1.048
0.005552022372755262,1.049
0.005328610459636784,1.05
0.004711828641858553,1.051
0.0037697859742736265,1.052
0.002655421172163928,1.053
0.0015466775477281857,1.054
0.0005629752931578595,1.055
-0.0002718940665079788,1.056
-0.0010000830620347076,1.057
-0.001667861127524263,1.058
-0.0022727073161230415,1.059
-0.002748045990225593,1.06
-0.0029923786850281284,1.061
-0.00293530704275119,1.062
-0.0026122822519795883,1.063
-0.002181442779352418,1.064
-0.0018469462660525631,1.065
-0.0017534263599445616,1.066
-0.0019340886206556504,1.067
-0.002321768714682127,1.068
-0.00279181674942133,1.069
-0.003207292921500128,1.07
-0.003446928376329016,1.071
-0.0034214435492643355,1.072
-0.003092505094068378,1.073
-0.0024830436170092673,1.074
-0.0016632619396926482,1.075
-0.000724788716799672,1.076
0.0002327419563419407,1.077
0.0011024099298220429,1.078
0.0017902207618527106,1.079
0.0022613688906267496,1.08
0.0025602884035083946,1.081
0.0027705109871858954,1.082
0.002948749821145333,1.083
0.0030846625412533925,1.084
0.0031136615046951227,1.085
0.0029779339304225995,1.086
0.002684274794554083,1.087
0.0023079118392834446,1.088
0.001955940526116731,1.089
0.0017266228176385362,1.09
0.0016774599997596144,1.091
0.0018090560214410168,1.092
0.0020658655734757413,1.093
0.0023439981357429355,1.094
0.0025032265596890975,1.095
0.0023976873906191593,1.096
0.0019332809252311238,1.097
0.0011232263275434188,1.098
9.651513667757036e-05,1.099
-0.0009555203440159712,1.1
-0.0018617111354819877,1.101
-0.002528337547993181,1.102
-0.002938609656483816,1.103
-0.003108045605055313,1.104
-0.0030457175566492084,1.105
-0.0027598423384734287,1.106
-0.00228677030970545,1.107
-0.0016954035965831365,1.108
-0.0010691867092091699,1.109
-0.0005002250110190044,1.11
-9.059094129843625e-05,1.111
7.308005158257403e-05,1.112
-3.164445908553666e-05,1.113
-0.0003455420145219502,1.114
-0.0007696827105187059,1.115
-0.0012125597588171222,1.116
-0.0015895916197666427,1.117
-0.0018090412015271692,1.118
-0.0017912328984846801,1.119
-0.0015005411960716192,1.12
-0.0009555836384443422,1.121
-0.00021829128826643054,1.122
0.0006190408905755698,1.123
0.0014389530421183231,1.124
0.0021084440429165584,1.125
0.002505230064212762,1.126
0.0025549169583621604,1.127
0.002260485580064712,1.128
0.0017070495941887756,1.129
0.0010403497678409305,1.13
0.00042610920633177565,1.131
-2.714660885989165e-06,1.132
-0.00019086612990957858,1.133
-0.00016473258110442164,1.134
4.892319467110392e-06,1.135
0.00023835017825669973,1.136
0.00046360370161254767,1.137
0.0006326984070972807,1.138
0.0007346950263325301,1.139
0.0007855155217594337,1.14
0.0007993485438016494,1.141
0.0007677769169327145,1.142
0.0006716010719408996,1.143
0.0005130624139409681,1.144
0.0003235876236008049,1.145
0.00013662568890227453,1.146
-3.7791915178382083e-05,1.147
-0.0002079952026854633,1.148
-0.0003729356131768323,1.149
-0.0005024279938332179,1.15
-0.0005482840172754166,1.151
-0.00047743650485197823,1.152
-0.00029928137145007343,1.153
-7.322314783113339e-05,1.154
0.00011536716076399536,1.155
0.00021404555572349245,1.156
0.00024383769779286527,1.157
0.0002718325865563718,1.158
0.00034822685063937104,1.159
0.00046513647102531977,1.16
0.0005581377483170016,1.161
0.0005410211866731366,1.162
0.0003500274579450265,1.163
-2.4765671318898756e-05,1.164
-0.0005312733774375015,1.165
-0.0010628226691197884,1.166
-0.0014708821686919462,1.167
-0.0015990137778558494,1.168
-0.0013471228866782075,1.169
-0.0007179516887767604,1.17
0.00020115765235786877,1.171
0.0012878882155697726,1.172
0.002405554906805242,1.173
0.0033957941556802354,1.174
0.004081897316469043,1.175
0.004292897462260412,1.176
0.0039043705915685805,1.177
0.0028969565351545526,1.178
0.0013933575344023971,1.179
-0.0003719608316497144,1.18
-0.0021264807365429087,1.181
-0.0036313711955754412,1.182
-0.0047314740505151835,1.183
-0.005368291919167802,1.184
-0.005560906966271486,1.185
-0.005373958629898165,1.186
-0.0048749078186620855,1.187
-0.004097333124599596,1.188
-0.0030487751221708096,1.189
-0.0017600766186485612,1.19
-0.0003219820053830458,1.191
0.0011240192802164266,1.192
0.0024189894133491555,1.193
0.00341788467924937,1.194
0.004022322603960808,1.195
0.004209459100984199,1.196
0.004031502515201056,1.197
0.0035857095226791676,1.198
0.0029798764807564162,1.199
0.0023147243890274598,1.2
0.0016907278728178821,1.201
0.0012191752984956651,1.202
0.0010015362862311986,1.203
0.0010751908543895228,1.204
0.001378882973019106,1.205
0.001780877279334313,1.206
0.002137102219979927,1.207
0.0023280468642110793,1.208
0.002276201426708164,1.209
0.001956554367870777,1.21
0.0013868562785481421,1.211
0.0006030857178116773,1.212
-0.00035292632670611744,1.213
-0.00142738799045372,1.214
-0.0025383887573085817,1.215
-0.003566542106430521,1.216
-0.004372481801832652,1.217
-0.004827950613810777,1.218
-0.004845018312922352,1.219
-0.004416372735396419,1.22
-0.003643402379918078,1.221
-0.002704188216626785,1.222
-0.0017790632548636664,1.223
-0.000991490332477302,1.224
-0.00038617450656352044,1.225
5.9584684962514934e-05,1.226
0.000406391355701358,1.227
0.000727262487814182,1.228
0.0010842291791729802,1.229
0.0014997552505236933,1.23
0.0019382640638106166,1.231
0.0023149357808408245,1.232
0.0025336153301348152,1.233
0.002532979601858597,1.234
0.0023087139618537316,1.235
0.001903436782828524,1.236
0.0013868750256221748,1.237
0.0008444955234040743,1.238
0.00036957254835159404,1.239
5.062707876066227e-05,1.24
-4.6980082890307954e-05,1.241
9.822809469761525e-05,1.242
0.00045167320670391433,1.243
0.0009216602393498012,1.244
0.00137243846022771,1.245
0.0016664993863141696,1.246
0.0017168133592528445,1.247
0.0015078664093534885,1.248
0.001090142125045248,1.249
0.0005620689420271601,1.25
2.482900424600626e-05,1.251
-0.0004677528084858884,1.252
-0.0009106891626155058,1.253
-0.001307239654959342,1.254
-0.0016396641431107007,1.255
-0.001869108657529792,1.256
-0.0019488652512736073,1.257
-0.0018434071070776517,1.258
-0.0015482270842733428,1.259
-0.001097916506887198,1.26
-0.0005572778862362461,1.261
-7.371405497548253e-06,1.262
0.0004662365106141042,1.263
0.0007941610649689723,1.264
0.0009513362896520302,1.265
0.0009671348943272424,1.266
0.000899328410542676,1.267
0.0007915904975308757,1.268
0.000655147756963408,1.269
0.00048372964090251017,1.27
0.00027421138989341395,1.271
2.9592047472452493e-05,1.272
-0.00024294467048405492,1.273
-0.0005202876162760282,1.274
-0.0007531996531635325,1.275
-0.0008692657835948674,1.276
-0.0007874361163233362,1.277
-0.00044846639172786343,1.278
0.0001519990826988726,1.279
0.000943540039984224,1.28
0.0017818678426697124,1.281
0.002477666691090461,1.282
0.002839704441165036,1.283
0.002729470556823847,1.284
0.002129585788657081,1.285
0.0011694130160438028,1.286
6.543858381764575e-05,1.287
-0.0009764004759388147,1.288
-0.0018323319999019455,1.289
-0.0024731558461940123,1.29
-0.0029206212885389475,1.291
-0.003196295002075193,1.292
-0.0033069190492050183,1.293
-0.003256725230530904,1.294
-0.0030472243161518238,1.295
-0.002658793600561178,1.296
-0.002050659753097847,1.297
-0.001195940512200723,1.298
-0.00012298561297132213,1.299
0.001073633014117987,1.3
0.0022587767239458933,1.301
0.0032965878283279923,1.302
0.004076434352067978,1.303
0.004513360759639973,1.304
0.004544038261941953,1.305
0.004145542831718544,1.306
0.0033685253895814303,1.307
0.002348637594046527,1.308
0.0012725126868481699,1.309
0.00031807985926058437,1.31
-0.00038182418414148224,1.311
-0.0007392176994642896,1.312
-0.000713601500929163,1.313
-0.00034057534223120895,1.314
0.00024583488436360953,1.315
0.0008358129972845249,1.316
0.0012068564288374493,1.317
0.0011916023141792873,1.318
0.000716810019216609,1.319
-0.00019440244239396845,1.32
-0.0014309380231602397,1.321
-0.002793231192643948,1.322
-0.004013054743256725,1.323
-0.004816856973211257,1.324
-0.005006064868628326,1.325
-0.004522851402965082,1.326
-0.0034740058333555387,1.327
-0.0020964319237541463,1.328
-0.0006817985467368334,1.329
0.0005113793058512609,1.33
0.0013246003341232488,1.331
0.0017226337333799812,1.332
0.0017749470350959468,1.333
0.0016024782495503212,1.334
0.0013228859884538648,1.335
0.00103317304549458,1.336
0.000816558580023841,1.337
0.00073495026430344,1.338
0.0008073547747326552,1.339
0.0010128692432461442,1.34
0.0013260320783394133,1.341
0.0017396520766340675,1.342
0.00224538441575403,1.343
0.0027968744742327576,1.344
0.0032984815902989775,1.345
0.003627382355425328,1.346
0.0036643362389734316,1.347
0.0033245994441844563,1.348
0.0025945386249434537,1.349
0.0015602092677554876,1.35
0.0003976170607204526,1.351
-0.000690474677773953,1.352
-0.001557078557524685,1.353
-0.0021541397602634566,1.354
-0.002512981084902275,1.355
-0.0026831034400596585,1.356
-0.0026813192307284252,1.357
-0.00249928584230835,1.358
-0.002151581476697669,1.359
-0.0017038779429235061,1.36
-0.0012583060252580184,1.361
-0.0009089362247301385,1.362
-0.0006936885145048342,1.363
-0.0005860369514693906,1.364
-0.0005340808655543837,1.365
-0.0005025367725803705,1.366
-0.0004876202106937556,1.367
-0.0005064711206628348,1.368
-0.0005762711918657732,1.369
-0.0007000891883068957,1.37
-0.0008606642064738255,1.371
-0.001019818759647149,1.372
-0.0011337570483767976,1.373
-0.0011753513645690848,1.374
-0.0011325815362515795,1.375
-0.0009856010229023875,1.376
-0.0006963563107600251,1.377
-0.0002282857991398218,1.378
0.0004198329371495114,1.379
0.0012017662667078962,1.38
0.002045241285377991,1.381
0.0028769086866345726,1.382
0.0036261438319839267,1.383
0.004216561516152421,1.384
0.004561891214210201,1.385
0.0045755044520263115,1.386
0.004197550650935367,1.387
0.0034278327542433245,1.388
0.0023380678884107283,1.389
0.001056421590847447,1.39
-0.000258494760779359,1.391
-0.0014468141081860199,1.392
-0.002376631133627526,1.393
-0.0029659098597180186,1.394
-0.003194667060032,1.395
-0.0031000803807481546,1.396
-0.002751689584079423,1.397
-0.00222031403791789,1.398
-0.0015600646347737137,1.399
-0.0008162763201778978,1.4
-5.067974433579154e-05,1.401
0.0006453397396301567,1.402
0.0011627791571145775,1.403
0.0013966643714465575,1.404
0.0012717310731780041,1.405
0.0007849662880476856,1.406
4.580943602668609e-05,1.407
-0.0007362264073621568,1.408
-0.0013217313393263461,1.409
-0.001529237569918197,1.41
-0.0013031979219455107,1.411
-0.0007231031201780162,1.412
5.095612300697693e-05,1.413
0.0008468737166125598,1.414
0.0015249387140650267,1.415
0.001994388127508931,1.416
0.0022073723276471438,1.417
0.002142953429105086,1.418
0.0018025142187901076,1.419
0.0012211809699483175,1.42
0.0004760521498772322,1.421
-0.00032255379593955835,1.422
-0.001054624861880729,1.423
-0.0016176842394828893,1.424
-0.0019438901794982053,1.425
-0.002005336413030904,1.426
-0.001813742869625724,1.427
-0.0014151947784733167,1.428
-0.0008823799572186997,1.429
-0.0003031877754214092,1.43
0.00023697387542655348,1.431
0.0006660869144839655,1.432
0.000926426653704116,1.433
0.0009865806282735238,1.434
0.0008699918757324418,1.435
0.0006686153419960492,1.436
0.000509739100076734,1.437
0.0004913687256714813,1.438
0.0006364538013315639,1.439
0.000894027099049129,1.44
0.0011706797040168606,1.441
0.0013674898438143094,1.442
0.0014173488296730012,1.443
0.0013081346675816237,1.444
0.001075625504201911,1.445
0.0007825072401960027,1.446
0.0004971688715461912,1.447
0.0002708449163777539,1.448
0.0001212940090672899,1.449
3.386953688424523e-05,1.45
-1.446302577993682e-05,1.451
-2.5892838324916947e-05,1.452
1.5429876418888286e-05,1.453
0.00011170320504936754,1.454
0.00023170928157241385,1.455
0.000314129135253866,1.456
0.0002851111224902395,1.457
9.243981249248001e-05,1.458
-0.0002606864188341036,1.459
-0.0007114684574972849,1.46
-0.0011658058247692516,1.461
-0.0015433002767259872,1.462
-0.001811157591463925,1.463
-0.0019815876657858474,1.464
-0.0020823450125350236,1.465
-0.002123934079887746,1.466
-0.0020770591563966777,1.467
-0.001880742454297735,1.468
-0.0014865135132995381,1.469
-0.0009004692114780624,1.47
-0.00018518384641178832,1.471
0.0005680238672846448,1.472
0.0012612052498772108,1.473
0.0017935308744524228,1.474
0.0020653754991174244,1.475
0.0020048540259455707,1.476
0.0016072643438746308,1.477
0.0009563795630444036,1.478
0.00021098083829199196,1.479
-0.0004429330663747835,1.48
-0.0008550770106323164,1.481
-0.0009572252721314122,1.482
-0.0007793799256707022,1.483
-0.0004331792343314432,1.484
-5.900706233089759e-05,1.485
0.00024207391008001014,1.486
0.00044842473855219125,1.487
0.0006110170249892994,1.488
0.0008214995538262936,1.489
0.0011781460595769924,1.49
0.001751837864967875,1.491
0.00254968754520713,1.492
0.0034838048311392968,1.493
0.004370728794326126,1.494
0.004982252491067607,1.495
0.005124744911564323,1.496
0.00469383380756418,1.497
0.0036833568743152023,1.498
0.002182819015417504,1.499
0.0003871661336345301,1.5
-0.0014233956609496752,1.501
-0.0029692204426201583,1.502
-0.004061227397630216,1.503
-0.004621840145794159,1.504
-0.004656165538839823,1.505
-0.004218848247840934,1.506
-0.0033985187911129144,1.507
-0.002326290075422784,1.508
-0.0011786623922991027,1.509
-0.000149587217401246,1.51
0.0005929236934151436,1.511
0.0009427244177058449,1.512
0.0008699567938214679,1.513
0.00041353084586805345,1.514
-0.00033168672274776434,1.515
-0.0012281785712714387,1.516
-0.002120987129094536,1.517
-0.0028657651061353793,1.518
-0.003348488490472949,1.519
-0.003503615413001079,1.52
-0.0033237643907920917,1.521
-0.0028542118119863928,1.522
-0.00217665037619366,1.523
-0.0013781504222731033,1.524
-0.0005194997784993106,1.525
0.0003666768998362027,1.526
0.0012499177283538975,1.527
0.0020800997758819786,1.528
0.0027944161933959573,1.529
0.003344941085773258,1.53
0.003714279817545715,1.531
0.0039039629598675973,1.532
0.003916737110975722,1.533
0.003760346991421312,1.534
0.003464268364403099,1.535
0.0030780137470174575,1.536
0.0026535248577415132,1.537
0.002234667831906462,1.538
0.0018481471359568643,1.539
0.0014954973279214605,1.54
0.0011638012364645187,1.541
0.0008410791860739134,1.542
0.0005197958890000441,1.543
0.00019959322198892087,1.544
-0.00011096717189127321,1.545
-0.0003998206826359916,1.546
-0.0006573888433720079,1.547
-0.0008781368851548607,1.548
-0.0010558965381722207,1.549
-0.0011787847506046219,1.55
-0.0012329890876496877,1.551
-0.001212952509410831,1.552
-0.0011307278904388336,1.553
-0.0010132755846056483,1.554
-0.0008822382262155006,1.555
-0.0007432383538328028,1.556
-0.0006112139899100632,1.557
-0.0005393311461969628,1.558
-0.0006005589804691854,1.559
-0.0008300763113027032,1.56
-0.0011842759874870574,1.561
-0.0015525726303306316,1.562
-0.0018005269419178245,1.563
-0.0018120029695740851,1.564
-0.001526896622531318,1.565
-0.0009654431527663246,1.566
-0.00023155719252441787,1.567
0.0005002521363986131,1.568
0.001026802074603394,1.569
0.001188609451363954,1.57
0.0009369095169499156,1.571
0.0003541240488773855,1.572
-0.00038181444508481694,1.573
-0.0010560005690519111,1.574
-0.0014679387806309627,1.575
-0.0014754916421688409,1.576
-0.001022491039303403,1.577
-0.0001450856723867082,1.578
0.0010234518666768918,1.579
0.002250590594327385,1.58
0.0032427893953447325,1.581
0.003744603601520097,1.582
0.0036444174547095327,1.583
0.0030042306023298914,1.584
0.002007920914082745,1.585
0.0008804783576701825,1.586
-0.00018474876670656145,1.587
-0.0010626508322581477,1.588
-0.0016813356922309747,1.589
-0.0019919715553093843,1.59
-0.001973820663742815,1.591
-0.001658194048200719,1.592
-0.0011255187620222106,1.593
-0.0004822606379051837,1.594
0.00015902296726635364,1.595
0.0007009030001973289,1.596
0.0010831522649035086,1.597
0.001295972515057566,1.598
0.0013813752553339734,1.599
0.0014107871927095952,1.6
0.0014372721821352104,1.601
0.001460233851157242,1.602
0.0014300172670587454,1.603
0.0012740129323514586,1.604
0.0009267003357622427,1.605
0.0003652030141691285,1.606
-0.0003635593446346789,1.607
-0.0011511738498847298,1.608
-0.0018639324621202676,1.609
-0.0023672840889042554,1.61
-0.0025380544338366017,1.611
-0.0023012009271123576,1.612
-0.001680210997605896,1.613
-0.0008035002886690179,1.614
0.00015365301497556735,1.615
0.001038752064186671,1.616
0.0017401409792280852,1.617
0.002166424200572392,1.618
0.002243611669325226,1.619
0.0019408916754985273,1.62
0.0012979055315564777,1.621
0.00043006981428139046,1.622
-0.0004983013400300477,1.623
-0.0013249113120028097,1.624
-0.0019368719561210842,1.625
-0.0022781536619719185,1.626
-0.0023229259360846985,1.627
-0.0020694150889601546,1.628
-0.0015582473165341062,1.629
-0.000864099306978162,1.63
-6.33457739829181e-05,1.631
0.0007734970480585555,1.632
0.0015658068010807526,1.633
0.0022221836629772486,1.634
0.0026584897567426117,1.635
0.002817903368238249,1.636
0.0026862800879549668,1.637
0.0022938964756008635,1.638
0.0017058601218975264,1.639
0.001013871842988633,1.64
0.00032054009369449185,1.641
-0.000292168478258872,1.642
-0.0007811890869786123,1.643
-0.0011305228274441418,1.644
-0.0013416766394764013,1.645
-0.0014348968600631639,1.646
-0.001429991230980173,1.647
-0.0013169919299541272,1.648
-0.0010640585550184332,1.649
-0.000664959727093032,1.65
-0.0001704473311330794,1.651
0.00033044115137840867,1.652
0.0007445924212537153,1.653
0.0009875635104954776,1.654
0.0009953021577692302,1.655
0.0007603320667418903,1.656
0.0003576445952285954,1.657
-8.71853333090341e-05,1.658
-0.0004679004243858539,1.659
-0.0007428039980537283,1.66
-0.0009239547487385812,1.661
-0.0010322125444185131,1.662
-0.0010682545488382737,1.663
-0.00102211857290282,1.664
-0.0008864680666211535,1.665
-0.0006491694077948641,1.666
-0.0002933333940917866,1.667
0.0001810746773516715,1.668
0.0007369790893092439,1.669
0.0012983616964345318,1.67
0.001772270652092572,1.671
0.002085202553416134,1.672
0.0022039764517185418,1.673
0.002130131754765693,1.674
0.001888235385065445,1.675
0.0015186666155854803,1.676
0.0010679846173702618,1.677
0.0005790146939344111,1.678
8.482086360742008e-05,1.679
-0.000393349386155843,1.68
-0.0008340995919046417,1.681
-0.001195268024949876,1.682
-0.0014108934297999722,1.683
-0.0014166635778339997,1.684
-0.0011911109765336478,1.685
-0.0007793707245964531,1.686
-0.0002763700039688166,1.687
0.00021278747129130062,1.688
0.0006080430945819093,1.689
0.0008719194690581048,1.69
0.0010039915589791734,1.691
0.0010218140028838679,1.692
0.0009462602987778387,1.693
0.0007978161628961704,1.694
0.0005942230995849563,1.695
0.000341338591621444,1.696
3.783317375462873e-05,1.697
-0.0002909840760776727,1.698
-0.0005683499970678517,1.699
-0.0006871852310307978,1.7
-0.0005610646854165848,1.701
-0.00017076169303205683,1.702
0.000411843370788801,1.703
0.0010344381536862698,1.704
0.0015159608486949821,1.705
0.0017116643586784362,1.706
0.001557069914852324,1.707
0.0010840595610282996,1.708
0.0003996272309307199,1.709
-0.0003668780892769254,1.71
-0.001104039225218278,1.711
-0.0017312308433231499,1.712
-0.002213222460352041,1.713
-0.0025823455325483693,1.714
-0.002932790302745953,1.715
-0.003359013417486419,1.716
-0.003868664934521892,1.717
-0.00433732372105105,1.718
-0.004540811475721793,1.719
-0.004251344191367101,1.72
-0.0033505587146474953,1.721
-0.0018933670784386316,1.722
-7.921942532464344e-05,1.723
0.0018394570782426045,1.724
0.003631773210152166,1.725
0.005100866686495023,1.726
0.0060677282455783394,1.727
0.0063908983624627975,1.728
0.006031120225492294,1.729
0.005099180782297542,1.73
0.0038316096058094522,1.731
0.002512005322524329,1.732
0.001397337305316429,1.733
0.0006694676979663146,1.734
0.00039912857187463234,1.735
0.0005303885583962968,1.736
0.0008973554238067624,1.737
0.0012767732275146943,1.738
0.0014736080486682822,1.739
0.0013951925253229316,1.74
0.0010644959349450844,1.741
0.00057981303107623,1.742
5.769521028233233e-05,1.743
-0.00041162434188080245,1.744
-0.0007772063674807374,1.745
-0.0010126461708803904,1.746
-0.001104656000521917,1.747
-0.0010639843525851928,1.748
-0.0009431705445908181,1.749
-0.000833803815675799,1.75
-0.0008249240903752824,1.751
-0.0009463053947018321,1.752
-0.0011617364861893711,1.753
-0.0014262672328329744,1.754
-0.0017377572179592452,1.755
-0.002124722757533417,1.756
-0.0025873843207876064,1.757
-0.003054496601663774,1.758
-0.0033986144036900453,1.759
-0.0034965924652099463,1.76
-0.003289740789853751,1.761
-0.002804929108582498,1.762
-0.002133752734870378,1.763
-0.0013954440535444634,1.764
-0.0007037135187159002,1.765
-0.000140550160936657,1.766
0.0002624376675172091,1.767
0.0005222858744873157,1.768
0.0006827957804567937,1.769
0.0007951653995259844,1.77
0.000909874281516351,1.771
0.0010737729341880231,1.772
0.001324839614068552,1.773
0.0016790128443257744,1.774
0.0021176751721372063,1.775
0.0025902991799229653,1.776
0.0030331733745322946,1.777
0.0033920781338719203,1.778
0.003640135346642904,1.779
0.0037833391745404127,1.78
0.0038406927433058398,1.781
0.0038118286651771757,1.782
0.003674114781352079,1.783
0.0034154714041672546,1.784
0.003054962773167493,1.785
0.0026254624279059323,1.786
0.002145026591611085,1.787
0.001597938332378324,1.788
0.000933785387118405,1.789
9.578133665572696e-05,1.79
-0.00093833913192109,1.791
-0.0021317537797520022,1.792
-0.0033830127990551635,1.793
-0.004533805990862676,1.794
-0.005396748587731165,1.795
-0.005808136552703427,1.796
-0.005689145528658462,1.797
-0.005079300200818771,1.798
-0.004117524415466436,1.799
-0.002984037088840528,1.8
-0.0018415728095494534,1.801
-0.000802613134165543,1.802
7.91912451571804e-05,1.803
0.0007976612735576397,1.804
0.0013582443023337323,1.805
0.0017354660215117557,1.806
0.0018668422935749708,1.807
0.0017031996638276201,1.808
0.0012746055432586018,1.809
0.0007067793781727244,1.81
0.00016991992600210414,1.811
-0.00019849983487764514,1.812
-0.0003407003281019478,1.813
-0.0002749551373398921,1.814
-6.32191734417158e-05,1.815
0.00022708471648006664,1.816
0.0005546963081391281,1.817
0.0009170981734218717,1.818
0.0013429244360799683,1.819
0.0018642191852312076,1.82
0.0024707310328346012,1.821
0.00308246451937061,1.822
0.0035754254240712587,1.823
0.0038363933675698847,1.824
0.003796530389991739,1.825
0.0034315773005971317,1.826
0.0027553657318888152,1.827
0.0018253940831902786,1.828
0.0007433259519633621,1.829
-0.0003663961444786283,1.83
-0.0013773804388085675,1.831
-0.002168190261094324,1.832
-0.002643190043968244,1.833
-0.002773279815611061,1.834
-0.002618475987414135,1.835
-0.002302284536186329,1.836
-0.0019488437556056295,1.837
-0.0016284696172602002,1.838
-0.0013490562062912633,1.839
-0.0010844218051447407,1.84
-0.0008092374314663144,1.841
-0.0005189270778561937,1.842
-0.00022538175991183938,1.843
6.00505507976862e-05,1.844
0.0003341356275355715,1.845
0.0005805864727671723,1.846
0.0007347631775764248,1.847
0.0006959493960409809,1.848
0.00040616536521887993,1.849
-7.89378595275116e-05,1.85
-0.0006003908999752097,1.851
-0.0009725386553942562,1.852
-0.0010671798079077029,1.853
-0.0008708299140193884,1.854
-0.00048783919528470925,1.855
-8.017163297176155e-05,1.856
0.00020630961286173739,1.857
0.0002803882930475083,1.858
0.00011689207568606739,1.859
-0.00024191861887947895,1.86
-0.0007012833992350293,1.861
-0.0011407200488791239,1.862
-0.0014315305358285986,1.863
-0.0014530722362180182,1.864
-0.001129748051222686,1.865
-0.0004725612093310016,1.866
0.00040635161561207835,1.867
0.0013247110826761553,1.868
0.002102911430682668,1.869
0.002632679071307015,1.87
0.0028948658858406985,1.871
0.002929731861052299,1.872
0.0027918129145708026,1.873
0.002518585801348818,1.874
0.0021262099888117916,1.875
0.001631245423057604,1.876
0.0010799646022301114,1.877
0.0005479497058013163,1.878
0.00010740890004267166,1.879
-0.0001956374963435796,1.88
-0.0003466158287552658,1.881
-0.00036950009276212674,1.882
-0.00031895017524462873,1.883
-0.00024549783463654766,1.884
-0.00016167482764257914,1.885
-4.03139570894971e-05,1.886
0.00014409315341273827,1.887
0.00036758194718042666,1.888
0.0005555351272679965,1.889
0.0006240292586867035,1.89
0.0005284268840588302,1.891
0.00029337338962478386,1.892
6.6720212815060914e-06,1.893
-0.00022512637349283207,1.894
-0.00034142177670003026,1.895
-0.0003589628063207225,1.896
-0.0003338474892112591,1.897
-0.00031093507013950735,1.898
-0.00032117666192758604,1.899
-0.00039160764047781155,1.9
-0.0005218648326370165,1.901
-0.0006622871277137961,1.902
-0.0007414647628006725,1.903
-0.0007155857836718982,1.904
-0.0005845925947763919,1.905
-0.0003792502754856843,1.906
-0.00015507873331719962,1.907
1.2400850942687844e-05,1.908
5.21631245691154e-05,1.909
-7.305001039198729e-05,1.91
-0.0003558175635922427,1.911
-0.0007527643910390939,1.912
-0.0012063655292813985,1.913
-0.0016755537458729131,1.914
-0.0021550312170307163,1.915
-0.002651930490482441,1.916
-0.0031298303787401375,1.917
-0.0034785391539223056,1.918
-0.0035484634879334033,1.919
-0.0032252035218787796,1.92
-0.002487171647401061,1.921
-0.0014087472929208136,1.922
-0.00011396509724051662,1.923
0.0012787243018536865,1.924
0.0026786795084561945,1.925
0.004008666107334557,1.926
0.005182739322283352,1.927
0.006100223728650761,1.928
0.0066618736437432215,1.929
0.006803440159636102,1.93
0.006523980412151854,1.931
0.005880518634400872,1.932
0.004954590782882743,1.933
0.003820838237941041,1.934
0.002532873644714553,1.935
0.001132369659872018,1.936
-0.0003218646652080296,1.937
-0.0017361160243081683,1.938
-0.002994785621353252,1.939
-0.003982788291532545,1.94
-0.004604607314224586,1.941
-0.004811359499677187,1.942
-0.004629510783067127,1.943
-0.004160096772381156,1.944
-0.0035334544104112086,1.945
-0.002853366627144581,1.946
-0.0021734641265400817,1.947
-0.001510460687104268,1.948
-0.0008798345165896108,1.949
-0.000324264962152664,1.95
9.837167463155237e-05,1.951
0.00035341072666580285,1.952
0.000458604219747618,1.953
0.0004933089733707425,1.954
0.0005772784231119297,1.955
0.0008128558201035783,1.956
0.0012209585622846067,1.957
0.0017132583255470497,1.958
0.002124442040669548,1.959
0.0022985537154027328,1.96
0.0021725407494846056,1.961
0.0017894436822296998,1.962
0.00124896842090669,1.963
0.0006565883392543975,1.964
9.572417098264926e-05,1.965
-0.0003861377553706548,1.966
-0.0007782370493563822,1.967
-0.00108765569309494,1.968
-0.0013017075247717222,1.969
-0.001360553077490971,1.97
-0.0011688493796905319,1.971
-0.0006358481472974499,1.972
0.0002744021880036107,1.973
0.0014989552626972472,1.974
0.0028669112067237694,1.975
0.00413911064064096,1.976
0.005072625821725645,1.977
0.005471620525260825,1.978
0.0052093380268332665,1.979
0.004232057696508725,1.98
0.002564630197310431,1.981
0.00032566485123247614,1.982
-0.0022583549041274294,1.983
-0.004860375685432561,1.984
-0.0071061144489170435,1.985
-0.008664155779932963,1.986
-0.0093154220941095,1.987
-0.00895454247495833,1.988
-0.007542685505392977,1.989
-0.005109086807591443,1.99
-0.0018557184857600393,1.991
0.0017507737687667195,1.992
0.005040175998168178,1.993
0.007325952614507089,1.994
0.008110477085766666,1.995
0.007241229945390348,1.996
0.004959694825687499,1.997
0.001808137973580173,1.998
-0.001545924426407429,1.999
-0.004460825476251581,2.0
-0.006395447214730615,2.001
-0.006951588678877033,2.002
-0.005961106687297909,2.003
-0.0036071945634125486,2.004
-0.0004768184799867422,2.005
0.0025608145378857635,2.006
0.004668256574511549,2.007
0.005409919674996212,2.008
0.004943937471795836,2.009
0.0038971910356677855,2.01
0.0030214482842362243,2.011
0.0028565248921300014,2.012
0.003536188063684749,2.013
0.004747296596072232,2.014
0.005840020664865657,2.015
0.0061185302794917774,2.016
0.005225500672321697,2.017
0.0033392560391873787,2.018
0.0010101130667562954,2.019
-0.001183611145424638,2.02
-0.0028640089011148463,2.021
-0.0038771497420472577,2.022
-0.00422600888604807,2.023
-0.004019201393734958,2.024
-0.0034278283028033874,2.025
-0.002625693787070876,2.026
-0.0017418300455009476,2.027
-0.0008569884955513833,2.028
-3.578476351330532e-05,2.029
0.0006474250252371434,2.03
0.0011064293641641545,2.031
0.0012429573522607107,2.032
0.0009509009940144048,2.033
0.00013750205819201947,2.034
-0.0012440977300148723,2.035
-0.003140943768993161,2.036
-0.005339227041766338,2.037
-0.007463574176323061,2.038
-0.00906160482679832,2.039
-0.009716719212868234,2.04
-0.00913581037349334,2.041
-0.00719968691570672,2.042
-0.00398352511779953,2.043
0.0002301934498664514,2.044
0.004942698641204767,2.045
0.009468486238044716,2.046
0.013035878206742886,2.047
0.014953373260104657,2.048
0.014796506177956309,2.049
0.01256686866023029,2.05
0.008757973725087522,2.051
0.004218416759625734,2.052
-0.00018553102338461728,2.053
-0.003894836154516832,2.054
-0.006749835993119329,2.055
-0.008823400711865834,2.056
-0.010159772369997504,2.057
-0.010638684145315649,2.058
-0.010054842697450871,2.059
-0.00831263805512142,2.06
-0.005553855864507817,2.061
-0.0021177103359850654,2.062
0.001585521571116934,2.063
0.00514960789081468,2.064
0.008185263380922988,2.065
0.010320918634632512,2.066
0.01122145486061843,2.067
0.010675287974365276,2.068
0.0087426689028122,2.069
0.0058382489778352024,2.07
0.0026346816681952936,2.071
-0.0001741434405846569,2.072
-0.0020982565944288115,2.073
-0.0029575390538502306,2.074
-0.0028724798474144184,2.075
-0.002190616001557902,2.076
-0.0013775695964650255,2.077
-0.0008745458006125754,2.078
-0.0009490496393991935,2.079
-0.001607367249454089,2.08
-0.0026157721344209914,2.081
-0.003609148202090586,2.082
-0.004231855475934543,2.083
-0.004258744840965911,2.084
-0.0036500889623739775,2.085
-0.002529076706090299,2.086
-0.0011172625890259913,2.087
0.00032971767879728914,2.088
0.0015709016984607783,2.089
0.002416971322385416,2.09
0.0027482930066291115,2.091
0.0025140592193143778,2.092
0.0017271694640777792,2.093
0.00045592008192959496,2.094
-0.0011677733452928835,2.095
-0.0029106329777487047,2.096
-0.004431896757224472,2.097
-0.005354723166077567,2.098
-0.0053672175931307005,2.099
-0.004306118537836884,2.1
-0.0022429101827909554,2.101
0.00043610230550285544,2.102
0.0030462533660231494,2.103
0.004774424711997458,2.104
0.004969288758697235,2.105
0.003461445252525037,2.106
0.0007359019159457796,2.107
-0.0022023570235189965,2.108
-0.004211717141570785,2.109
-0.004439154150579681,2.11
-0.002622638514928091,2.111
0.0008121744251034756,2.112
0.0048817503979091,2.113
0.00835425133195753,2.114
0.010153275181863104,2.115
0.009755660046044968,2.116
0.007411088038577434,2.117
0.004005060693765996,2.118
0.0006277098233979904,2.119
-0.0018567654481669346,2.12
-0.0030275080647679553,2.121
-0.002912320524778918,2.122
-0.0018577676938776216,2.123
-0.00033984228544942747,2.124
0.001184394013400409,2.125
0.002338045690730663,2.126
0.0028657225104470056,2.127
0.002695000237637039,2.128
0.0019481601515391445,2.129
0.000845996148621315,2.13
-0.0004311631949832836,2.131
-0.0018038371084501891,2.132
-0.0032514919588825103,2.133
-0.004737620246538591,2.134
-0.006146725837017514,2.135
-0.0072448324640571144,2.136
-0.007694281007204161,2.137
-0.007160747375934297,2.138
-0.005497655798513015,2.139
-0.0029094632722474105,2.14
3.441823796570963e-05,2.141
0.002589572764346896,2.142
0.004157383307604783,2.143
0.004554317874445942,2.144
0.0040419282808261394,2.145
0.003108134466317799,2.146
0.0021983445869098303,2.147
0.0015733904290485066,2.148
0.0012924883917971252,2.149
0.001254467121388583,2.15
0.0012797171280725952,2.151
0.0012064105127596446,2.152
0.0009469333873398449,2.153
0.0004926601609568287,2.154
-0.00010571676955072329,2.155
-0.0007581663534956814,2.156
-0.001354230830744321,2.157
-0.0017995819615448498,2.158
-0.002068450288728627,2.159
-0.002233334233283738,2.16
-0.0024404258772218793,2.161
-0.0028349841490665014,2.162
-0.00345957545009668,2.163
-0.004168061093046073,2.164
-0.004617982211975572,2.165
-0.004367494513636123,2.166
-0.0030427959566317387,2.167
-0.0005139896389092641,2.168
0.00299239887209504,2.169
0.0068929729048864356,2.17
0.010352895863809235,2.171
0.012482871376088887,2.172
0.012651215347817083,2.173
0.010828912647582492,2.174
0.007679879083468078,2.175
0.004234088295885714,2.176
0.001379906913113261,2.177
-0.0004724091115282082,2.178
-0.0014270889886272573,2.179
-0.0019318785763950796,2.18
-0.002547583527958989,2.181
-0.0037377311393952434,2.182
-0.005705577083096066,2.183
-0.008312777057062423,2.184
-0.011103763258328103,2.185
-0.013422486455036603,2.186
-0.014591001737483135,2.187
-0.014096923292448337,2.188
-0.011703382852310913,2.189
-0.0074463586124813,2.19
-0.0016044337282467445,2.191
0.005269918496367093,2.192
0.012298859109582413,2.193
0.018322067406878587,2.194
0.022113503270788516,2.195
0.022780541537693898,2.196
0.020204789804637455,2.197
0.015197970247236844,2.198
0.009155561193160855,2.199
0.003444543808501728,2.2
-0.0010248113953470613,2.201
-0.0038790154253000742,2.202
-0.005143189718925417,2.203
-0.0050533670008255024,2.204
-0.003939726473566597,2.205
-0.002207057770243709,2.206
-0.0003374236570342265,2.207
0.0011582588923176103,2.208
0.0018487134839354634,2.209
0.0015047621609639897,2.21
0.00014741804895356783,2.211
-0.002033399081031417,2.212
-0.004817010184768218,2.213
-0.008028933547279803,2.214
-0.01153799221823953,2.215
-0.015212271420953431,2.216
-0.01883783089881826,2.217
-0.0220171283609369,2.218
-0.02412811646066794,2.219
-0.024424260429301528,2.22
-0.022275780875403214,2.221
-0.017459430176710044,2.222
-0.010355631164930743,2.223
-0.0019400602048252169,2.224
