VaMe,time
0.00046885038126986365,0.001
0.010880294387975081,0.002
0.019875684465606513,0.003
0.02626794430522508,0.004
0.029322282630573834,0.005
0.02890344265352302,0.006
0.025445989663368005,0.007
0.019778948323425034,0.008
0.012971297551780434,0.009
0.006263551118781957,0.01
0.0009325959426759169,0.011
-0.002018445822968058,0.012
-0.0022042968962238583,0.013
-2.3878516927257547e-05,0.014
0.0034221605675437052,0.015
0.006621350418360147,0.016
0.008077506295850908,0.017
0.006775516820326842,0.018
0.002516385108712774,0.019
-0.004042985059209277,0.02
-0.011639416865908256,0.021
-0.018763858317749828,0.022
-0.02398340456363888,0.023
-0.026175020480955182,0.024
-0.02467945842962982,0.025
-0.019423840768085496,0.026
-0.011018618795575523,0.027
-0.0007681668164791497,0.028
0.009455533668875707,0.029
0.017516188116183086,0.03
0.02154961787323603,0.031
0.020647392518995913,0.032
0.015293306931839161,0.033
0.00719215860436168,0.034
-0.001373556087602736,0.035
-0.00823643020171981,0.036
-0.011824057583058593,0.037
-0.011403580901579679,0.038
-0.0071773710510969835,0.039
-0.00027882479929209404,0.04
0.007400045025400719,0.041
0.013650420081035645,0.042
0.016597914857392235,0.043
0.015314922929165095,0.044
0.010120746554853222,0.045
0.0024131014773643945,0.046
-0.00587889652546468,0.047
-0.012905504415111367,0.048
-0.01731404427817965,0.049
-0.01844274563462079,0.05
-0.016345432553636532,0.051
-0.011654971071558608,0.052
-0.005350879176736886,0.053
0.0014109363942236578,0.054
0.007393584746364521,0.055
0.011452068686104596,0.056
0.012799134942283193,0.057
0.011200545234156293,0.058
0.006982011289439922,0.059
0.00087162796230034,0.06
-0.006191894595373324,0.061
-0.013144642758388182,0.062
-0.018783216214256816,0.063
-0.02183587351992414,0.064
-0.021264508253082626,0.065
-0.016678591304440066,0.066
-0.008581657290307807,0.067
0.0017029904892831385,0.068
0.012374884442550403,0.069
0.021607392010660646,0.07
0.027966127699359886,0.071
0.030713570994833177,0.072
0.02989723611239081,0.073
0.026186280374952367,0.074
0.020595278024612862,0.075
0.014209784401636937,0.076
0.007928386697911785,0.077
0.002290452739859949,0.078
-0.002525485798290096,0.079
-0.006569577372859512,0.08
-0.009979692587180575,0.081
-0.012891150611078171,0.082
-0.01535104291912255,0.083
-0.017243892515854994,0.084
-0.01831806136628033,0.085
-0.018315036810901075,0.086
-0.017117766574185938,0.087
-0.014877177199419526,0.088
-0.012087746164277179,0.089
-0.009533877582509724,0.09
-0.008046712512327628,0.091
-0.008080386289889227,0.092
-0.009257495276098902,0.093
-0.010236631812704334,0.094
-0.009168165679588707,0.095
-0.004555774885569139,0.096
0.003955049887666739,0.097
0.015245274721769496,0.098
0.02697389478343826,0.099
0.03625669436041039,0.1
0.04044609234613208,0.101
0.03778622882917748,0.102
0.027880297068656273,0.103
0.011930334942105944,0.104
-0.0073058863848123115,0.105
-0.02594252429849784,0.106
-0.039876693868193716,0.107
-0.04595453996086535,0.108
-0.04282500815136809,0.109
-0.031160991103699312,0.11
-0.013418083630723686,0.111
0.006640533047571319,0.112
0.024666426598469293,0.113
0.036755955391115674,0.114
0.040580614321795876,0.115
0.03611585256422432,0.116
0.025507234283924762,0.117
0.012094781874809073,0.118
-0.0008249688438498368,0.119
-0.010885005537172119,0.12
-0.017011713402769604,0.121
-0.01934704959472683,0.122
-0.018772669071665794,0.123
-0.016226039453925385,0.124
-0.012260208790031743,0.125
-0.007130440862096263,0.126
-0.0011561756222693603,0.127
0.005063442720146058,0.128
0.010655452123594639,0.129
0.014540956763174817,0.13
0.015581926349662798,0.131
0.012958931769377333,0.132
0.006666037453332823,0.133
-0.002224831234530341,0.134
-0.011732358535996792,0.135
-0.019517461172046262,0.136
-0.02357564462376499,0.137
-0.022773266916518545,0.138
-0.017085287622603397,0.139
-0.007559944693204395,0.14
0.003930682667124902,0.141
0.015106645451395265,0.142
0.023787916216377412,0.143
0.028383915070985342,0.144
0.02820078463152944,0.145
0.023432581815578155,0.146
0.014909747818416206,0.147
0.0038139071121907828,0.148
-0.00848650282535758,0.149
-0.020451176698657113,0.15
-0.030356079727154397,0.151
-0.0364506205178983,0.152
-0.03735500659952917,0.153
-0.032548062049017994,0.154
-0.022708079307922988,0.155
-0.009737004806440677,0.156
0.0035919212754470984,0.157
0.014344431196340648,0.158
0.02040225142149535,0.159
0.021330699876384765,0.16
0.018521338725410105,0.161
0.01445468700678261,0.162
0.011636582547085871,0.163
0.011765093407132856,0.164
0.015272903404541249,0.165
0.02123729126783443,0.166
0.027679510705737976,0.167
0.03222192989448173,0.168
0.03287690434859522,0.169
0.028624829182680812,0.17
0.019616866724105165,0.171
0.007058131395612403,0.172
-0.007144399021110575,0.173
-0.02092072892401745,0.174
-0.0326371115724255,0.175
-0.04144685568125266,0.176
-0.047148197204097846,0.177
-0.0497455473142095,0.178
-0.04917206151351295,0.179
-0.04536228308695844,0.18
-0.038499515215760366,0.181
-0.029202841990392695,0.182
-0.018486601251528786,0.183
-0.007458724244188876,0.184
0.003010077970318967,0.185
0.012419626498955972,0.186
0.020592668862947652,0.187
0.027525324271568917,0.188
0.03328271057369237,0.189
0.03802467613050668,0.19
0.04192469736831904,0.191
0.044837786677183675,0.192
0.046054968505369796,0.193
0.044556297272306936,0.194
0.03964026026693221,0.195
0.03130424917613684,0.196
0.020051125463261373,0.197
0.006523361739075733,0.198
-0.008581784617956383,0.199
-0.02434009762844546,0.2
-0.039376903768962246,0.201
-0.051780474991410155,0.202
-0.059373095565218165,0.203
-0.06036832953360354,0.204
-0.054106286143768875,0.205
-0.04153700716868753,0.206
-0.02521147495142967,0.207
-0.008471859254551562,0.208
0.006004589592438307,0.209
0.01724826974525168,0.21
0.02571653237252789,0.211
0.03212395581602533,0.212
0.03657832256722739,0.213
0.03856993874336945,0.214
0.03748108982045775,0.215
0.03310996868734257,0.216
0.025883843517984822,0.217
0.016691343716546802,0.218
0.006556722724315368,0.219
-0.003578744498215533,0.22
-0.01287300942355355,0.221
-0.020465436346940813,0.222
-0.0254143645501755,0.223
-0.02684704927190068,0.224
-0.024285846548946225,0.225
-0.017968351602926997,0.226
-0.008976566378848907,0.227
0.000908039746298765,0.228
0.009597580518621474,0.229
0.015272163824386419,0.23
0.016947762143441708,0.231
0.014696232775473354,0.232
0.009386989670432876,0.233
0.0022291935426459004,0.234
-0.0055726801344985035,0.235
-0.012977687636527664,0.236
-0.01912503219674956,0.237
-0.023303848557457558,0.238
-0.02501096333811384,0.239
-0.02408383498655499,0.24
-0.020692471259650305,0.241
-0.015080951447330421,0.242
-0.007339806490199314,0.243
0.0024153462842643214,0.244
0.013558227943971336,0.245
0.024649351299437815,0.246
0.0335805118621911,0.247
0.03803296937480871,0.248
0.03610220846175356,0.249
0.027069162806879352,0.25
0.012046318311189156,0.251
-0.006022853615918376,0.252
-0.023099887610715623,0.253
-0.03509459938249618,0.254
-0.038890844138543795,0.255
-0.0331844711602587,0.256
-0.018872105790865158,0.257
0.0011438218351626564,0.258
0.022617943275624525,0.259
0.04098562510129458,0.26
0.05261308906908444,0.261
0.05574547882359851,0.262
0.050548273210051564,0.263
0.038424043417990016,0.264
0.021360602945472814,0.265
0.0016182689387638227,0.266
-0.018444226039182016,0.267
-0.0365664798756068,0.268
-0.05083128031842765,0.269
-0.05988670296520864,0.27
-0.06304048759726052,0.271
-0.060209551561286524,0.272
-0.05175542429959507,0.273
-0.03832355708433172,0.274
-0.020880859231551058,0.275
-0.0009364931207064319,0.276
0.019281637623766956,0.277
0.03688136304840561,0.278
0.048706435139960064,0.279
0.05209076656790668,0.28
0.04578998519376304,0.281
0.030734767898164872,0.282
0.010122055832957734,0.283
-0.011392446282831653,0.284
-0.029033591294535376,0.285
-0.03912941451596208,0.286
-0.039796955224943996,0.287
-0.031051690159555882,0.288
-0.01459682513828358,0.289
0.006479024033322589,0.29
0.02814409952080376,0.291
0.046115987541090156,0.292
0.05674999517507668,0.293
0.05793609821597977,0.294
0.04970515717160126,0.295
0.03424226972431714,0.296
0.015221694552384472,0.297
-0.0033236784986434924,0.298
-0.018151622308238125,0.299
-0.027514578930294065,0.3
-0.031269805221289006,0.301
-0.03059124893386101,0.302
-0.02746303983802098,0.303
-0.024022977869265612,0.304
-0.021917665632345096,0.305
-0.02186388307340278,0.306
-0.02347598562470081,0.307
-0.025341457987737077,0.308
-0.025379085145182875,0.309
-0.02153924874301952,0.31
-0.0127046185523289,0.311
0.00065763246201322,0.312
0.016491067468355956,0.313
0.03175209907249567,0.314
0.04328205250618321,0.315
0.048630274243872756,0.316
0.04663029190191695,0.317
0.037655191017854375,0.318
0.023521747803166973,0.319
0.007020951120917122,0.32
-0.008798976927833498,0.321
-0.021305718662274584,0.322
-0.028724267302200283,0.323
-0.030386777395475725,0.324
-0.026834029022728568,0.325
-0.019684717714258237,0.326
-0.011222308027680322,0.327
-0.0037901843228829554,0.328
0.0008196321774969587,0.329
0.0017240752184652629,0.33
-0.0010754782689678052,0.331
-0.006830241802630901,0.332
-0.014029162818572699,0.333
-0.020472105674281267,0.334
-0.02373685598815048,0.335
-0.021894445876616483,0.336
-0.01416107754259975,0.337
-0.0013274851187453803,0.338
0.014204506171661253,0.339
0.029010738127927104,0.34
0.03977386443493499,0.341
0.04438695838608729,0.342
0.04246513301030489,0.343
0.03518721517047038,0.344
0.02477093468916295,0.345
0.013856957261887811,0.346
0.004856322876832213,0.347
-0.0007237882624366879,0.348
-0.002714966922146159,0.349
-0.002173533145289676,0.35
-0.0008494709903623274,0.351
-0.000632645654115245,0.352
-0.0031040969178944946,0.353
-0.009124575388474077,0.354
-0.0184632590494775,0.355
-0.029569954370710264,0.356
-0.039726309753726076,0.357
-0.04579203818969718,0.358
-0.04538265552636023,0.359
-0.03789522390285357,0.36
-0.02481589286974413,0.361
-0.009204579805082455,0.362
0.005321161088078898,0.363
0.015702449947676524,0.364
0.02031910571913452,0.365
0.019348599976723526,0.366
0.01451506331227035,0.367
0.008394879036953783,0.368
0.0035351624800060133,0.369
0.0016521631506245722,0.37
0.0031534801176155685,0.371
0.007141091097230846,0.372
0.011917195403247828,0.373
0.015781720196009916,0.374
0.017786849000043608,0.375
0.018176207751423253,0.376
0.01826114134457631,0.377
0.01962988091175637,0.378
0.02301456446632673,0.379
0.027544797917878873,0.38
0.03097969729633311,0.381
0.030740366959973148,0.382
0.025005204603697512,0.383
0.013396928576258746,0.384
-0.002801668692439576,0.385
-0.020923865719056266,0.386
-0.03763568200812305,0.387
-0.04983228937927551,0.388
-0.05537383684078047,0.389
-0.05346670526547608,0.39
-0.04469943335669322,0.391
-0.030826695759453085,0.392
-0.014403902444573942,0.393
0.0016838467857847033,0.394
0.014742470773119064,0.395
0.022643757326613376,0.396
0.023979050462234978,0.397
0.01821486012414821,0.398
0.0059953778646436385,0.399
-0.010635078678072991,0.4
-0.02840887589691965,0.401
-0.04339510543268019,0.402
-0.05164400555594547,0.403
-0.04984565417906091,0.404
-0.03628152815135775,0.405
-0.011953656021149325,0.406
0.019020829247686367,0.407
0.05044055269514527,0.408
0.07595214578290803,0.409
0.0907981757809182,0.41
0.09281407734267684,0.411
0.08262552948343402,0.412
0.06313390026787513,0.413
0.03847356914130077,0.414
0.01273905083001486,0.415
-0.011071349432956002,0.416
-0.03137196838383109,0.417
-0.047451551767672726,0.418
-0.058655225659157706,0.419
-0.06398173649630856,0.42
-0.0623407268930726,0.421
-0.053313658442949705,0.422
-0.037924370438623456,0.423
-0.018811692431448465,0.424
0.0003685768901659186,0.425
0.015993747086780412,0.426
0.025516207795133826,0.427
0.028081501211395132,0.428
0.02454511607269491,0.429
0.017049948981622494,0.43
0.008356674999363552,0.431
0.0009862254345664417,0.432
-0.0035354222964505927,0.433
-0.004811721790811437,0.434
-0.0030524990159238657,0.435
0.001440853905782628,0.436
0.008230551537260647,0.437
0.016347604781360117,0.438
0.02409521211687886,0.439
0.02928331685800426,0.44
0.02978074470644284,0.441
0.024137540642327596,0.442
0.012047683854205158,0.443
-0.005408131781759766,0.444
-0.025798694988502582,0.445
-0.045869583499711146,0.446
-0.06247677729020078,0.447
-0.07335065780947987,0.448
-0.07726152213349448,0.449
-0.07371874027395886,0.45
-0.06258768071744304,0.451
-0.0439335369475901,0.452
-0.018240500985443896,0.453
0.01307945330027524,0.454
0.04721206438964506,0.455
0.07984514826713461,0.456
0.10559907857326717,0.457
0.11899511516543888,0.458
0.11587224025685805,0.459
0.09487966751595836,0.46
0.05843532826128204,0.461
0.012732522132537066,0.462
-0.03330834870352716,0.463
-0.07017165365112182,0.464
-0.09051339006315316,0.465
-0.09131529722236102,0.466
-0.07444478260574171,0.467
-0.04576877088912342,0.468
-0.013403263051187485,0.469
0.014502613805710876,0.47
0.03187064762297341,0.471
0.035925248574015786,0.472
0.027368953252263014,0.473
0.009987703906914872,0.474
-0.010094135618368427,0.475
-0.025854699754944133,0.476
-0.03153121886203557,0.477
-0.024610894716863323,0.478
-0.006673554396031406,0.479
0.017141583572538248,0.48
0.03985000560390489,0.481
0.055024456289032,0.482
0.05886926013266287,0.483
0.051133849296013785,0.484
0.03483120002275012,0.485
0.015086558111627575,0.486
-0.002576339589851751,0.487
-0.014008407326235693,0.488
-0.017600319625104163,0.489
-0.014454541799761772,0.49
-0.007727721935351035,0.491
-0.0015770611303986646,0.492
4.393303717872976e-05,0.493
-0.005404981998928187,0.494
-0.01817047053178536,0.495
-0.036047184436486183,0.496
-0.0550743484121557,0.497
-0.07077478574902041,0.498
-0.07937370986999975,0.499
-0.07866740303303968,0.5
-0.06847319020772488,0.501
-0.050498174924940686,0.502
-0.027499104404968076,0.503
-0.002129823815356704,0.504
0.023717764329041078,0.505
0.04872842793474854,0.506
0.07161230905617905,0.507
0.09081680949933756,0.508
0.10466081337335144,0.509
0.11172327541636089,0.51
0.1113046800056697,0.511
0.10371827306307053,0.512
0.09010239886836545,0.513
0.07173742514693017,0.514
0.049313665872513214,0.515
0.02264743365965343,0.516
-0.008970743322897403,0.517
-0.045902383670987014,0.518
-0.08718704739214629,0.519
-0.12999322463269655,0.52
-0.16968908785443707,0.521
-0.20048697295531082,0.522
-0.21653025669127038,0.523
-0.21303366429013987,0.524
-0.18713773239293705,0.525
-0.1387068456903361,0.526
-0.0712114961409155,0.527
0.008026137858693544,0.528
0.08891148536612282,0.529
0.1607348737495408,0.53
0.21461473524603997,0.531
0.24531317357136811,0.532
0.25174853603133335,0.533
0.2363285251723983,0.534
0.20379837060357314,0.535
0.16000395061459527,0.536
0.11062008763061786,0.537
0.060127743742729535,0.538
0.011428283113986696,0.539
-0.03383449030738115,0.54
-0.07448599306756562,0.541
-0.10911642306227211,0.542
-0.13605179873607234,0.543
-0.1540261271719528,0.544
-0.16287788550814616,0.545
-0.16350915428983592,0.546
-0.1570296449192872,0.547
-0.1437174969715073,0.548
-0.12260725114511306,0.549
-0.09215560551273287,0.55
-0.0517001334067096,0.551
-0.0029381363401904934,0.552
0.04936375599989002,0.553
0.09795837007540965,0.554
0.13494336908044255,0.555
0.1541827113050365,0.556
0.15332290785535754,0.557
0.13433221603375256,0.558
0.10226696584640861,0.559
0.06320641377100503,0.56
0.022640313932002908,0.561
-0.015168660164086767,0.562
-0.04703759690146791,0.563
-0.07025710371620489,0.564
-0.08203785861345815,0.565
-0.07981059261616041,0.566
-0.06269352315257708,0.567
-0.03320970337404999,0.568
0.002173799689733686,0.569
0.034293495499491344,0.57
0.05394692968013247,0.571
0.05501815638665717,0.572
0.0367755869169463,0.573
0.004360931855712623,0.574
-0.032672200364824155,0.575
-0.06332677405404215,0.576
-0.07872818592200188,0.577
-0.07492730952520399,0.578
-0.053890401280719834,0.579
-0.022663299306503272,0.58
0.008807460919913563,0.581
0.030810921045567354,0.582
0.037123413870279495,0.583
0.027006601214563667,0.584
0.005079451933416442,0.585
-0.020712660987924902,0.586
-0.04197212268765123,0.587
-0.05241314981769679,0.588
-0.04933983370420285,0.589
-0.03362041302420954,0.59
-0.008409612620660218,0.591
0.022575007143453715,0.592
0.056294631060908394,0.593
0.09024759578498151,0.594
0.1211795198863425,0.595
0.14422346163086025,0.596
0.15356411190699454,0.597
0.14443654470197959,0.598
0.11546795440479816,0.599
0.06995959589015793,0.6
0.015187792604287674,0.601
-0.03979320699611836,0.602
-0.08655351475193367,0.603
-0.11906017972887209,0.604
-0.13461646031406635,0.605
-0.13396200971609876,0.606
-0.1205430412092442,0.607
-0.09914794562655264,0.608
-0.07441216943586197,0.609
-0.049695730217019306,0.61
-0.026755910013068207,0.611
-0.006361734619151442,0.612
0.010691154637370024,0.613
0.022905576915734242,0.614
0.02819338754500307,0.615
0.024966125613150047,0.616
0.01371808820780099,0.617
-0.0020375328667058008,0.618
-0.016218835099850327,0.619
-0.022130375264988743,0.62
-0.015589065627316217,0.621
0.002468933122585009,0.622
0.026092655317412554,0.623
0.04721267567916436,0.624
0.05950236792522123,0.625
0.061207722528964885,0.626
0.05546295477894157,0.627
0.047998364336653374,0.628
0.043725040663099436,0.629
0.04411645054016819,0.63
0.04669169939291037,0.631
0.04668553044869369,0.632
0.039715801329061606,0.633
0.023890511152617554,0.634
0.0005184038199455978,0.635
-0.02655654508888857,0.636
-0.05250260500994243,0.637
-0.07324416377645851,0.638
-0.0867597274777107,0.639
-0.09343542082778955,0.64
-0.0952976635770902,0.641
-0.09456618310778579,0.642
-0.09227032244544016,0.643
-0.08730874229918,0.644
-0.07622992476930096,0.645
-0.05431947290653319,0.646
-0.018139996707806534,0.647
0.03149175948015136,0.648
0.08788543137952505,0.649
0.13966627550724067,0.65
0.17446929384158924,0.651
0.18317550304768238,0.652
0.1630802316292083,0.653
0.11914790830277909,0.654
0.06249750752786963,0.655
0.006520514834230416,0.656
-0.03735163408941209,0.657
-0.06265448282008822,0.658
-0.06908960126252575,0.659
-0.06168906862494676,0.66
-0.048390827491265574,0.661
-0.03702148518935369,0.662
-0.03265794591375612,0.663
-0.03626028951533619,0.664
-0.04501804656370916,0.665
-0.054027522360467234,0.666
-0.05845737385891871,0.667
-0.055329280191316985,0.668
-0.04430844102533203,0.669
-0.027406812265874613,0.67
-0.00788396877844481,0.671
0.01107020448615846,0.672
0.027072781247902404,0.673
0.038534166114351225,0.674
0.04461396957218968,0.675
0.045412727166303714,0.676
0.04185179547540848,0.677
0.03512465188746242,0.678
0.026192479544172042,0.679
0.01570111345472135,0.68
0.004300183195065204,0.681
-0.006983922839794574,0.682
-0.016549332660643304,0.683
-0.022412268247951568,0.684
-0.022979567840641615,0.685
-0.017904110377858093,0.686
-0.00834264966972859,0.687
0.0034372577541866038,0.688
0.014781768687095966,0.689
0.023242278548580908,0.69
0.026637761709434826,0.691
0.022922626725491498,0.692
0.010654692102265674,0.693
-0.009827492672922902,0.694
-0.035311652560567945,0.695
-0.05964981784044315,0.696
-0.07511718379657566,0.697
-0.07490189650281193,0.698
-0.05592242050906449,0.699
-0.020705966805217094,0.7
0.022900367064197447,0.701
0.06440015033186794,0.702
0.09442896985561273,0.703
0.10762658254474274,0.704
0.10346972046745967,0.705
0.08552432194722377,0.706
0.059847484148302876,0.707
0.032726260220345985,0.708
0.008431364555314971,0.709
-0.01171855344650896,0.71
-0.02859108707622831,0.711
-0.043883518480870035,0.712
-0.059199610302678445,0.713
-0.07519414775962902,0.714
-0.09033983007137127,0.715
-0.10022759396502136,0.716
-0.09876287842567032,0.717
-0.08119975609533187,0.718
-0.04709683772370736,0.719
-0.001286086520967282,0.72
0.04737445181833088,0.721
0.08862267716254496,0.722
0.11380869412480722,0.723
0.11833467683985414,0.724
0.10281775888213167,0.725
0.07262516381558472,0.726
0.03583065704462261,0.727
0.0004203832286273868,0.728
-0.0280288287423542,0.729
-0.047523220090204446,0.73
-0.05947944274920747,0.731
-0.0671441726151361,0.732
-0.07317073112925015,0.733
-0.07767257072853608,0.734
-0.07806571441236061,0.735
-0.07097069250176818,0.736
-0.05494914035766117,0.737
-0.03219104791594368,0.738
-0.007811565071697442,0.739
0.013005785095997927,0.74
0.027874007644856844,0.741
0.03796235545811274,0.742
0.046527077271161794,0.743
0.05642612358231962,0.744
0.06810268749753023,0.745
0.07927398167656524,0.746
0.08627682527693784,0.747
0.08577221376474607,0.748
0.07599013973485584,0.749
0.057547815799114006,0.75
0.033500872598623534,0.751
0.008208649190067367,0.752
-0.014402204865633407,0.753
-0.03204665805650329,0.754
-0.044223121278712266,0.755
-0.051651167354222205,0.756
-0.05555440541774431,0.757
-0.056939801960633404,0.758
-0.056100624639360844,0.759
-0.05280818697984346,0.76
-0.04707514047091866,0.761
-0.03966735244581403,0.762
-0.03183759747395247,0.763
-0.02462126341318785,0.764
-0.018341467941610463,0.765
-0.012602763584641413,0.766
-0.006606865089189597,0.767
0.0005197028028791978,0.768
0.009452711778505141,0.769
0.02034571937323842,0.77
0.032558149725169176,0.771
0.04468828426868161,0.772
0.05495944484967089,0.773
0.061760750200723843,0.774
0.06410878292713901,0.775
0.06180484867875258,0.776
0.055206977071464464,0.777
0.04485732105668781,0.778
0.03114998824074383,0.779
0.014027826182334613,0.78
-0.007000565016411604,0.781
-0.032177978480605114,0.782
-0.06047765862565884,0.783
-0.0888481676009183,0.784
-0.11207968795474942,0.785
-0.12368479807577919,0.786
-0.11800986539308228,0.787
-0.09289611203516593,0.788
-0.05137094823282741,0.789
-0.001295499580020185,0.79
0.04666288260836564,0.791
0.08177312094282566,0.792
0.09616763785908014,0.793
0.08748639882582193,0.794
0.060260297999799706,0.795
0.02485513546026162,0.796
-0.006170664591096091,0.797
-0.022620014361913,0.798
-0.019979222854217417,0.799
-0.0005822922074645564,0.8
0.027515957442917013,0.801
0.053781330388781294,0.802
0.06915573318813265,0.803
0.06867491126883327,0.804
0.05210410307477308,0.805
0.023405649338664767,0.806
-0.010245723334795637,0.807
-0.04000621354478082,0.808
-0.05783690016726573,0.809
-0.059411027584434645,0.81
-0.04593639743670576,0.811
-0.02364470982457556,0.812
-0.0011172930276840748,0.813
0.01408573081486212,0.814
0.017814769238359233,0.815
0.010015961407272806,0.816
-0.005846148804337587,0.817
-0.02401748182839635,0.818
-0.038204635115273645,0.819
-0.043558553422379166,0.82
-0.03802269415945417,0.821
-0.022373447468036586,0.822
0.0005324398556051051,0.823
0.02611747487193955,0.824
0.04816478499051984,0.825
0.0600149855335613,0.826
0.05707796894531118,0.827
0.03916193365070821,0.828
0.011048695445690693,0.829
-0.019353604035210813,0.83
-0.044294380417972255,0.831
-0.058710213878760624,0.832
-0.06092989718225421,0.833
-0.052055579131729014,0.834
-0.03479599001948029,0.835
-0.012591711547261015,0.836
0.01056436491681942,0.837
0.03012264459016267,0.838
0.041498346908630926,0.839
0.041472590144171484,0.84
0.029960090640150698,0.841
0.010689585279672283,0.842
-0.010266349622793235,0.843
-0.027343340843036003,0.844
-0.03755394778888404,0.845
-0.04052123484831679,0.846
-0.03716059858292203,0.847
-0.028323021774649,0.848
-0.014307405232908924,0.849
0.004641970631524442,0.85
0.02751820036951723,0.851
0.051982772380733636,0.852
0.07428974506532515,0.853
0.08992915922003607,0.854
0.0946776910162746,0.855
0.08544823444293924,0.856
0.061081310232770684,0.857
0.023372108002978724,0.858
-0.02227632132902503,0.859
-0.06735457140361462,0.86
-0.10193858079077539,0.861
-0.11713334521814385,0.862
-0.10773665782462784,0.863
-0.07437877427038027,0.864
-0.02418014075415468,0.865
0.030762485918914857,0.866
0.07689254417322641,0.867
0.10344331838965423,0.868
0.10568154536269027,0.869
0.08595010331958612,0.87
0.05219274280155914,0.871
0.014652468222242369,0.872
-0.01762771445567419,0.873
-0.03899985855615247,0.874
-0.0476550178599584,0.875
-0.04480684263518366,0.876
-0.03363619593574968,0.877
-0.018732828694604617,0.878
-0.0057188012947169305,0.879
-0.0004098748576145159,0.88
-0.0074627648062215975,0.881
-0.02875782199856632,0.882
-0.061972971128820956,0.883
-0.10020603985251025,0.884
-0.1334022136942287,0.885
-0.15156950257403087,0.886
-0.14830401055755357,0.887
-0.12242717698053401,0.888
-0.07736082980230383,0.889
-0.019604802235263376,0.89
0.043025722185111075,0.891
0.10330562601067013,0.892
0.15576903853744428,0.893
0.19647608632187835,0.894
0.22219680367344993,0.895
0.23011250845792067,0.896
0.21822250809475183,0.897
0.1862670621045539,0.898
0.13666263527079087,0.899
0.07475536751277473,0.9
0.008158349457458773,0.901
-0.054692303061390196,0.902
-0.10614721015394722,0.903
-0.1403495063430274,0.904
-0.15394131574861847,0.905
-0.1472228787842932,0.906
-0.12511270607009892,0.907
-0.09635209154811088,0.908
-0.07057372926539841,0.909
-0.05466765231795404,0.91
-0.050475527920277874,0.911
-0.0547815820883687,0.912
-0.06102880826131413,0.913
-0.06161478648089035,0.914
-0.05012088165883151,0.915
-0.02336458749554471,0.916
0.017119693746276806,0.917
0.06490963685114673,0.918
0.11008270911497348,0.919
0.14191399147804049,0.92
0.1522605901050938,0.921
0.13832620742048046,0.922
0.10354950596797807,0.923
0.056356970336042235,0.924
0.00739984099135791,0.925
-0.033679704357600676,0.926
-0.060746772790044874,0.927
-0.07205903401515577,0.928
-0.06960161794290853,0.929
-0.05763372727422696,0.93
-0.04111510250694693,0.931
-0.02436801079473995,0.932
-0.010185328824675106,0.933
0.0004913843558408516,0.934
0.008143443003700155,0.935
0.013404614263008749,0.936
0.01563453969213746,0.937
0.012602716159591923,0.938
0.0017353436561602588,0.939
-0.017918564432379692,0.94
-0.044262278464901404,0.941
-0.07209275697781013,0.942
-0.09432208332074009,0.943
-0.1036897480745009,0.944
-0.09442776007484703,0.945
-0.06393437897801157,0.946
-0.014317006495758445,0.947
0.0470024655059312,0.948
0.1084690007628568,0.949
0.15745452154880096,0.95
0.18419483728909986,0.951
0.18477817322392032,0.952
0.16158901505101486,0.953
0.12121934796614,0.954
0.07153658020403202,0.955
0.019486242653913473,0.956
-0.029969939790067263,0.957
-0.07383371953748062,0.958
-0.11010702706639297,0.959
-0.13656967228449698,0.96
-0.15038062699390023,0.961
-0.14896960258787975,0.962
-0.13145599458204185,0.963
-0.0994890494694272,0.964
-0.05722580286285606,0.965
-0.01070603937429703,0.966
0.033214663497718094,0.967
0.06822103274020148,0.968
0.08984122726236632,0.969
0.09621327479415745,0.97
0.08818877627594016,0.971
0.0690449316185191,0.972
0.043785438175859004,0.973
0.017944916178444768,0.974
-0.0038123941155631513,0.975
-0.018890802281141865,0.976
-0.027278637254172202,0.977
-0.031143719893073032,0.978
-0.03370025839045359,0.979
-0.03742388673415594,0.98
-0.042028972540142095,0.981
-0.043711197050479114,0.982
-0.037002414143031265,0.983
-0.018496628697274253,0.984
0.010211543937488457,0.985
0.04250100734469059,0.986
0.06937920843401857,0.987
0.08304063650944392,0.988
0.07961045464072024,0.989
0.06011598036309722,0.99
0.02970878093106615,0.991
-0.004205266790630818,0.992
-0.03432598102951524,0.993
-0.05570540129209549,0.994
-0.06694709139457303,0.995
-0.06978999024590649,0.996
-0.06759173035877511,0.997
-0.06349733147088853,0.998
-0.05874730080215837,0.999
-0.05194928920872858,1.0
-0.03997886033023323,1.001
-0.019828244385966674,1.002
0.00965103727840999,1.003
0.0464063766657357,1.004
0.084644241363516,1.005
0.11597896224553104,1.006
0.1322389501632324,1.007
0.12855239136895966,1.008
0.10520479646340695,1.009
0.06742576509513044,1.01
0.02328581259184242,1.011
-0.019130084921694476,1.012
-0.05393503982621496,1.013
-0.07817358996642747,1.014
-0.09102151855866913,1.015
-0.09241355340977675,1.016
-0.0825177491186334,1.017
-0.06259331748454193,1.018
-0.03612407888746209,1.019
-0.008689945849770583,1.02
0.013658546672043791,1.021
0.02652250875503257,1.022
0.028625796377649,1.023
0.02194079690489489,1.024
0.010402676367926671,1.025
-0.002044928899716366,1.026
-0.012787314400556502,1.027
-0.020568660282459544,1.028
-0.024700907649083198,1.029
-0.024397475009819418,1.03
-0.01880181234471431,1.031
-0.007557750614990893,1.032
0.008628859058107688,1.033
0.027668615939874644,1.034
0.04597846434735017,1.035
0.058880575571168665,1.036
0.06193550725631754,1.037
0.052944298109649957,1.038
0.03339652416720186,1.039
0.008165938432883914,1.04
-0.01643112159236503,1.041
-0.03498756639730779,1.042
-0.044713361500251445,1.043
-0.04606558584471034,1.044
-0.042119080606090716,1.045
-0.03685646855491114,1.046
-0.03312991269600042,1.047
-0.031169928005885725,1.048
-0.02847949105413985,1.049
-0.02166723937876663,1.05
-0.009175439711844485,1.051
0.007303783804479203,1.052
0.02346003675691249,1.053
0.03418254810120344,1.054
0.03601586721072878,1.055
0.029588959578455244,1.056
0.02018377690259598,1.057
0.015098651625538664,1.058
0.01911317763835118,1.059
0.03121247610136238,1.06
0.0447318401283778,1.061
0.05073694861566976,1.062
0.042710898205436616,1.063
0.019901282123088764,1.064
-0.012235411654395881,1.065
-0.04397502728402034,1.066
-0.06461289044470009,1.067
-0.06635508172503247,1.068
-0.047514251327137005,1.069
-0.013520272338144214,1.07
0.024923134113621834,1.071
0.05590598639415452,1.072
0.07066583766887519,1.073
0.06615115512703588,1.074
0.045066606340647006,1.075
0.01412319631872031,1.076
-0.018487358329037116,1.077
-0.0457109686856296,1.078
-0.06350394634982062,1.079
-0.07112442926785979,1.08
-0.06998734640956099,1.081
-0.06211361439870837,1.082
-0.049104037507401985,1.083
-0.03197813134463465,1.084
-0.011717939976185273,1.085
0.009927859417442291,1.086
0.029995208661752804,1.087
0.044641453854172695,1.088
0.05016805264766121,1.089
0.04443130657163162,1.09
0.028160089362053622,1.091
0.00532037015573599,1.092
-0.01786780310847528,1.093
-0.03469850757622072,1.094
-0.03979463970163776,1.095
-0.03053974546521191,1.096
-0.007854427422248598,1.097
0.023789727460193606,1.098
0.05706466537607479,1.099
0.08316816825779137,1.1
0.09386017476858825,1.101
0.0838032394595817,1.102
0.05251226357404493,1.103
0.005182088181232142,1.104
-0.048186755520354854,1.105
-0.09545315012479182,1.106
-0.12593215640772096,1.107
-0.1335684688288015,1.108
-0.11860489606048727,1.109
-0.08704018232810538,1.11
-0.04795941586078435,1.111
-0.009951165469933274,1.112
0.021868877613475304,1.113
0.04691765095191356,1.114
0.06753925602841805,1.115
0.08580211011049467,1.116
0.10119350768254261,1.117
0.11075993406147805,1.118
0.11114178445250207,1.119
0.10067089453767357,1.12
0.080083967487067,1.121
0.051937587968943336,1.122
0.019653053461439227,1.123
-0.013341159360129749,1.124
-0.04403627719417524,1.125
-0.06951564252721538,1.126
-0.0866343332471115,1.127
-0.09264850469440641,1.128
-0.0863522852878254,1.129
-0.0687316647353117,1.13
-0.04285161244614267,1.131
-0.013374069697837923,1.132
0.013890077744788062,1.133
0.03260640248339289,1.134
0.03735469127368757,1.135
0.025922014522061505,1.136
0.0011810468315792202,1.137
-0.029324495971435043,1.138
-0.05646149192302354,1.139
-0.07314988191986958,1.14
-0.0761601877702307,1.141
-0.06564302153527181,1.142
-0.04353074122029888,1.143
-0.012288704844066892,1.144
0.025087858493836733,1.145
0.06436452132600252,1.146
0.09991951184471642,1.147
0.12556211089994843,1.148
0.13589910521620308,1.149
0.12781944921505828,1.15
0.10158493180702179,1.151
0.0610241772843673,1.152
0.012725368372574698,1.153
-0.03541711695122208,1.154
-0.07562904493142915,1.155
-0.10135349529090976,1.156
-0.10842746765536379,1.157
-0.096578424922955,1.158
-0.07046964582271814,1.159
-0.03894938815217128,1.16
-0.012132415009779558,1.161
0.002435609517958877,1.162
0.002735362315433855,1.163
-0.00715228340407268,1.164
-0.019498545648846934,1.165
-0.02699050971950044,1.166
-0.02561482390445346,1.167
-0.015205715378661729,1.168
0.0013736560567032697,1.169
0.019819023830902144,1.17
0.03655034641559785,1.171
0.050120608673253284,1.172
0.06066555277051386,1.173
0.06799645395446521,1.174
0.07009952995734625,1.175
0.06368190241414519,1.176
0.04686995096770271,1.177
0.021788376267401807,1.178
-0.0054798347373094854,1.179
-0.027320248087402445,1.18
-0.037522026942288546,1.181
-0.03374099625082704,1.182
-0.01876526044969587,1.183
0.0003846941835587867,1.184
0.015313996453045148,1.185
0.01966438974896005,1.186
0.0114203778112396,1.187
-0.006938171640025073,1.188
-0.030102092859640894,1.189
-0.05216834804080095,1.19
-0.06842781601180993,1.191
-0.07622612261355934,1.192
-0.07470977932453385,1.193
-0.06387205760816345,1.194
-0.04392418807539527,1.195
-0.015673934270593864,1.196
0.018323071371987156,1.197
0.05289236439068848,1.198
0.0809000855647117,1.199
0.09556577768812564,1.2
0.09305801392545306,1.201
0.07394205019132015,1.202
0.043055183978182775,1.203
0.008072319432861661,1.204
-0.022753289903238726,1.205
-0.04297767226204404,1.206
-0.04962769955104902,1.207
-0.04349361890048999,1.208
-0.028055950543405483,1.209
-0.007854197842664251,1.21
0.012687355611093055,1.211
0.02972013204237044,1.212
0.04021324357092319,1.213
0.04219608376454853,1.214
0.03466471518808562,1.215
0.01724910438219714,1.216
-0.009585902018621051,1.217
-0.043479654851195745,1.218
-0.07901814759511584,1.219
-0.1077616287457406,1.22
-0.120101112641057,1.221
-0.10829840814350201,1.222
-0.06966400202926834,1.223
-0.009035579855274117,1.224
0.06097987805761576,1.225
0.12340689133305104,1.226
0.1628547768431627,1.227
0.1708457184330038,1.228
0.14780203373656045,1.229
0.1012740904837778,1.23
0.04235306702637008,1.231
-0.017638169088579708,1.232
-0.0695863526202499,1.233
-0.10796624107435662,1.234
-0.13076830107579934,1.235
-0.13831773572260814,1.236
-0.131982622718117,1.237
-0.11372796956168582,1.238
-0.08669096757847988,1.239
-0.05550781698696803,1.24
-0.02504817346014184,1.241
0.0017722211508447421,1.242
0.025154346794694173,1.243
0.04758770523214643,1.244
0.07167140381236416,1.245
0.09788259625930135,1.246
0.12336738231662855,1.247
0.14241302561460484,1.248
0.14856499863141992,1.249
0.13744484147928726,1.25
0.10893568402567255,1.251
0.06769462150425568,1.252
0.021715494092696234,1.253
-0.020437646823549416,1.254
-0.05245086686381435,1.255
-0.07182628233031915,1.256
-0.07966874549654751,1.257
-0.0791403197032363,1.258
-0.07368942863788581,1.259
-0.06609083274471712,1.26
-0.05828326110446933,1.261
-0.05129042338463913,1.262
-0.04513956587151192,1.263
-0.03933943767939349,1.264
-0.03392061750213909,1.265
-0.030125703125908006,1.266
-0.029906043759797035,1.267
-0.03442881363258386,1.268
-0.042674098161875215,1.269
-0.05106407274150289,1.27
-0.05431348505698952,1.271
-0.047230138460744656,1.272
-0.0269947106647831,1.273
0.0050966507029143356,1.274
0.04367339200437046,1.275
0.08128213696083031,1.276
0.11109423020525215,1.277
0.12889256469008065,1.278
0.1336190749035618,1.279
0.1265736417359108,1.28
0.10988878969905941,1.281
0.08507674927720558,1.282
0.05268405589470012,1.283
0.013613480716703631,1.284
-0.029094932995513405,1.285
-0.06987022942501463,1.286
-0.10193467858424174,1.287
-0.1193793694990007,1.288
-0.1189525546833424,1.289
-0.1009289445465917,1.29
-0.06899301079211095,1.291
-0.029403377034569283,1.292
0.010320958117267543,1.293
0.04303516082546185,1.294
0.06362055606690555,1.295
0.07000727541352077,1.296
0.06314826821585798,1.297
0.04625702670761431,1.298
0.023886385298358674,1.299
0.0010703718356443134,1.3
-0.017661800068314654,1.301
-0.029276923034444274,1.302
-0.03267452007351792,1.303
-0.028521400041194456,1.304
-0.018851102881508278,1.305
-0.006709923666194421,1.306
0.003925081135823372,1.307
0.008387740263054243,1.308
0.0025589017312353758,1.309
-0.015031666578956996,1.31
-0.0413906513058874,1.311
-0.06877638770251636,1.312
-0.08662422039995778,1.313
-0.08543252592798393,1.314
-0.06109498324719045,1.315
-0.017230695314899958,1.316
0.03594450906432643,1.317
0.08533471469487826,1.318
0.11928877862039845,1.319
0.13093640067572548,1.32
0.11967876083873889,1.321
0.0907114108700162,1.322
0.05290193847070871,1.323
0.01568041277526379,1.324
-0.013844436171999111,1.325
-0.032372851576818795,1.326
-0.0403084731881498,1.327
-0.04057654518615424,1.328
-0.03699311540866445,1.329
-0.03285949102369861,1.33
-0.030225651996566176,1.331
-0.029781118026025788,1.332
-0.031114751178866508,1.333
-0.033130519984324626,1.334
-0.034448180865345894,1.335
-0.03366148412824948,1.336
-0.029443214223635605,1.337
-0.020610502045745376,1.338
-0.006456902842594101,1.339
0.012380230745718947,1.34
0.0330839329285255,1.341
0.05093651419897051,1.342
0.060813947528990595,1.343
0.05905888610673021,1.344
0.04496339245756804,1.345
0.021234825867589333,1.346
-0.006841417707860322,1.347
-0.03304352170313285,1.348
-0.05179308717750024,1.349
-0.05936071708357796,1.35
-0.054834656581689956,1.351
-0.04044701081823633,1.352
-0.02074656308041509,1.353
-0.001016155076666296,1.354
0.014404823260396844,1.355
0.02352574025016317,1.356
0.02723468849825219,1.357
0.028347462047146277,1.358
0.029614993073296614,1.359
0.032171561157569764,1.36
0.03537681015409626,1.361
0.037533401197417576,1.362
0.036652993937687665,1.363
0.03119586969081566,1.364
0.020883947987253983,1.365
0.007212649890247848,1.366
-0.006883116013356753,1.367
-0.018283224994173078,1.368
-0.025102666661221438,1.369
-0.02721632399823831,1.37
-0.025754823006902742,1.371
-0.022405178383470982,1.372
-0.0190790078158245,1.373
-0.017746614585707646,1.374
-0.019845672025449356,1.375
-0.02520446617793081,1.376
-0.03158324279792308,1.377
-0.035856303685458446,1.378
-0.03603088956612938,1.379
-0.032103383757928726,1.38
-0.025198212210105778,1.381
-0.016407759878655632,1.382
-0.006393565825882453,1.383
0.004390563159327139,1.384
0.015229555663395114,1.385
0.02488643755643453,1.386
0.03201672206236232,1.387
0.03614870779346537,1.388
0.03843515751753571,1.389
0.04128193632440962,1.39
0.04678569326882149,1.391
0.05503593831686057,1.392
0.06346168145793007,1.393
0.0676135041007155,1.394
0.06308010803664392,1.395
0.04763437921383866,1.396
0.022357207728264904,1.397
-0.008820907703241496,1.398
-0.040674385839319094,1.399
-0.0684390002755299,1.4
-0.08891625621534176,1.401
-0.10060997009372738,1.402
-0.10343874332865921,1.403
-0.0986139634128793,1.404
-0.08832975236853248,1.405
-0.07457665881269943,1.406
-0.05755096864959653,1.407
-0.0352446912318979,1.408
-0.005173199547648883,1.409
0.03275307435379404,1.41
0.07449944792482407,1.411
0.11274895052313333,1.412
0.13955723497068043,1.413
0.14890079139069362,1.414
0.13805076385214968,1.415
0.10794443114767575,1.416
0.06284113385459385,1.417
0.00942978535031929,1.418
-0.044167946081135466,1.419
-0.08933059764470287,1.42
-0.11823292603962578,1.421
-0.12570305529859982,1.422
-0.11104516924171183,1.423
-0.07882252778496412,1.424
-0.03782643671532501,1.425
0.0017585629955342626,1.426
0.03186480230562322,1.427
0.049019425637312077,1.428
0.0545820995145266,1.429
0.052759363734129566,1.43
0.04776995658389899,1.431
0.0417827174222849,1.432
0.03426252604463286,1.433
0.022780916126208,1.434
0.005099544374887281,1.435
-0.01849355070692248,1.436
-0.04408366694788048,1.437
-0.06503350796969294,1.438
-0.07440089326425293,1.439
-0.06766761765825804,1.44
-0.044634126914822395,1.441
-0.009727387698716181,1.442
0.02924202582462598,1.443
0.06313458291659724,1.444
0.08372646139519616,1.445
0.08578806501222862,1.446
0.06848943911732386,1.447
0.03565334897693534,1.448
-0.005195446375563348,1.449
-0.04471993897624756,1.45
-0.07421450636374384,1.451
-0.0879934985271845,1.452
-0.08483862830338512,1.453
-0.0677827349599936,1.454
-0.042373590127285365,1.455
-0.014382285108344854,1.456
0.011961764321772296,1.457
0.0345642027121599,1.458
0.05293781092188476,1.459
0.06707991762413906,1.46
0.07637650582491572,1.461
0.07916482840807927,1.462
0.07334847004297443,1.463
0.05773173863277523,1.464
0.033188311289625926,1.465
0.003009857225169059,1.466
-0.027695001538118248,1.467
-0.05327392408630211,1.468
-0.06889347579932668,1.469
-0.07161019049471584,1.47
-0.06133407166408047,1.471
-0.041623295027479947,1.472
-0.019397173220065678,1.473
-0.002843385840968542,1.474
0.001933755067401551,1.475
-0.006127294438908302,1.476
-0.022247085528027993,1.477
-0.037819188945755526,1.478
-0.04422256026032217,1.479
-0.03636483351372959,1.48
-0.014260436262355066,1.481
0.017560796757741515,1.482
0.05190707930674553,1.483
0.08111592969874701,1.484
0.0990529010727226,1.485
0.1025579584332361,1.486
0.09202244991797298,1.487
0.07095506241768854,1.488
0.04460926037186784,1.489
0.018143419927136962,1.49
-0.004801430261039252,1.491
-0.02258345150684921,1.492
-0.035324028075621246,1.493
-0.044329614867218876,1.494
-0.051292668540332646,1.495
-0.05740435649470354,1.496
-0.06279023209418468,1.497
-0.06660170288375424,1.498
-0.06757970103776645,1.499
-0.06460060535766379,1.5
-0.05692788218554367,1.501
-0.04434049247410152,1.502
-0.027344975656741866,1.503
-0.007279354026263551,1.504
0.013760072721752493,1.505
0.03294206505738109,1.506
0.04693883324433467,1.507
0.052864540602794746,1.508
0.04964197602898904,1.509
0.03886179450526745,1.51
0.024432246217706944,1.511
0.011243534311543641,1.512
0.003597124943523684,1.513
0.003843525988563262,1.514
0.011530026735235639,1.515
0.02353677580213295,1.516
0.03525712131712578,1.517
0.04218430599234453,1.518
0.04125521705714351,1.519
0.03167386719626515,1.52
0.015118066827196672,1.521
-0.004711618197003675,1.522
-0.02318378450658203,1.523
-0.03625410260274988,1.524
-0.04179697834097526,1.525
-0.04001497224390581,1.526
-0.032805466636531146,1.527
-0.02271334159934933,1.528
-0.012085280214028304,1.529
-0.002694441415068063,1.53
0.004048632888031624,1.531
0.006699164875356532,1.532
0.003980233738434916,1.533
-0.004366717612941722,1.534
-0.016790929522163094,1.535
-0.02975841460792404,1.536
-0.038382403626596354,1.537
-0.03783496019091114,1.538
-0.02539999908588935,1.539
-0.002512638902763496,1.54
0.02463253816790458,1.541
0.04685711561059154,1.542
0.055585327605702055,1.543
0.04666480279679642,1.544
0.0227244971313731,1.545
-0.007131664073710574,1.546
-0.03050810472714266,1.547
-0.036753709239668204,1.548
-0.021706731861788228,1.549
0.010319283589562715,1.55
0.04846157975873489,1.551
0.07988158993998158,1.552
0.09443345146384885,1.553
0.08753146040305745,1.554
0.06059960617656239,1.555
0.019648783456715932,1.556
-0.02685569421785361,1.557
-0.07008566191411417,1.558
-0.10276159824999698,1.559
-0.12070399216619498,1.56
-0.12344610052043543,1.561
-0.11334877878928841,1.562
-0.09360945137182486,1.563
-0.06659800491867889,1.564
-0.03373032182783969,1.565
0.0033055705310172717,1.566
0.04129759639560077,1.567
0.07530042943721628,1.568
0.09952855517847631,1.569
0.10891256255926017,1.57
0.10087507478396408,1.571
0.07675258867407009,1.572
0.042145965177169196,1.573
0.005833882641835487,1.574
-0.022553600851673832,1.575
-0.035469330089978976,1.576
-0.03004042789457401,1.577
-0.009346142057925881,1.578
0.018428446001319616,1.579
0.04307424707171165,1.58
0.05626802150761496,1.581
0.05416212146178559,1.582
0.03769119057857896,1.583
0.011326946379255236,1.584
-0.01855488218834381,1.585
-0.0452442177073796,1.586
-0.06327307851397312,1.587
-0.06982965926455718,1.588
-0.06542979877388731,1.589
-0.053409073191878514,1.59
-0.03845012610893044,1.591
-0.024763039983507647,1.592
-0.014650036132367754,1.593
-0.00827120521915584,1.594
-0.004720304710588979,1.595
-0.0033217118147099286,1.596
-0.0040548671444620744,1.597
-0.007006747678006498,1.598
-0.011442377661695511,1.599
-0.01527350499102973,1.6
-0.015369105910006467,1.601
-0.008482469751327267,1.602
0.007443647554422246,1.603
0.03155386489232609,1.604
0.05894452419187381,1.605
0.08186793878092599,1.606
0.09297697069725097,1.607
0.08830577365647874,1.608
0.0685155422780683,1.609
0.03837773228525229,1.61
0.004944033492375893,1.611
-0.024869905149763075,1.612
-0.04625020451430566,1.613
-0.057136537278790374,1.614
-0.057643100831387704,1.615
-0.04912233095583165,1.616
-0.03359762481800986,1.617
-0.013827390054249124,1.618
0.006261675443575101,1.619
0.021596874137214516,1.62
0.027037682923796522,1.621
0.019247695127767535,1.622
-0.001434917637799015,1.623
-0.03015675402547631,1.624
-0.05857181432272125,1.625
-0.07757098010817952,1.626
-0.08051366531838897,1.627
-0.06540444049460448,1.628
-0.035045356837718554,1.629
0.004452374578145152,1.63
0.045518661382721017,1.631
0.08051219764632304,1.632
0.10282050106877708,1.633
0.107996053358341,1.634
0.09455468775296484,1.635
0.06396739323729783,1.636
0.02017053491584786,1.637
-0.030646344675959374,1.638
-0.07997147125311868,1.639
-0.11775817377544455,1.64
-0.13476624704308485,1.641
-0.12544749750983508,1.642
-0.08987390511344877,1.643
-0.03417042709086734,1.644
0.030433799540178736,1.645
0.09005421023575423,1.646
0.13197822599400788,1.647
0.14842757510873164,1.648
0.1384232195800772,1.649
0.10728400529700947,1.65
0.06444244665029851,1.651
0.020430337779745823,1.652
-0.016092395536612316,1.653
-0.04030959435238139,1.654
-0.051651992601344204,1.655
-0.05292033159812522,1.656
-0.04883671409348826,1.657
-0.04443632486743386,1.658
-0.04335659087496568,1.659
-0.046305824305747444,1.66
-0.05061162481689417,1.661
-0.0515397835055913,1.662
-0.04483699220078441,1.663
-0.02905283114397062,1.664
-0.006365270994882149,1.665
0.018399033518238503,1.666
0.039760150186392465,1.667
0.053458422503397,1.668
0.05749238774042617,1.669
0.0521603502457769,1.67
0.03947283782402772,1.671
0.022456767305552874,1.672
0.0043762384256320975,1.673
-0.012151419063657444,1.674
-0.025611150082266797,1.675
-0.03541514491783068,1.676
-0.0415778992567828,1.677
-0.04448071600926928,1.678
-0.044701017484677405,1.679
-0.042946567660080134,1.68
-0.03980030732412723,1.681
-0.03506896294909951,1.682
-0.027350339461845334,1.683
-0.014518120783983885,1.684
0.004812887771850684,1.685
0.029488800718858076,1.686
0.055123190078400386,1.687
0.07544898929187172,1.688
0.08490024014933002,1.689
0.08078609990690144,1.69
0.06394203671126546,1.691
0.03796606782231585,1.692
0.008078313963209668,1.693
-0.01984690930896752,1.694
-0.04032347659080379,1.695
-0.04952816237626045,1.696
-0.04646335795459972,1.697
-0.03324805496012564,1.698
-0.01415636130220132,1.699
0.00592388220077115,1.7
0.022544882106994978,1.701
0.031898533326427427,1.702
0.03092610674518667,1.703
0.01823115009683328,1.704
-0.004611457445862859,1.705
-0.032468940375793814,1.706
-0.05729045362294664,1.707
-0.0700921775951256,1.708
-0.06414481854402157,1.709
-0.038132164920967736,1.71
0.0025784936935008213,1.711
0.047451010836643145,1.712
0.08447676744644528,1.713
0.10428052376723058,1.714
0.1026177452183123,1.715
0.08054755356597908,1.716
0.04310379081222215,1.717
-0.0024858391935956735,1.718
-0.04856859556252432,1.719
-0.08864094227285664,1.72
-0.11819712525628376,1.721
-0.13435548114896062,1.722
-0.13503519125142371,1.723
-0.11908422423398027,1.724
-0.08727533193525536,1.725
-0.042883626985219074,1.726
0.008688775769066482,1.727
0.06071611847290187,1.728
0.10586909235925243,1.729
0.13713656499235216,1.73
0.14936772230599416,1.731
0.1407907320694926,1.732
0.11353976527915229,1.733
0.07311075530214486,1.734
0.027015579365005638,1.735
-0.017042947695976727,1.736
-0.052762576389551646,1.737
-0.07619937814773184,1.738
-0.08609844123264856,1.739
-0.08336306492639502,1.74
-0.07004255458678577,1.741
-0.04893211115372045,1.742
-0.023850668169482534,1.743
0.00046105813490402266,1.744
0.019388370798177595,1.745
0.02995755297742744,1.746
0.031983818499506704,1.747
0.028094678883096986,1.748
0.022315272817950867,1.749
0.01804433272871136,1.75
0.016816898818582317,1.751
0.0182386201543891,1.752
0.020539468617987527,1.753
0.021450838371662614,1.754
0.01922807380985857,1.755
0.013318846443465704,1.756
0.00432274753998924,1.757
-0.006682249143739184,1.758
-0.01883072152358089,1.759
-0.03140539657124936,1.76
-0.04315126334359397,1.761
-0.051848407220140474,1.762
-0.054692025117097545,1.763
-0.04939465285499805,1.764
-0.03543678255600556,1.765
-0.014726633528251308,1.766
0.008745550614586817,1.767
0.030060701183802486,1.768
0.044699158883560255,1.769
0.04959936897442197,1.77
0.04385136925146122,1.771
0.028855395605283798,1.772
0.007803147427449571,1.773
-0.01524701542439589,1.774
-0.03624086026901977,1.775
-0.05173241366133981,1.776
-0.059361639663477996,1.777
-0.05830290681415075,1.778
-0.04928355187428878,1.779
-0.033941302078639726,1.78
-0.01422110577199092,1.781
0.007617056925877771,1.782
0.028970671396154862,1.783
0.04754220267909204,1.784
0.06218111515992065,1.785
0.07283281174484035,1.786
0.07947800216044593,1.787
0.08114587512467894,1.788
0.07588577809612371,1.789
0.061629044611451335,1.79
0.03734965322477725,1.791
0.003999948106203263,1.792
-0.034897681872967636,1.793
-0.07302451883348357,1.794
-0.10175299979408124,1.795
-0.11191726063770387,1.796
-0.09710697579598875,1.797
-0.05735597693138987,1.798
-0.000765427119937311,1.799
0.05850839375457055,1.8
0.10499178836980227,1.801
0.12696268908642722,1.802
0.11983355087405523,1.803
0.08701100834779754,1.804
0.038160308937253175,1.805
-0.014451948466117904,1.806
-0.05982449337369431,1.807
-0.09067960025334446,1.808
-0.10414991642304573,1.809
-0.10131532583514549,1.81
-0.08638922229908329,1.811
-0.06564515608397758,1.812
-0.04560791492867966,1.813
-0.03079687586234073,1.814
-0.022282608012726038,1.815
-0.017968206286128087,1.816
-0.014104623659474765,1.817
-0.006704907412885089,1.818
0.007612618733823015,1.819
0.030538582754302285,1.82
0.06048907590391389,1.821
0.09201449992819141,1.822
0.11739814278652438,1.823
0.129473211520368,1.824
0.12400837078811465,1.825
0.10084840157841615,1.826
0.06362432778291656,1.827
0.018277222941119678,1.828
-0.028931146376885396,1.829
-0.07290870245694235,1.83
-0.10996747595792006,1.831
-0.13711069223393374,1.832
-0.1514499052574064,1.833
-0.15036240547654306,1.834
-0.13208260389861448,1.835
-0.09647361532730599,1.836
-0.046176313868676364,1.837
0.0123603611653584,1.838
0.06924668513280527,1.839
0.11339565063844542,1.84
0.13586957674610045,1.841
0.13301784201846106,1.842
0.10787063113219428,1.843
0.06879977585936511,1.844
0.026209813756835097,1.845
-0.010731943536702367,1.846
-0.035981178919554505,1.847
-0.04701298188111449,1.848
-0.0442209245110937,1.849
-0.030077825165687935,1.85
-0.008597129302056316,1.851
0.015055753390154816,1.852
0.03534534349672322,1.853
0.04772628337572119,1.854
0.04987926518423597,1.855
0.04191447978643143,1.856
0.025650514886174855,1.857
0.003863645676858536,1.858
-0.02002134506940344,1.859
-0.04213983920255691,1.86
-0.05875778375796813,1.861
-0.06713284283005554,1.862
-0.06629463806995052,1.863
-0.05742026316511541,1.864
-0.04351277604868799,1.865
-0.028408988981788296,1.866
-0.015504324405056287,1.867
-0.006469742692726478,1.868
-0.00041666970829305896,1.869
0.00551686641269426,1.87
0.013980969207781841,1.871
0.025258389967698892,1.872
0.03699590222565916,1.873
0.04580942167131384,1.874
0.049096669763594426,1.875
0.04577637969190711,1.876
0.03616822949157746,1.877
0.02173279262787496,1.878
0.004841824131572886,1.879
-0.01158718004528357,1.88
-0.024682985983970812,1.881
-0.03234473133288872,1.882
-0.03379415403433019,1.883
-0.029667720955951528,1.884
-0.02164413257036204,1.885
-0.01182367485097698,1.886
-0.0021047570560345343,1.887
0.006226974955698649,1.888
0.012572177306228406,1.889
0.016807271114611045,1.89
0.01896416253641867,1.891
0.018982789173046886,1.892
0.016672350616360312,1.893
0.011951554610118646,1.894
0.005306343450460206,1.895
-0.0018648540101046536,1.896
-0.007461386427441511,1.897
-0.009535439605318089,1.898
-0.007313510221929853,1.899
-0.0016693404003083462,1.9
0.005221227068300484,1.901
0.010668195605786262,1.902
0.012295070461268914,1.903
0.00877976333483556,1.904
0.00034387267507792916,1.905
-0.011211194523374404,1.906
-0.022936397886977697,1.907
-0.03158793356885298,1.908
-0.03483444812142147,1.909
-0.032264037573576834,1.91
-0.025314017784798633,1.911
-0.016169380628819684,1.912
-0.006647970233537858,1.913
0.00227300149463812,1.914
0.010340596885319193,1.915
0.0175645892924311,1.916
0.023662653604180822,1.917
0.02773373731043495,1.918
0.028529611990888815,1.919
0.02531196717044427,1.92
0.018604720037047308,1.921
0.010229066036898136,1.922
0.0027279565142953027,1.923
-0.0015402463109073622,1.924
-0.0013651468740120685,1.925
0.0028896270204035912,1.926
0.009638257038452771,1.927
0.016592004812057706,1.928
0.020993820985813493,1.929
0.019997903589636896,1.93
0.011645320233963011,1.931
-0.00391475410567173,1.932
-0.02373949452016102,1.933
-0.042508948826139356,1.934
-0.05413028240288112,1.935
-0.05409089786884129,1.936
-0.041572169593654056,1.937
-0.020098414447257393,1.938
0.003727587091920615,1.939
0.022706037005455756,1.94
0.0316707288980758,1.941
0.029287460875617385,1.942
0.01828068826884276,1.943
0.003911895148979936,1.944
-0.00854450486205566,1.945
-0.015799695088795196,1.946
-0.016991259190783307,1.947
-0.01287303104809018,1.948
-0.004741164424337534,1.949
0.006041662321306884,1.95
0.017771264997736496,1.951
0.02810713874631664,1.952
0.034447449564140795,1.953
0.03485122465754782,1.954
0.02888342249014263,1.955
0.017864140540507875,1.956
0.004490097420604268,1.957
-0.007972091160554967,1.958
-0.016783343124448496,1.959
-0.020652307347495548,1.96
-0.0198607768792888,1.961
-0.015696868361534687,1.962
-0.009843291935059534,1.963
-0.004013682597353372,1.964
0.00029445670060810144,1.965
0.0020352319257620714,1.966
0.0007993714020398425,1.967
-0.003126632484046635,1.968
-0.008847794998037634,1.969
-0.015072020106678193,1.97
-0.020429556353183838,1.971
-0.023799523820654075,1.972
-0.024457200717624045,1.973
-0.022043875854194463,1.974
-0.016565387067264063,1.975
-0.00847464645861694,1.976
0.0013147831780351267,1.977
0.011522758853821698,1.978
0.020591467309701347,1.979
0.02686162037184827,1.98
0.02906305222617961,1.981
0.02697043551526154,1.982
0.021704479796358606,1.983
0.015314327483169026,1.984
0.009843053958659772,1.985
0.006515800519785439,1.986
0.0054657468166923375,1.987
0.005916170631456111,1.988
0.006627036471475228,1.989
0.006440608902839652,1.99
0.004668251380070283,1.991
0.0011728470848081487,1.992
-0.0037160949312735818,1.993
-0.009285956807668048,1.994
-0.014523160064863011,1.995
-0.018273219782078895,1.996
-0.019533863232888485,1.997
-0.01780769361243734,1.998
-0.01332055242587976,1.999
-0.006992351677831281,2.0
-0.0001681420594110052,2.001
0.005831903339828772,2.002
0.010141568429561331,2.003
0.012480631253640205,2.004
0.012956428157833188,2.005
0.011764894415792461,2.006
0.008983494521730513,2.007
0.004501408482585677,2.008
-0.0018802972462546599,2.009
-0.010149404639085612,2.01
-0.019693987650936672,2.011
-0.029040956332806796,2.012
-0.035919287060806535,2.013
-0.03778285459901853,2.014
-0.03272211488462385,2.015
-0.020392870021591295,2.016
-0.0024815689524134593,2.017
0.017585413815992695,2.018
0.03558504406315792,2.019
0.04771183106288063,2.02
0.0516791872408437,2.021
0.04734998458310172,2.022
0.03662179962135801,2.023
0.02261933762921064,2.024
0.008588063863172315,2.025
-0.0030675816499188,2.026
-0.011289659375806796,2.027
-0.016254563109452714,2.028
-0.018771915374559914,2.029
-0.019658218633430456,2.03
-0.01948829576845413,2.031
-0.01863448974441222,2.032
-0.01728724823408884,2.033
-0.015445450194513773,2.034
-0.01299553152224333,2.035
-0.009842100361692337,2.036
-0.00601703933998077,2.037
-0.0017382379671453502,2.038
0.002607754377615842,2.039
0.006522673052733432,2.04
0.009428734444157925,2.041
0.010753168730216072,2.042
0.010155484452953853,2.043
0.007753591178746733,2.044
0.004163029354790455,2.045
0.0003697627412665218,2.046
-0.002497159231836005,2.047
-0.003525059502524102,2.048
-0.0024451550122525337,2.049
0.00016268224497240403,2.05
0.0031384226431229894,2.051
0.005345781447068053,2.052
0.006174401126765406,2.053
0.005670085450941091,2.054
0.0043678923754951905,2.055
0.0029945163977806166,2.056
0.0021421879044523913,2.057
0.002014515194286396,2.058
0.002355304166880022,2.059
0.002611568760125308,2.06
0.0022646186501628237,2.061
0.001121779667653473,2.062
-0.0006516592710597683,2.063
-0.0027569648793836217,2.064
-0.004973827867005801,2.065
-0.007117567200507358,2.066
-0.00887070997419602,2.067
-0.009790435424652525,2.068
-0.009488874212207031,2.069
-0.007784401568690932,2.07
-0.0047685096037106385,2.071
-0.0008258600360648699,2.072
0.0033841696461280584,2.073
0.007001508074157012,2.074
0.009156771560671325,2.075
0.009260633603736848,2.076
0.0071494917743590925,2.077
0.0029424189680632568,2.078
-0.0031046667452328267,2.079
-0.01046832440793268,2.08
-0.018145353048504422,2.081
-0.02464949556816491,2.082
-0.02823166494830998,2.083
-0.02726161031769452,2.084
-0.02075625457614289,2.085
-0.008921774976469659,2.086
0.006589261404697647,2.087
0.022907797964529346,2.088
0.03662226905936048,2.089
0.044761837333828484,2.09
0.04581013015672348,2.091
0.040210329562311554,2.092
0.029980124915483446,2.093
0.01770329575146686,2.094
0.005563265763449226,2.095
-0.005148162934887183,2.096
-0.014018613861201314,2.097
-0.021143532894951328,2.098
-0.026594921472670126,2.099
-0.03001622668558291,2.1
-0.03062803558377349,2.101
-0.02769436260489306,2.102
-0.02112517265172727,2.103
-0.011774119083918542,2.104
-0.0012834251642298536,2.105
0.008393528386983866,2.106
0.01559935431564258,2.107
0.019462753893029913,2.108
0.020019272689381504,2.109
0.017944771521914264,2.11
0.014188775869579399,2.111
0.009743803838198164,2.112
0.005467643385418157,2.113
0.0018615295706591003,2.114
-0.001048269065483383,2.115
-0.0036103326645365564,2.116
-0.0063420742851654915,2.117
-0.009734248531938912,2.118
-0.014049199660597285,2.119
-0.019095537817978393,2.12
-0.024049901767489515,2.121
-0.02744287754173925,2.122
-0.027447210395364963,2.123
-0.0225675938289756,2.124
-0.012514858178776005,2.125
0.001322402364139082,2.126
0.016173859448280935,2.127
0.028760287960906152,2.128
0.03633955537666241,2.129
0.03753063878095312,2.13
0.03264987428974656,2.131
0.023501421781887917,2.132
0.012635071281901293,2.133
0.0023619319728385144,2.134
-0.0058335602988891936,2.135
-0.011232416153578234,2.136
-0.013608030999556313,2.137
-0.013143043295054878,2.138
-0.010442440536238617,2.139
-0.006423018554628136,2.14
-0.002104245006483706,2.141
0.0015853578498505817,2.142
0.00399111025161432,2.143
0.004868131152233001,2.144
0.004351200469276899,2.145
0.0027886538670741515,2.146
0.000611419566989313,2.147
-0.0016870993066423734,2.148
-0.0035529571392314543,2.149
-0.004465945274832166,2.15
-0.004157539887664899,2.151
-0.002849529276680765,2.152
-0.0012607649447342593,2.153
-0.00028708198412767053,2.154
-0.0005947454844184516,2.155
-0.002400033502614888,2.156
-0.005483042197903053,2.157
-0.009327147038407072,2.158
-0.013302019306039572,2.159
-0.016835195098985168,2.16
-0.019491613325372695,2.161
-0.020962976899853714,2.162
-0.02103830725210189,2.163
-0.01958885383145477,2.164
-0.01654789390765118,2.165
-0.01183109407333183,2.166
-0.005202953076796634,2.167
0.00373514789102739,2.168
0.015160286567615379,2.169
0.028340186548351215,2.17
0.04130266308091121,2.171
0.051284036682172,2.172
0.055669886875876866,2.173
0.05296226642342326,2.174
0.04338278606474582,2.175
0.028804102052534912,2.176
0.012093380261796939,2.177
-0.0037005812811975822,2.178
-0.016047237237861573,2.179
-0.02351333000333164,2.18
-0.02607882105718127,2.181
-0.024921528228124667,2.182
-0.021763297239309594,2.183
-0.01822862731241736,2.184
-0.015487259782165854,2.185
-0.014118913452675148,2.186
-0.014087471954760804,2.187
-0.014823537193065556,2.188
-0.015435108741046092,2.189
-0.014995756207581883,2.19
-0.01286891244416139,2.191
-0.009031769922716131,2.192
-0.00422848656715259,2.193
0.0002621184089413029,2.194
0.0032046031514656285,2.195
0.003994469302387341,2.196
0.0029462568350618005,2.197
0.0011847133333602938,2.198
0.00015262237771331903,2.199
0.0009167489742710694,2.2
0.003683710491952904,2.201
0.0077971321321051,2.202
0.012083367518489353,2.203
0.01529755222202848,2.204
0.016525354464173865,2.205
0.015417420239248174,2.206
0.012200269963692976,2.207
0.0075473069124543405,2.208
0.00239900703735556,2.209
-0.002250726081389905,2.21
-0.0055825619554318385,2.211
-0.007152052938850055,2.212
-0.007009679721774897,2.213
-0.005671851243672057,2.214
-0.003937763279410787,2.215
-0.002658277442643385,2.216
-0.00251220757092035,2.217
-0.003763963244763383,2.218
-0.006126577810363058,2.219
-0.008879294094504706,2.22
-0.01110867465238486,2.221
-0.011891447908066469,2.222
-0.010467503645220942,2.223
-0.006486582061633278,2.224
-0.00023076549593559488,2.225
0.007358767641207417,2.226
0.014891188622917294,2.227
0.02088380074622725,2.228
0.024165165885231057,2.229
0.024201617008125745,2.23
0.02121684261873118,2.231
0.01607294120261355,2.232
0.009968787801226084,2.233
0.004042652483485262,2.234
-0.000963829759513105,2.235
-0.004826551519254561,2.236
-0.00773464434471319,2.237
-0.010073741613879573,2.238
-0.012210454099025459,2.239
-0.014322211255905923,2.24
-0.016310180534434997,2.241
-0.017870981757677845,2.242
-0.018698547871905148,2.243
-0.018637360937234265,2.244
-0.017697539806233474,2.245
-0.01603517037687734,2.246
-0.013966164508791627,2.247
-0.011941868936178828,2.248
-0.010425626239163781,2.249
-0.009674268355054557,2.25
-0.00945612062626029,2.251
-0.00882187850720469,2.252
-0.006174206820326515,2.253
0.0001502161380374798,2.254
0.010932594640186777,2.255
0.025286402844741027,2.256
0.04053376499715764,2.257
0.052916730482897766,2.258
0.05888327931085135,2.259
0.05633738782844186,2.26
0.0453409533001244,2.261
0.02806080350019182,2.262
0.007942640960692856,2.263
-0.011496156607618456,2.264
-0.02749183431474867,2.265
-0.03819283477169465,2.266
-0.04263811643144729,2.267
-0.04088505506763047,2.268
-0.034009807909435266,2.269
-0.023802088971239393,2.27
-0.01237299365737766,2.271
-0.001819167039433242,2.272
0.006097769357028597,2.273
0.010270214755970042,2.274
0.010527464561626048,2.275
0.0077514466214290865,2.276
0.003606452595257691,2.277
-0.00012825922058043663,2.278
-0.0022540098358429725,2.279
-0.002465508068987598,2.28
-0.0012320942648771146,2.281
0.0005466806366139486,2.282
0.0019423771810548399,2.283
0.0023413666795240296,2.284
0.001615635829843775,2.285
6.80715430118702e-05,2.286
-0.0017942358385311524,2.287
-0.0035140665535017815,2.288
-0.004807369264858875,2.289
-0.005547016779688195,2.29
-0.005705630228538418,2.291
-0.005280871866070141,2.292
-0.004230847294433489,2.293
-0.002495894317101065,2.294
-8.760933043905994e-05,2.295
0.0028306992755588356,2.296
0.0058954143976306566,2.297
0.008548192842761858,2.298
0.010157938513756227,2.299
0.010244653132677223,2.3
0.008676876652597185,2.301
0.005763205112779958,2.302
0.0022112477088647555,2.303
-0.0011124845560418982,2.304
-0.0035429089253260922,2.305
-0.004814626215210233,2.306
-0.0049865942015950146,2.307
-0.004279874220375714,2.308
-0.002983573692486727,2.309
-0.0014160390007357919,2.31
0.00010218091296331123,2.311
0.001290579497978402,2.312
0.0019716140045940504,2.313
0.002110123847545648,2.314
0.0017964286977498883,2.315
0.0012022311663492235,2.316
0.0005421447384535222,2.317
3.49265876982994e-05,2.318
-0.00014931234953680293,2.319
5.533797354231612e-05,2.32
0.0005879899373210137,2.321
0.0012866486499715096,2.322
0.0019317708083547193,2.323
0.0022899141304514987,2.324
0.002179337107731878,2.325
0.0015582701966657866,2.326
0.0005700706829871221,2.327
-0.0005252963445650939,2.328
-0.0014961570899931819,2.329
-0.0022476903194098325,2.33
-0.0028397309373814255,2.331
-0.0034250147424268857,2.332
-0.004122333644140687,2.333
-0.004880265153995693,2.334
-0.005452128435849407,2.335
-0.005527973899069765,2.336
-0.004906160353806613,2.337
-0.0035835476328465957,2.338
-0.0017632996640301634,2.339
0.00020089101149642756,2.34
0.00193092074853915,2.341
0.003171619744905829,2.342
0.003863927074093042,2.343
0.004112676885599317,2.344
0.0041063512861616875,2.345
0.004028346200061651,2.346
0.003964660234573106,2.347
0.0038514935575572683,2.348
0.0035063749925713455,2.349
0.002737934345208938,2.35
0.0014917821535137743,2.351
-6.182247573321964e-05,2.352
-0.0015906262771315804,2.353
-0.0027598610343432133,2.354
-0.0033297626108612166,2.355
-0.0031720694856647437,2.356
-0.002307884509308642,2.357
-0.000948340484740279,2.358
0.0005412231368717284,2.359
0.00172428678587939,2.36
0.0021953402382565877,2.361
0.0017414146017173575,2.362
0.0004766177398133194,2.363
-0.0012289054278416753,2.364
-0.002955061729505283,2.365
-0.00434128063841359,2.366
-0.00508746178043959,2.367
-0.00498698993061227,2.368
-0.0040328206487165825,2.369
-0.0024769939109052135,2.37
-0.0006948303574552517,2.371
0.0010391142461911153,2.372
0.0025850044899671082,2.373
0.003794414529532137,2.374
0.004468833284785634,2.375
0.004487689587842646,2.376
0.0039007621485713465,2.377
0.0028770713063043336,2.378
0.0016201515747215455,2.379
0.0003480555163193264,2.38
-0.000697104245176199,2.381
-0.0012690233781476213,2.382
-0.0011753128270862543,2.383
-0.0003725939862659916,2.384
0.0009432790486071089,2.385
0.0023717967296990727,2.386
0.003486312505434079,2.387
0.003991613637688554,2.388
0.0037597587628058556,2.389
0.002810259266653417,2.39
0.0012897822190814023,2.391
-0.0005647495735998532,2.392
-0.002483538014501884,2.393
-0.004214854823004403,2.394
-0.005551951995414026,2.395
-0.006346479335161844,2.396
-0.006526342847450327,2.397
-0.0061087574116067845,2.398
-0.005188015220680199,2.399
-0.003921251861413143,2.4
-0.0025445648184665827,2.401
-0.0013701980034055235,2.402
-0.0006862173985162178,2.403
-0.0005880783548676184,2.404
-0.0008925591901412911,2.405
-0.001241775300750757,2.406
-0.001301710279436263,2.407
-0.0008899357513189296,2.408
3.5674739520637203e-06,2.409
0.0012822742676465457,2.41
0.002851950862879783,2.411
0.004649460158170366,2.412
0.0065418802711314965,2.413
0.00824571461148861,2.414
0.009428280925682516,2.415
0.00989576136768219,2.416
0.009638360360973333,2.417
0.00873649981898781,2.418
0.007282881248424467,2.419
0.005342044749135565,2.42
0.0029297512709155096,2.421
5.625656740476513e-05,2.422
-0.0031769049265185285,2.423
-0.006514218199646432,2.424
-0.00956968912486611,2.425
-0.011910608840847468,2.426
-0.013165167145653184,2.427
-0.013117725135765356,2.428
-0.011753096873325278,2.429
-0.009254664860592132,2.43
-0.005967434757893114,2.431
-0.002325975426117522,2.432
0.0012030556036718766,2.433
0.004126720591695202,2.434
0.005969169279221531,2.435
0.006440086626532502,2.436
0.005608482343285652,2.437
0.0038960243113957604,2.438
0.0018860329516480685,2.439
9.086035661269975e-05,2.44
-0.001151499122206911,2.441
-0.0016158186313002863,2.442
-0.0011656274933440295,2.443
0.00011531974025050926,2.444
0.001849392082232314,2.445
0.00353916991751282,2.446
0.0048180626400764325,2.447
0.0054984555448344625,2.448
0.005454901956686403,2.449
0.004587612213329819,2.45
0.0029056963030059607,2.451
0.0005903394463014707,2.452
-0.0020164778769513015,2.453
-0.00447189473983652,2.454
-0.006323705130187566,2.455
-0.007221497781004607,2.456
-0.00700929177648576,2.457
-0.0057344105039828465,2.458
-0.0035862398010592807,2.459
-0.000870248742601834,2.46
0.0019792374527798674,2.461
0.004450868750115781,2.462
0.006098890806115889,2.463
0.006699508758639973,2.464
0.006315433619290133,2.465
0.005229132577714549,2.466
0.003801120437438031,2.467
0.002327301431822063,2.468
0.0009560476216987106,2.469
-0.0003023632881921978,2.47
-0.0015005690594208808,2.471
-0.002674571299057304,2.472
-0.0038018292114827225,2.473
-0.004793130358540768,2.474
-0.005512887812096647,2.475
-0.005837939354107473,2.476
-0.00571641462984579,2.477
-0.005175410171810276,2.478
-0.004294321268285345,2.479
-0.0031763357345867037,2.48
-0.001916553183721907,2.481
-0.0005661566663172242,2.482
0.0008812648689893412,2.483
0.002443012621401517,2.484
0.004056399449112577,2.485
0.0055355418562463895,2.486
0.006627643935044296,2.487
0.0071184926261715,2.488
0.006921893533840047,2.489
0.006125504988174243,2.49
0.00497005045522075,2.491
0.003735386319003388,2.492
0.0025796085027007965,2.493
0.0014635786729716655,2.494
0.00021416178533974285,2.495
-0.0013514064831640434,2.496
-0.0033088112623255147,2.497
-0.005558311321703238,2.498
-0.007835008175509965,2.499
-0.009763641512103367,2.5
-0.010924075293646652,2.501
-0.010958988967276642,2.502
-0.009724918697666809,2.503
-0.007404956468025178,2.504
-0.0044991689214208125,2.505
-0.0016364676490421438,2.506
0.0007621474575444078,2.507
0.0027029817769585606,2.508
0.004458204980746769,2.509
0.006206399661046888,2.51
0.007852107594972173,2.511
0.00909163320977019,2.512
0.009577298781494412,2.513
0.009039796672063942,2.514
0.007347219432462464,2.515
0.0046370188551880095,2.516
0.00148290574546842,2.517
-0.0011946957047629014,2.518
-0.002541673573245058,2.519
-0.0022319315391072835,2.52
-0.0006863494613962287,2.521
0.0011264882697944558,2.522
0.0022494293155727323,2.523
0.0022334699767916468,2.524
0.001195348224605591,2.525
-0.00044936807479542843,2.526
-0.0022399113314194898,2.527
-0.003786874360861822,2.528
-0.004822652039397098,2.529
-0.0052179161385281034,2.53
-0.004954545750296398,2.531
-0.004103695245628554,2.532
-0.0028293921528142426,2.533
-0.001382923458891448,2.534
-0.00010180991820026152,2.535
0.0006217243981078234,2.536
0.000523598137388254,2.537
-0.000305639018472535,2.538
-0.0014418186038169319,2.539
-0.0023823424912352478,2.54
-0.0027670533974781717,2.541
-0.0024488521578949463,2.542
-0.001472304737761538,2.543
-3.411411846017637e-05,2.544
0.0015617326194287222,2.545
0.0029926276899250935,2.546
0.004043718991117442,2.547
0.004682964997087828,2.548
0.0050146008001501095,2.549
0.005158195302517288,2.55
0.005150999435341846,2.551
0.004932017107918493,2.552
0.004417021833855894,2.553
0.003595382417012425,2.554
0.0025470547819678416,2.555
0.0013601650349547108,2.556
2.272835566146661e-05,2.557
-0.001610195375948887,2.558
-0.0037173955977157667,2.559
-0.00632924411936893,2.56
-0.009191233803775132,2.561
-0.011765383507957394,2.562
-0.013357443672310404,2.563
-0.01331065619045213,2.564
-0.01122181470407807,2.565
-0.007138482466723299,2.566
-0.0016863893348280925,2.567
0.003957679062059686,2.568
0.008391799384955372,2.569
0.01060289888308641,2.57
0.010466990111320866,2.571
0.00871149693616018,2.572
0.00642868326012631,2.573
0.00455925103263505,2.574
0.0036091912985795733,2.575
0.003616496111635297,2.576
0.0042702459755295345,2.577
0.005080461649375309,2.578
0.005548040400272939,2.579
0.005309125351818936,2.58
0.004213729303450236,2.581
0.0023108821556035216,2.582
-0.0002134961872106857,2.583
-0.003073853406998164,2.584
-0.005900983008273123,2.585
-0.008277425832025034,2.586
-0.00980407130580669,2.587
-0.010189859056443457,2.588
-0.009340149836180221,2.589
-0.007419863861252509,2.59
-0.0048637518911850254,2.591
-0.002287888488408916,2.592
-0.0002993820465395338,2.593
0.0007158430965246205,2.594
0.0007196632763444777,2.595
3.026035630006712e-05,2.596
-0.00074892816429771,2.597
-0.0009078321856040606,2.598
5.613838956315825e-05,2.599
0.0021495724475842854,2.6
0.00483694223892914,2.601
0.007286361431910952,2.602
0.008764456194874724,2.603
0.008928992217379642,2.604
0.007877153195210942,2.605
0.0060037421579208685,2.606
0.003776613960429791,2.607
0.0015407827856605237,2.608
-0.0005652402614857292,2.609
-0.0025747112728537265,2.61
-0.00456806774182358,2.611
-0.006511128985751703,2.612
-0.008153022608907537,2.613
-0.009071532264883712,2.614
-0.008847713714503082,2.615
-0.007257417887864347,2.616
-0.004375252268369995,2.617
-0.0005590394513482833,2.618
0.0036276724311269403,2.619
0.007487852477401916,2.62
0.010278389092754072,2.621
0.01136122180688962,2.622
0.010409800302591338,2.623
0.00758916649143304,2.624
0.003551019803994956,2.625
-0.000817272994948601,2.626
-0.00471728864171141,2.627
-0.007652621955316145,2.628
-0.009485817556671982,2.629
-0.010356826687919471,2.63
-0.010516691440143638,2.631
-0.010164343915947747,2.632
-0.009360793815426439,2.633
-0.008034140090997342,2.634
-0.006037375999146159,2.635
-0.003226777077273004,2.636
0.000437694108632462,2.637
0.004766764279392749,2.638
0.009234191903661404,2.639
0.012979634088748677,2.64
0.01504215703185558,2.641
0.014836116213717146,2.642
0.012557064655135725,2.643
0.009112748665944467,2.644
0.005615619131862675,2.645
0.002850813725541536,2.646
0.001024403985965538,2.647
-0.00015769518245274604,2.648
-0.0011787730569578737,2.649
-0.0023686461380069104,2.65
-0.0037470699762194018,2.651
-0.005112312780952472,2.652
-0.006226342029589483,2.653
-0.006930055462142579,2.654
-0.007166436132657503,2.655
-0.006963429698121938,2.656
-0.006400788978666585,2.657
-0.00557284049910072,2.658
-0.004562653177028341,2.659
-0.0034351777074216236,2.66
-0.0022538747513736845,2.661
-0.0011068563689548346,2.662
-0.00010015999179947637,2.663
0.0006900099856096748,2.664
0.0012609573525803421,2.665
0.0016925379013606823,2.666
0.0021144399850055143,2.667
0.0026353208604673307,2.668
0.0032709047468944146,2.669
0.003913408027485935,2.67
0.0043517156336387265,2.671
0.004335708564438199,2.672
0.003668335064405583,2.673
0.002290273146010225,2.674
0.00032434214519739385,2.675
-0.0019330527573708323,2.676
-0.004064174971997093,2.677
-0.005601270847137548,2.678
-0.006114294515950656,2.679
-0.005328220395919307,2.68
-0.0032283320316028596,2.681
-8.704020281576674e-05,2.682
0.0035922828760748537,2.683
0.007176179526610107,2.684
0.010020551063454574,2.685
0.011594954517791854,2.686
0.011590123858913795,2.687
0.009992315212519002,2.688
0.007095248324305988,2.689
0.003385556880998943,2.69
-0.00068251361032954,2.691
-0.004847515066203767,2.692
-0.008967041274759406,2.693
-0.012768546719224848,2.694
-0.015676572669199473,2.695
-0.016906379208735733,2.696
-0.015795624514279197,2.697
-0.012188713809168278,2.698
-0.006653759819894315,2.699
-0.0003801247579443417,2.7
0.005218010744848858,2.701
0.00897922163394442,2.702
0.010331089694578516,2.703
0.009395686672016132,2.704
0.006849067696662302,2.705
0.0035884923423448118,2.706
0.000394506949495042,2.707
-0.00222620517097702,2.708
-0.00399535132260243,2.709
-0.004747310797854745,2.71
-0.004400458204777171,2.711
-0.0030223413643498728,2.712
-0.0008633669166314424,2.713
0.0016917929584393053,2.714
0.004199284076863249,2.715
0.006229050592784226,2.716
0.007444254305889031,2.717
0.007663615682801221,2.718
0.006884636190503481,2.719
0.005277818249734611,2.72
0.003144826334328266,2.721
0.0008308815872315053,2.722
-0.0013662107176407225,2.723
-0.0032297406548590785,2.724
-0.0046004067915663555,2.725
-0.005358527888854467,2.726
-0.0054418704310106505,2.727
-0.00486493865156227,2.728
-0.003732228441487966,2.729
-0.0022553971476912205,2.73
