VaMe,time
-0.00017528101456700673,0.001
-0.00026022250669322205,0.002
5.510265118949193e-05,0.003
0.001075464462198466,0.004
0.0029497085573350667,0.005
0.0055760180887894535,0.006
0.00854150305913144,0.007
0.011178110889300846,0.008
0.01273876173985563,0.009
0.012634834682580535,0.01
0.010673885785822002,0.011
0.007214295472751033,0.012
0.003122228890478901,0.013
-0.0005009002790207793,0.014
-0.002686182608909591,0.015
-0.0028929439344842337,0.016
-0.0011842768884363876,0.017
0.001731987857383388,0.018
0.004674828489991953,0.019
0.006394654304846277,0.02
0.006047662477082308,0.021
0.0034800477426862614,0.022
-0.0008029682607189791,0.023
-0.005881091163704171,0.024
-0.010713558679591995,0.025
-0.01439420838443042,0.026
-0.016297751437368824,0.027
-0.01608920483885698,0.028
-0.013688793597133146,0.029
-0.009295188471460523,0.03
-0.003460515627856139,0.031
0.0028729631552658007,0.032
0.008520336151929181,0.033
0.01243530643348535,0.034
0.014100837711385232,0.035
0.013623818083727148,0.036
0.011489674868666012,0.037
0.00823924183652615,0.038
0.004363897305886672,0.039
0.0004214149564726192,0.04
-0.002919905805439742,0.041
-0.005081926473503545,0.042
-0.005830508047378684,0.043
-0.0053543836182176775,0.044
-0.004180083455077085,0.045
-0.0030062764649728853,0.046
-0.002480603934953098,0.047
-0.0029431930266255683,0.048
-0.004232018351983651,0.049
-0.005702813860391999,0.05
-0.0065032930888177945,0.051
-0.005926726769024863,0.052
-0.0036584431514416096,0.053
0.00011933108634219365,0.054
0.004749944786366231,0.055
0.009246235826048632,0.056
0.01253822996804143,0.057
0.013808976912728478,0.058
0.012816552601528603,0.059
0.009984548048841043,0.06
0.006165948963815173,0.061
0.0022589549460338395,0.062
-0.0010845031618605088,0.063
-0.003562244651162627,0.064
-0.005168156058027572,0.065
-0.006070619621376622,0.066
-0.006500500582081439,0.067
-0.006683431975359689,0.068
-0.00681113772421588,0.069
-0.0070088356406966005,0.07
-0.007295910332772194,0.071
-0.007575091573842349,0.072
-0.007643746167326574,0.073
-0.007235741767496573,0.074
-0.00613037279373774,0.075
-0.004287382314154344,0.076
-0.0019011258200717822,0.077
0.0006746494384143646,0.078
0.0030468797288967986,0.079
0.00484622620149299,0.08
0.005781456190736051,0.081
0.0057629357753872295,0.082
0.00501982224293724,0.083
0.004093242476233461,0.084
0.0036814061817791303,0.085
0.004349532615224495,0.086
0.00616460808259275,0.087
0.008512403839663821,0.088
0.010372956573916875,0.089
0.01088447314212055,0.09
0.009703508416382157,0.091
0.0069852096958504676,0.092
0.0032044148479311255,0.093
-0.00101411503756584,0.094
-0.005041921760148051,0.095
-0.008340180974176027,0.096
-0.010512590268676186,0.097
-0.01138364193919,0.098
-0.011062547426633198,0.099
-0.009894003608134387,0.1
-0.008292865049764236,0.101
-0.006555373852480249,0.102
-0.004770172872088413,0.103
-0.002891171331453193,0.104
-0.0008808644303025561,0.105
0.0012168094098269225,0.106
0.0032764566960967706,0.107
0.005112411846733181,0.108
0.0065366047798435705,0.109
0.007420558485674207,0.11
0.007695487781798668,0.111
0.007308923111637876,0.112
0.006188918047707481,0.113
0.004278567154471784,0.114
0.00168590941157296,0.115
-0.0011674904005582565,0.116
-0.0035992063120479146,0.117
-0.004935958754351043,0.118
-0.004829864800993997,0.119
-0.0034473112863567606,0.12
-0.0014236840557036265,0.121
0.0003970244973413782,0.122
0.001242748383230077,0.123
0.0005329864911769809,0.124
-0.0020954880334968407,0.125
-0.006658666845841103,0.126
-0.012563211000995654,0.127
-0.018444526015812677,0.128
-0.022387375530463865,0.129
-0.02253962216821954,0.13
-0.01780979462997132,0.131
-0.008303688903798137,0.132
0.004628327494925304,0.133
0.018654538771949468,0.134
0.03096578024565348,0.135
0.03901117952766477,0.136
0.0412619955692512,0.137
0.03760913207741766,0.138
0.029233622373118624,0.139
0.018140414804381017,0.14
0.006586288572443964,0.141
-0.003468283016918981,0.142
-0.010792590796730612,0.143
-0.015095108097171349,0.144
-0.016911233394513035,0.145
-0.017233334624492263,0.146
-0.017076835590485902,0.147
-0.01712780102987053,0.148
-0.017543327920971182,0.149
-0.0179370767379171,0.15
-0.01756442736559858,0.151
-0.01568530549347747,0.152
-0.011976982825813335,0.153
-0.006775985535576895,0.154
-0.0009762706228019406,0.155
0.00436406488202094,0.156
0.008425192046228273,0.157
0.010796697784948087,0.158
0.011446966484084041,0.159
0.010642346795945914,0.16
0.008863655954663848,0.161
0.0067142186762758765,0.162
0.004835784207952979,0.163
0.0038108557106186053,0.164
0.004009562193807831,0.165
0.005421064418648228,0.166
0.007584626609630378,0.167
0.009664977956379845,0.168
0.01060790632892586,0.169
0.00933308607476219,0.17
0.005007558199808581,0.171
-0.002559485893616438,0.172
-0.012568262705829062,0.173
-0.02325909000796462,0.174
-0.032367149909516356,0.175
-0.0376799401095642,0.176
-0.03750046091884976,0.177
-0.0310604980209871,0.178
-0.018857419710713468,0.179
-0.002740983538963336,0.18
0.014448145189225195,0.181
0.029659223100000773,0.182
0.040440374571515496,0.183
0.04545165026587192,0.184
0.04466455068277888,0.185
0.03917788006579287,0.186
0.030616072462998134,0.187
0.020509986934356676,0.188
0.010051317922490227,0.189
7.311533274837094e-05,0.19
-0.008943144382918152,0.191
-0.016737147711100884,0.192
-0.02302799572544565,0.193
-0.027356129813728938,0.194
-0.029143726986783542,0.195
-0.027967424934508992,0.196
-0.023863546680725347,0.197
-0.017461420500704056,0.198
-0.009889676583508264,0.199
-0.0024834189508126368,0.2
0.003607275849682639,0.201
0.0077134813817584845,0.202
0.00974322787151725,0.203
0.010061190572959377,0.204
0.00910271776571922,0.205
0.00691712700906274,0.206
0.0031108830079778307,0.207
-0.0026905811627660602,0.208
-0.010238474043698004,0.209
-0.018292485546700186,0.21
-0.0246903040535752,0.211
-0.026859858979845094,0.212
-0.022596037105893925,0.213
-0.010947224226885452,0.214
0.007010427301907866,0.215
0.027945624561958954,0.216
0.04693701463630034,0.217
0.05899649051693637,0.218
0.06089355236666789,0.219
0.05227857226686806,0.22
0.035463837580968056,0.221
0.014277999955269394,0.222
-0.007133424825792774,0.223
-0.025178198751931256,0.224
-0.037436290370601324,0.225
-0.04305249906482237,0.226
-0.04278620906798415,0.227
-0.03861621734112238,0.228
-0.032895569140688904,0.229
-0.027391697470252687,0.23
-0.02280202873657112,0.231
-0.01888780411685771,0.232
-0.014849984856548041,0.233
-0.009734859169511676,0.234
-0.0029182120888593768,0.235
0.0054588959357055895,0.236
0.014426717843832324,0.237
0.022609834490809205,0.238
0.02888354648510716,0.239
0.032897520687047335,0.24
0.03514695442906634,0.241
0.03642935715230405,0.242
0.037029376183791526,0.243
0.036346816989702546,0.244
0.033315520029871315,0.245
0.027249620152237624,0.246
0.018369993385812758,0.247
0.007598280865051413,0.248
-0.004057709562859213,0.249
-0.015980394286284134,0.25
-0.02806477913175348,0.251
-0.04050017735532604,0.252
-0.053267145977862806,0.253
-0.0655440110181208,0.254
-0.0754064695965689,0.255
-0.08010784988656981,0.256
-0.07685826455950495,0.257
-0.06380996094714994,0.258
-0.04092383244137512,0.259
-0.010347326958486483,0.26
0.023888296370572736,0.261
0.056670305106372804,0.262
0.08284016272742571,0.263
0.09840527466434602,0.264
0.10167368355074188,0.265
0.09358021249347638,0.266
0.07690306156371113,0.267
0.05504501152270649,0.268
0.031158462669329035,0.269
0.00783736260317345,0.27
-0.012809045378737541,0.271
-0.029028684047531502,0.272
-0.039514140448283525,0.273
-0.043756807937537466,0.274
-0.04238672745806528,0.275
-0.037076669756613514,0.276
-0.029972923547008923,0.277
-0.023073691723367065,0.278
-0.017864409649217396,0.279
-0.015132971291778015,0.28
-0.01482330463291902,0.281
-0.015988034293117088,0.282
-0.017044675613267998,0.283
-0.016408966927770247,0.284
-0.013195440647582416,0.285
-0.007486754087836992,0.286
-5.541152834641578e-05,0.287
0.00804646021521268,0.288
0.01567739417344896,0.289
0.021664951713803303,0.29
0.024896332189791058,0.291
0.02448387106367501,0.292
0.02005081190191793,0.293
0.012034602639388206,0.294
0.00175613882274148,0.295
-0.008799879775368271,0.296
-0.017353140442312853,0.297
-0.021821540956976374,0.298
-0.021011829742676014,0.299
-0.01530370191342833,0.3
-0.0067308097000666565,0.301
0.0019524612448382165,0.302
0.008675048839215719,0.303
0.012766848978848102,0.304
0.014587867866138597,0.305
0.014777713439368671,0.306
0.013831354140253091,0.307
0.012069400102164474,0.308
0.009798419585243643,0.309
0.007462738049367877,0.31
0.0056307109228146465,0.311
0.004811432813723394,0.312
0.005243215391110058,0.313
0.006772450097637209,0.314
0.008874249695304775,0.315
0.010793518915813368,0.316
0.011736335104988303,0.317
0.011092153631215199,0.318
0.008608890422887922,0.319
0.004369114820477039,0.32
-0.001369480801484587,0.321
-0.008215738853055689,0.322
-0.015550115683704553,0.323
-0.022542800826330003,0.324
-0.028340268761624134,0.325
-0.03225071096493503,0.326
-0.03386400281358098,0.327
-0.033085520986952985,0.328
-0.030028565577905182,0.329
-0.024886348086525865,0.33
-0.018007026709688748,0.331
-0.010089838867241383,0.332
-0.0021542231650645894,0.333
0.004803881917155492,0.334
0.01019447916536817,0.335
0.014007659148597985,0.336
0.016714220470752317,0.337
0.018947225172090593,0.338
0.021120387235912388,0.339
0.023173239731166754,0.34
0.024595997857029726,0.341
0.02474803277123067,0.342
0.023253963335412263,0.343
0.020217522672736625,0.344
0.01618456156574375,0.345
0.011946615713560956,0.346
0.008305432400484787,0.347
0.005887237063562613,0.348
0.005013689319467857,0.349
0.0055678141934154286,0.35
0.0068797311991592655,0.351
0.007752721985078872,0.352
0.006701192005322296,0.353
0.0024022949445985362,0.354
-0.005768001410712815,0.355
-0.017368268773894364,0.356
-0.030815123756548837,0.357
-0.043547478846105915,0.358
-0.052444642692831354,0.359
-0.05458095562551755,0.36
-0.04820833440775266,0.361
-0.033562839681095344,0.362
-0.013060434074837042,0.363
0.009285970008768794,0.364
0.029036433382599116,0.365
0.042599277843939985,0.366
0.048091046311640795,0.367
0.04554273780448492,0.368
0.03660712582986559,0.369
0.02401726997545814,0.37
0.010853659053370003,0.371
-0.0002551403478302306,0.372
-0.007674998693746317,0.373
-0.010943444963033892,0.374
-0.010714562297109485,0.375
-0.008469826463552658,0.376
-0.005920643919912481,0.377
-0.0043167187372237376,0.378
-0.004098598183532704,0.379
-0.00504998173345321,0.38
-0.006686913043616274,0.381
-0.008568015565502315,0.382
-0.010391660065852097,0.383
-0.011937568837112568,0.384
-0.012982224235008053,0.385
-0.013250853440903442,0.386
-0.012453187063248976,0.387
-0.010404164256760258,0.388
-0.007077385684843767,0.389
-0.0025468908940094563,0.39
0.002993715840257071,0.391
0.009111419002439506,0.392
0.015084209724742455,0.393
0.019938806801429638,0.394
0.02256081499025133,0.395
0.021988979725725995,0.396
0.017882321639168867,0.397
0.010907115275009744,0.398
0.0027189754765262683,0.399
-0.004608413541966236,0.4
-0.009480094296389442,0.401
-0.011470549870722194,0.402
-0.011363900141313499,0.403
-0.010542525776831785,0.404
-0.010086981769457869,0.405
-0.010045839768890457,0.406
-0.009343967179045903,0.407
-0.00650593033840036,0.408
-0.0006950002037060131,0.409
0.007720085384257418,0.41
0.017325192119111956,0.411
0.026159052657949468,0.412
0.03217734063896838,0.413
0.03368881216719379,0.414
0.02978239154100968,0.415
0.02055460583938538,0.416
0.007061439231897241,0.417
-0.008850089681623714,0.418
-0.02474206430864778,0.419
-0.03793152199490479,0.42
-0.046077065999011825,0.421
-0.04778913597252293,0.422
-0.04290447434306125,0.423
-0.03240046721176212,0.424
-0.018149709145867863,0.425
-0.002581866906721674,0.426
0.01172000727575483,0.427
0.02246746986933179,0.428
0.028171149599096605,0.429
0.028528984106515262,0.43
0.024440115346744715,0.431
0.017658271082891287,0.432
0.010294506718575633,0.433
0.004314453643293214,0.434
0.0011273286459998395,0.435
0.0013370515076595692,0.436
0.004632982283672198,0.437
0.009776325497408202,0.438
0.014743500302408173,0.439
0.017160220043821256,0.44
0.015004796909827903,0.441
0.007286335783797121,0.442
-0.00559593407891245,0.443
-0.02180338515483496,0.444
-0.038220761210928565,0.445
-0.05097524548496335,0.446
-0.05639699397371671,0.447
-0.052031994042831986,0.448
-0.037275189677765365,0.449
-0.01366324173773703,0.45
0.015113059448884688,0.451
0.04370656833817998,0.452
0.06617434457873218,0.453
0.07738629687393063,0.454
0.0745003002204584,0.455
0.05798439007264323,0.456
0.03154547641813744,0.457
0.0008903133336161809,0.458
-0.027957622436316495,0.459
-0.05000507615383327,0.46
-0.06210793057125047,0.461
-0.06334716252073262,0.462
-0.05489287362464112,0.463
-0.03938425938760166,0.464
-0.02012638812036287,0.465
-0.00038824458828483387,0.466
0.01708499415216412,0.467
0.030367779227271945,0.468
0.03848036308979378,0.469
0.04125988564609593,0.47
0.03900084816787329,0.471
0.03221075207674647,0.472
0.021773632614528655,0.473
0.009251960006424797,0.474
-0.0031613675178235423,0.475
-0.013119543312658629,0.476
-0.018806832133513515,0.477
-0.019566591925169952,0.478
-0.016115414159362296,0.479
-0.010228289671143403,0.48
-0.004303704065692806,0.481
-0.0010574848325708296,0.482
-0.0030061119622229026,0.483
-0.011540426463889714,0.484
-0.02600207810791733,0.485
-0.04334570316707141,0.486
-0.058606174862383294,0.487
-0.06607592989148695,0.488
-0.061046188139690746,0.489
-0.04158256036755681,0.49
-0.009459425506965482,0.491
0.03008128656615081,0.492
0.06949639918178409,0.493
0.10077727017941429,0.494
0.11753946538161093,0.495
0.11663729407285105,0.496
0.09878394074696023,0.497
0.06824448275059754,0.498
0.03182608410142634,0.499
-0.0028711886054097703,0.5
-0.029640121629934155,0.501
-0.04523989256527181,0.502
-0.04956122695316462,0.503
-0.04469303079814446,0.504
-0.033767056161007704,0.505
-0.02010109012397518,0.506
-0.006643902914416747,0.507
0.004352490277262014,0.508
0.011380021334936671,0.509
0.013478816296129747,0.51
0.010051257442293456,0.511
0.0008605179627064226,0.512
-0.013845307781639159,0.513
-0.033111136618372464,0.514
-0.05495940904436886,0.515
-0.07623024969248976,0.516
-0.09300570016255685,0.517
-0.10171952233611384,0.518
-0.10028739628987247,0.519
-0.08836687443839107,0.52
-0.06670884611114072,0.521
-0.03646339044768559,0.522
0.0007924164643393274,0.523
0.042415547144077616,0.524
0.08414675654699917,0.525
0.12019265566868563,0.526
0.14428600290266763,0.527
0.15160336091534707,0.528
0.1404962331900595,0.529
0.11309804941257005,0.53
0.07479571632894082,0.531
0.03285166430200647,0.532
-0.005491794183936393,0.533
-0.03478166901305375,0.534
-0.052305180874017546,0.535
-0.05809616872419212,0.536
-0.054367970094780844,0.537
-0.044646612994077545,0.538
-0.03283233927317124,0.539
-0.022502589212742483,0.54
-0.016423541646889184,0.541
-0.015974261586486647,0.542
-0.02062816192264182,0.543
-0.028022387241215113,0.544
-0.03474143775900388,0.545
-0.037387909193591674,0.546
-0.0335197286042583,0.547
-0.022308970335244496,0.548
-0.00483780324064192,0.549
0.01612960446991348,0.55
0.03691309842267303,0.551
0.05390287059033172,0.552
0.06438121109679815,0.553
0.06698102354508945,0.554
0.0616910819871514,0.555
0.04950306647327733,0.556
0.03198708693479603,0.557
0.010876197598177111,0.558
-0.012346737846719505,0.559
-0.036492150640946935,0.56
-0.06013659363875488,0.561
-0.08106738847617281,0.562
-0.09637747744412367,0.563
-0.10331240929757468,0.564
-0.10027472070491665,0.565
-0.08721285451771396,0.566
-0.06526852105316627,0.567
-0.03620354072768235,0.568
-0.002115339538935233,0.569
0.03436494784530488,0.57
0.06958076163453818,0.571
0.0986616414389696,0.572
0.11618330696304396,0.573
0.11762728809676076,0.574
0.10114769074092167,0.575
0.06905057789836007,0.576
0.0282793470874184,0.577
-0.010770109300456748,0.578
-0.037200599243785736,0.579
-0.04345032975125364,0.58
-0.028354816739140833,0.581
0.002133623352306828,0.582
0.03694219026566233,0.583
0.0637197147623968,0.584
0.07313342920193537,0.585
0.06194652608738733,0.586
0.03356694089500012,0.587
-0.003922129100652792,0.588
-0.041108772661261034,0.589
-0.07036600978783429,0.59
-0.08736445218399944,0.591
-0.09089699899042979,0.592
-0.08214241682555112,0.593
-0.06412267174140332,0.594
-0.04115832330157844,0.595
-0.01821327045262109,0.596
-0.00023048030061417464,0.597
0.008776604922061186,0.598
0.006926001018209742,0.599
-0.004493905783725176,0.6
-0.020653956427737173,0.601
-0.034013228066145984,0.602
-0.03674298782893015,0.603
-0.024144242178140318,0.604
0.0026427502452724904,0.605
0.036232779282248585,0.606
0.06532491753975608,0.607
0.07883072919090389,0.608
0.06998557993703539,0.609
0.03888049791112929,0.61
-0.007171711024311663,0.611
-0.05537576585856158,0.612
-0.09099279248101119,0.613
-0.10192263896419554,0.614
-0.08279488472815863,0.615
-0.036801754761720304,0.616
0.025420916179123804,0.617
0.0891043223939613,0.618
0.13957437307991308,0.619
0.16616759869339645,0.62
0.16463368714779003,0.621
0.13738917795166208,0.622
0.09191869699823073,0.623
0.03814100317989275,0.624
-0.014263871265632484,0.625
-0.05773239698850774,0.626
-0.08766740042110871,0.627
-0.10248687904685143,0.628
-0.10312181585697351,0.629
-0.09214855510849627,0.63
-0.07287266598384097,0.631
-0.04875612176777103,0.632
-0.02328762238333602,0.633
-7.28494534900626e-05,0.634
0.017246957173961325,0.635
0.025627793440415055,0.636
0.02370825532374239,0.637
0.012675065501664648,0.638
-0.0037158386607814187,0.639
-0.020046390282134084,0.64
-0.03083484862078342,0.641
-0.032474461631270664,0.642
-0.024689635711533268,0.643
-0.010502416736776307,0.644
0.005199673375394671,0.645
0.017311647375583886,0.646
0.021820061026015032,0.647
0.017104430127667866,0.648
0.00491082856893728,0.649
-0.00999609692669716,0.65
-0.021644623883451966,0.651
-0.025153713394105475,0.652
-0.01848146151408534,0.653
-0.0030016757817523674,0.654
0.01719132828691234,0.655
0.03659263357252844,0.656
0.049633124193495366,0.657
0.05213634391840893,0.658
0.04266821160753884,0.659
0.023152676475823093,0.66
-0.0015016016471289613,0.661
-0.02475998363368829,0.662
-0.040552119987595225,0.663
-0.045106641279288526,0.664
-0.03757572288617604,0.665
-0.01971317366771083,0.666
0.004663407529019772,0.667
0.030484519088366753,0.668
0.05266952882779719,0.669
0.06715310391674337,0.67
0.07117530260278601,0.671
0.06331740513946882,0.672
0.043986271645173144,0.673
0.016122221516253882,0.674
-0.014919933448275583,0.675
-0.04299093945418467,0.676
-0.06348285216579234,0.677
-0.07451679517719564,0.678
-0.07626701545520093,0.679
-0.06987667755712208,0.68
-0.057150601756278625,0.681
-0.04037190079081791,0.682
-0.021665137698404925,0.683
-0.0024577664437648726,0.684
0.016320968629406105,0.685
0.03336632641424567,0.686
0.046445088794543704,0.687
0.05299094165232388,0.688
0.0512507436085723,0.689
0.040993420027115396,0.69
0.0234982212590054,0.691
0.0009616939122530958,0.692
-0.024038121549194165,0.693
-0.048388796118122274,0.694
-0.06799026729695233,0.695
-0.07770454651551194,0.696
-0.0721745825543392,0.697
-0.04807715186495218,0.698
-0.0070767755830078456,0.699
0.04310924117052205,0.7
0.09091441889908229,0.701
0.1248766269158612,0.702
0.1372268470329416,0.703
0.12601817154486783,0.704
0.09534975038396618,0.705
0.05375563670923982,0.706
0.011293806523797351,0.707
-0.023818024676442714,0.708
-0.04776436326952146,0.709
-0.061507316182169904,0.71
-0.06870053211510622,0.711
-0.07272030681853023,0.712
-0.07481344348590545,0.713
-0.07405184400698675,0.714
-0.06851105894005255,0.715
-0.05668066445520925,0.716
-0.03844318574735931,0.717
-0.015492385833362751,0.718
0.00890255474615027,0.719
0.030862112140980044,0.72
0.04703390147137582,0.721
0.05521454273818336,0.722
0.05461138577541547,0.723
0.04605569762676597,0.724
0.0319299757932603,0.725
0.015786440012845026,0.726
0.001861095001269005,0.727
-0.005802429495932744,0.728
-0.0048922076823139015,0.729
0.003552115459450849,0.73
0.014679062141450826,0.731
0.021383668061119465,0.732
0.017236425682308824,0.733
-0.0010076850388211045,0.734
-0.03243858766665158,0.735
-0.07243732297387447,0.736
-0.11391534670153171,0.737
-0.14855578105758427,0.738
-0.1679001061064945,0.739
-0.16522430132046587,0.74
-0.1382107021970688,0.741
-0.09040935399315486,0.742
-0.03006042477396061,0.743
0.0329267644375054,0.744
0.09014824379231162,0.745
0.13660584343306514,0.746
0.17061317677986979,0.747
0.1923374011754624,0.748
0.2024578075777986,0.749
0.2016411938231093,0.75
0.19054991583379038,0.751
0.1701329868713031,0.752
0.14201840045997075,0.753
0.10855728949093986,0.754
0.07231747649084241,0.755
0.035365274179807546,0.756
-0.0013060266062446223,0.757
-0.03792028628569134,0.758
-0.07525663341488575,0.759
-0.11330885957349998,0.76
-0.150220053517667,0.761
-0.18232914078814014,0.762
-0.2051218582653183,0.763
-0.21432139824544505,0.764
-0.20673492113469824,0.765
-0.1808690301019323,0.766
-0.13748974285526255,0.767
-0.08016293402063607,0.768
-0.015259886627095216,0.769
0.04899056827009366,0.77
0.10397474118492488,0.771
0.14221126947695673,0.772
0.1589631265691531,0.773
0.15370930424094817,0.774
0.130607210597875,0.775
0.09703230667227347,0.776
0.06026370059134432,0.777
0.024248629104650445,0.778
-0.01104439173835883,0.779
-0.047237022960904235,0.78
-0.08426777932877778,0.781
-0.11898121464448116,0.782
-0.14652564399883655,0.783
-0.16287443686634825,0.784
-0.16578307149721064,0.785
-0.15342388343593805,0.786
-0.12303659367567003,0.787
-0.0721534856004345,0.788
-0.0016754404917778323,0.789
0.0820020024427874,0.79
0.16753588542945066,0.791
0.24172027151668002,0.792
0.29326638736058874,0.793
0.31520018708967,0.794
0.30562272372375227,0.795
0.26726328539787547,0.796
0.20575921140206324,0.797
0.12764395959028477,0.798
0.03947959125668192,0.799
-0.05211994864330813,0.8
-0.14040625345328156,0.801
-0.21834157316302022,0.802
-0.27849408332700815,0.803
-0.3135922287797105,0.804
-0.3181006258217712,0.805
-0.29043213405394286,0.806
-0.2345606199157465,0.807
-0.1596349653888774,0.808
-0.07724289290020377,0.809
0.0022149666517570278,0.81
0.07186952068876531,0.811
0.1286098063683385,0.812
0.1718930392170647,0.813
0.20217360532873888,0.814
0.2196191040046644,0.815
0.22332156133023048,0.816
0.21119623321034472,0.817
0.18119866656797984,0.818
0.133650531710762,0.819
0.07265022153365545,0.82
0.005156034386590621,0.821
-0.06122278607849796,0.822
-0.11999473859825371,0.823
-0.16632305150909796,0.824
-0.19652999184475,0.825
-0.20771814810317815,0.826
-0.19870939731469353,0.827
-0.17163163399789536,0.828
-0.1320225189617522,0.829
-0.08679988586804151,0.83
-0.0417127699620188,0.831
-0.00016525090241540253,0.832
0.03604018374352621,0.833
0.06486818391403279,0.834
0.08258799291973441,0.835
0.08452287693123754,0.836
0.06875826838903812,0.837
0.040048656514208,0.838
0.009794666158735211,0.839
-0.0083509793998432,0.84
-0.0038826347705234084,0.841
0.027080733556518403,0.842
0.08053034109050392,0.843
0.14504073707824333,0.844
0.2046583729145415,0.845
0.2442193316217941,0.846
0.25450655755869356,0.847
0.2341553713441245,0.848
0.1876651474396851,0.849
0.12153917207069116,0.85
0.0412784257365799,0.851
-0.04940275679492229,0.852
-0.14742217296699625,0.853
-0.2481968833446738,0.854
-0.3436428834637109,0.855
-0.4215519868129799,0.856
-0.46720319630709284,0.857
-0.46684305634071466,0.858
-0.4118895763818187,0.859
-0.30272737112011827,0.86
-0.15053408070120067,0.861
0.024014254335485263,0.862
0.19429891249720146,0.863
0.3324627146793107,0.864
0.41558411536847756,0.865
0.4326899536412029,0.866
0.38938027981363355,0.867
0.3064935572873549,0.868
0.21238345782966483,0.869
0.132406782331427,0.87
0.08030833180659713,0.871
0.05486940478182586,0.872
0.04328148840750456,0.873
0.02926915999090238,0.874
0.0012148784949880939,0.875
-0.04328181062336339,0.876
-0.09728854768481265,0.877
-0.14826614216415127,0.878
-0.18379218192290206,0.879
-0.19654091432627993,0.88
-0.1863738471934382,0.881
-0.15902486546717426,0.882
-0.12271969078754547,0.883
-0.08495191439245972,0.884
-0.05091143384108271,0.885
-0.023770659658579274,0.886
-0.005703526015870778,0.887
0.0019055305593313641,0.888
-0.000773572746292606,0.889
-0.011400524031347156,0.89
-0.025777526318953376,0.891
-0.038844668776569696,0.892
-0.04556701019618745,0.893
-0.041326672432502404,0.894
-0.02250352898511669,0.895
0.011937946011508339,0.896
0.05861393449527791,0.897
0.10936352624906637,0.898
0.15288288121594218,0.899
0.17770315470946993,0.9
0.17596176218417792,0.901
0.1467200287056277,0.902
0.0965425903102921,0.903
0.036702722025567965,0.904
-0.020719956066182592,0.905
-0.0656019617203918,0.906
-0.0912360800833503,0.907
-0.09499107897531342,0.908
-0.07833631441303777,0.909
-0.04640710460652079,0.91
-0.007157245595563775,0.911
0.030065589373395644,0.912
0.05667556635328915,0.913
0.06746410645177335,0.914
0.062491387216117876,0.915
0.04682768885224427,0.916
0.027994236336414877,0.917
0.012631228746699533,0.918
0.004149554924048148,0.919
0.001982321503779925,0.92
0.002483742562804088,0.921
0.0012687239259313021,0.922
-0.004296138473152807,0.923
-0.01411257164197281,0.924
-0.026192435563421167,0.925
-0.03812983531713899,0.926
-0.048160781680486896,0.927
-0.05574384956357309,0.928
-0.06169793324832877,0.929
-0.0677768468041298,0.93
-0.07562654166461162,0.931
-0.0852753998907764,0.932
-0.09388799126294532,0.933
-0.09589600780025727,0.934
-0.08536802235336684,0.935
-0.05995998939593147,0.936
-0.02355724607073971,0.937
0.014811146761942805,0.938
0.04490652834981179,0.939
0.05940343344975409,0.94
0.05622335659143937,0.941
0.03847556278551788,0.942
0.012922914169395458,0.943
-0.011685836980231309,0.944
-0.02616020835769055,0.945
-0.022927650845172752,0.946
0.0011202668851245815,0.947
0.04214261524142337,0.948
0.0892941419861224,0.949
0.12807164838124652,0.95
0.1458833575297859,0.951
0.1373962547445954,0.952
0.1070300359735945,0.953
0.06674047918765895,0.954
0.03002651238277864,0.955
0.006035726550862553,0.956
-0.0031089034478050484,0.957
-0.0014257354340253678,0.958
0.0041937835096994966,0.959
0.007781478247090931,0.96
0.006698068041884308,0.961
0.0017372095550677803,0.962
-0.0044557616967245755,0.963
-0.009174261871645157,0.964
-0.010824381322745014,0.965
-0.009593396074863581,0.966
-0.007724779635064615,0.967
-0.00916566951936825,0.968
-0.01839142664694402,0.969
-0.03864064824102228,0.97
-0.07019466809795677,0.971
-0.1095468062975653,0.972
-0.1500965681620667,0.973
-0.18382784371140864,0.974
-0.20280035193564672,0.975
-0.20060958673846865,0.976
-0.17416941152482796,0.977
-0.12443576941131551,0.978
-0.05549673641904894,0.979
0.026125371531641968,0.98
0.1110057523494264,0.981
0.18673685332685425,0.982
0.2397472086010209,0.983
0.2587365448672705,0.984
0.2385675537541367,0.985
0.18328892021113755,0.986
0.10654920717630673,0.987
0.028306955136652715,0.988
-0.03139678318819085,0.989
-0.059397943581436866,0.99
-0.05417631707513199,0.991
-0.026081969953951182,0.992
0.007066794849307318,0.993
0.02717980397845842,0.994
0.023259210574763302,0.995
-0.004331849292032836,0.996
-0.0449696678331225,0.997
-0.08322649836901748,0.998
-0.10543209282789669,0.999
-0.10432554271831988,1.0
-0.08011427765428843,1.001
-0.03855442142712743,1.002
0.011585462436682896,1.003
0.06014261108416779,1.004
0.09638201005942383,1.005
0.11015251018911355,1.006
0.0947504770386188,1.007
0.050820838461505966,1.008
-0.011894247447947684,1.009
-0.0770408891677252,1.01
-0.12712094919725792,1.011
-0.14907915484680703,1.012
-0.1377475971911889,1.013
-0.09650107556348834,1.014
-0.03594594761563708,1.015
0.02858591629634419,1.016
0.08079098962342407,1.017
0.10793394020132833,1.018
0.10436993065984546,1.019
0.07233250651062752,1.02
0.020401718751100275,1.021
-0.038607515533292294,1.022
-0.09017576227478437,1.023
-0.12185762974854966,1.024
-0.1271563999821034,1.025
-0.1066066740007683,1.026
-0.06479408810104353,1.027
-0.006300032249212396,1.028
0.06458017266551329,1.029
0.14019024078981995,1.03
0.2072673006109698,1.031
0.24947664438258724,1.032
0.2530040736829143,1.033
0.21245897922861956,1.034
0.13481455007509263,1.035
0.038911942646626514,1.036
-0.05026793775470319,1.037
-0.11039648800479808,1.038
-0.12992169834656486,1.039
-0.11199297140230813,1.04
-0.07227804641633911,1.041
-0.03190344546151739,1.042
-0.00918741605913589,1.043
-0.01343075993327153,1.044
-0.04256678892509792,1.045
-0.08523911513111408,1.046
-0.12598346544862898,1.047
-0.15078746686818986,1.048
-0.1510582131407713,1.049
-0.12548800566713134,1.05
-0.0797867142322824,1.051
-0.024615061162973427,1.052
0.027450931476169976,1.053
0.06523713291036244,1.054
0.08199836522551494,1.055
0.07746778029954193,1.056
0.0581773397711897,1.057
0.03523066745884828,1.058
0.019730796727545102,1.059
0.017970568959735596,1.06
0.028933134660876988,1.061
0.04521172639550384,1.062
0.05682489537849853,1.063
0.05616029551614497,1.064
0.0413857989025067,1.065
0.01633538177470944,1.066
-0.012269164469456213,1.067
-0.03730084638601964,1.068
-0.052229603449415136,1.069
-0.05214767206160757,1.07
-0.03571348945072649,1.071
-0.00670491326828984,1.072
0.02657527227830339,1.073
0.05413571773076979,1.074
0.0678329155200889,1.075
0.06403704126918584,1.076
0.044655890519244616,1.077
0.016473033622654048,1.078
-0.010984045491222916,1.079
-0.028640517398742515,1.08
-0.0311082420755396,1.081
-0.018784465623064642,1.082
0.0021588381946178784,1.083
0.022569920246121804,1.084
0.03481711827407105,1.085
0.036000036491479794,1.086
0.027794354678844717,1.087
0.013748423485360862,1.088
-0.003462036804201761,1.089
-0.022916015175138586,1.09
-0.04416767457413835,1.091
-0.06498656454469566,1.092
-0.08022394971588884,1.093
-0.08344070486017102,1.094
-0.0707464257545234,1.095
-0.04405716087798229,1.096
-0.011189721396517789,1.097
0.0174572843768659,1.098
0.03379300098224635,1.099
0.03555296573744331,1.1
0.026155258877503758,1.101
0.011278941731805615,1.102
-0.004961574908710243,1.103
-0.021260612057915202,1.104
-0.03732533100793361,1.105
-0.05137651210326551,1.106
-0.05941562350078361,1.107
-0.05679335630116115,1.108
-0.04081667440351322,1.109
-0.012291258463573209,1.11
0.02502938838113811,1.111
0.06588080054297422,1.112
0.10442661514702573,1.113
0.13485791898397703,1.114
0.1522210316465654,1.115
0.15353432318997512,1.116
0.13878266138158044,1.117
0.11100426611588123,1.118
0.07505766495597631,1.119
0.03566949477827949,1.12
-0.004087121483155474,1.121
-0.043132758133022406,1.122
-0.0816095519701948,1.123
-0.1195393229692112,1.124
-0.15549088756514523,1.125
-0.18579158270328874,1.126
-0.20480692301258047,1.127
-0.20645573654057492,1.128
-0.18629309295754934,1.129
-0.14321626002654914,1.13
-0.08036900414641933,1.131
-0.005025471768842053,1.132
0.07263884410796485,1.133
0.14151469189740185,1.134
0.19178510513744404,1.135
0.21703634529399024,1.136
0.215750728784755,1.137
0.19149794694478056,1.138
0.15138064829164638,1.139
0.10340118150240443,1.14
0.054215424776444684,1.141
0.00798110771637433,1.142
-0.03394644835194699,1.143
-0.07256468462086407,1.144
-0.10963423340194679,1.145
-0.1451112620111549,1.146
-0.17504274689805963,1.147
-0.19162670062359138,1.148
-0.18605731390437813,1.149
-0.15313329942477033,1.15
-0.09518008540961757,1.151
-0.02262756277429184,1.152
0.0496389565975446,1.153
0.1080167631265707,1.154
0.1445506713805256,1.155
0.15797966477625563,1.156
0.1519250557414348,1.157
0.13214463910995797,1.158
0.10440522764864406,1.159
0.07337182177999453,1.16
0.042423023099064996,1.161
0.014027690518705031,1.162
-0.009885848837320327,1.163
-0.02786102555883505,1.164
-0.03914272488882216,1.165
-0.04408393039124842,1.166
-0.04431925015726528,1.167
-0.042268861092348474,1.168
-0.040160817842605036,1.169
-0.03914810076268549,1.17
-0.03888531319967641,1.171
-0.03782970341607978,1.172
-0.03425536536940322,1.173
-0.027276645760018946,1.174
-0.017258272863933454,1.175
-0.005721336799012171,1.176
0.0051021969414401245,1.177
0.013010055419932396,1.178
0.01639992344699289,1.179
0.014249333473298247,1.18
0.0058418411988645285,1.181
-0.008861821904287413,1.182
-0.027931076759067978,1.183
-0.04643888928162451,1.184
-0.05732488181807731,1.185
-0.054534848729788206,1.186
-0.036706443487796885,1.187
-0.008445269911831529,1.188
0.021979942771607697,1.189
0.046635383393614324,1.19
0.06092402036830629,1.191
0.06438223824806011,1.192
0.0597132062123269,1.193
0.05088906420248221,1.194
0.04110457357938828,1.195
0.031708736221155845,1.196
0.022640158243200155,1.197
0.013616454002770359,1.198
0.005077700038913448,1.199
-0.0017552083916452348,1.2
-0.0059479411351295915,1.201
-0.008290377590043682,1.202
-0.011620577696112855,1.203
-0.019426025492164108,1.204
-0.03352369025741454,1.205
-0.05213700935768871,1.206
-0.06955618899984728,1.207
-0.07800857778714695,1.208
-0.07115809790322856,1.209
-0.04735724225195447,1.21
-0.010749344182426013,1.211
0.03019489734746353,1.212
0.0658170528287011,1.213
0.08880401759556134,1.214
0.0964710520429091,1.215
0.09046926930226112,1.216
0.07452592861783246,1.217
0.05239546188408019,1.218
0.027363218523045987,1.219
0.002680655385015638,1.22
-0.018394071362275072,1.221
-0.033302043052173845,1.222
-0.040968815701181584,1.223
-0.042060395928840526,1.224
-0.038559192951255844,1.225
-0.03283042596728078,1.226
-0.026569819098322872,1.227
-0.02017983873299145,1.228
-0.01310227358092079,1.229
-0.004915061635529296,1.23
0.0037345088922710397,1.231
0.010934834832415493,1.232
0.014029742461329054,1.233
0.010648949221021508,1.234
-0.0002022340236844109,1.235
-0.01754750441672455,1.236
-0.03879126406586375,1.237
-0.060982882140334045,1.238
-0.08177946403639033,1.239
-0.09894755172348564,1.24
-0.10909028758966749,1.241
-0.10727860726626476,1.242
-0.0885667103546132,1.243
-0.050744116975348384,1.244
0.003719767908954267,1.245
0.06770391196641938,1.246
0.13071082050777763,1.247
0.18084573580158242,1.248
0.20771188601290377,1.249
0.20543924228874982,1.25
0.17435998064271013,1.251
0.12083040195057156,1.252
0.05557799836670248,1.253
-0.008791292532708455,1.254
-0.06035216486720657,1.255
-0.09016409690564378,1.256
-0.09435233241967185,1.257
-0.07541928070265827,1.258
-0.041855765550498435,1.259
-0.005768466219110936,1.26
0.02075258571487871,1.261
0.029239431413994318,1.262
0.017233401188908367,1.263
-0.01127657498147683,1.264
-0.04749170194167042,1.265
-0.08080742831092992,1.266
-0.10188015494651778,1.267
-0.1047637291868573,1.268
-0.0879610482543281,1.269
-0.05467097759351748,1.27
-0.01214325237836465,1.271
0.030182789459518182,1.272
0.06326480034296415,1.273
0.08065998078870078,1.274
0.07980880812641876,1.275
0.06236197903717271,1.276
0.03344764155388093,1.277
0.00014958612105216151,1.278
-0.03012415740596713,1.279
-0.0511834764206647,1.28
-0.05954468038200458,1.281
-0.05523163334585926,1.282
-0.041236585685822676,1.283
-0.021962001769723197,1.284
-0.0017450928795099204,1.285
0.015640317167163645,1.286
0.026904898674858325,1.287
0.02971728191206465,1.288
0.023905715003915227,1.289
0.012384053409491273,1.29
0.0006312116345726791,1.291
-0.005329223602737506,1.292
-0.00126947845084462,1.293
0.013529300932779225,1.294
0.03573449979274061,1.295
0.059125755951816586,1.296
0.07695058853101808,1.297
0.08410913177768754,1.298
0.0783708220114977,1.299
0.06044561545986908,1.3
0.03308117030925537,1.301
-0.00010737580794402727,1.302
-0.03526170935657208,1.303
-0.06823654876309494,1.304
-0.09448427294377804,1.305
-0.10948612181494893,1.306
-0.10981518425796306,1.307
-0.09436183469305108,1.308
-0.0651446461866374,1.309
-0.027406353090173207,1.31
0.011123897955610194,1.311
0.04192747207859396,1.312
0.05806769067826504,1.313
0.05620268464558148,1.314
0.037459983406624105,1.315
0.0074058067901226115,1.316
-0.024688689406756226,1.317
-0.04787882097481239,1.318
-0.0531067326215507,1.319
-0.03685468987360129,1.32
-0.0026923320506853023,1.321
0.040096793936773255,1.322
0.07985570083770993,1.323
0.1063189241836272,1.324
0.1133721886320038,1.325
0.10003679290893713,1.326
0.06998529707726207,1.327
0.03026363500288272,1.328
-0.010454898912011965,1.329
-0.043870702043721836,1.33
-0.06408425881821495,1.331
-0.06925408765888735,1.332
-0.06187840764034517,1.333
-0.04704978717637939,1.334
-0.029816887996636954,1.335
-0.013573864704049237,1.336
-0.00024466803440520543,1.337
0.008412968590819839,1.338
0.009778092750117201,1.339
0.0008501707231157604,1.34
-0.019627047474221025,1.341
-0.04873033138114389,1.342
-0.07855125128121168,1.343
-0.09805734304155295,1.344
-0.09705800252339555,1.345
-0.07073423147747308,1.346
-0.022650488026249978,1.347
0.0358622729427417,1.348
0.09008410575026028,1.349
0.1273941150276537,1.35
0.1408756808388948,1.351
0.13005471526102522,1.352
0.09956204357224371,1.353
0.05685688705611744,1.354
0.009927819039657676,1.355
-0.03424527568742703,1.356
-0.07019491085013421,1.357
-0.09389126488041237,1.358
-0.10271591226613577,1.359
-0.0956764729379351,1.36
-0.07378271748737938,1.361
-0.0404309311713366,1.362
-0.0012343430225594792,1.363
0.0371418065908032,1.364
0.06863808801805502,1.365
0.08903719999677974,1.366
0.09641513246000542,1.367
0.0911392751747947,1.368
0.07565465480266634,1.369
0.053786977221808696,1.37
0.029609270127798983,1.371
0.006550891074030287,1.372
-0.012918629862460078,1.373
-0.027385638053291684,1.374
-0.03658235456079336,1.375
-0.04125898164942431,1.376
-0.04275209231129734,1.377
-0.04245683904778119,1.378
-0.04144657259091603,1.379
-0.04034811353476707,1.38
-0.03940233478695151,1.381
-0.038590276723573694,1.382
-0.03777475496269014,1.383
-0.036796839026900875,1.384
-0.035430748675148116,1.385
-0.03320512889738379,1.386
-0.02926409822843177,1.387
-0.022533644068458435,1.388
-0.012309969832413581,1.389
0.0009987416871981285,1.39
0.015468668698740721,1.391
0.028019166473962107,1.392
0.03558617385634812,1.393
0.03654802027368536,1.394
0.031674464643220074,1.395
0.024174775412990825,1.396
0.01859573232589112,1.397
0.018706225995827833,1.398
0.02538552269667604,1.399
0.035985818321899905,1.4
0.04569631769655787,1.401
0.04992791178932945,1.402
0.04630206829161404,1.403
0.03534514003229313,1.404
0.019809559072501245,1.405
0.0033997975651905987,1.406
-0.010307826262689298,1.407
-0.018686422897143312,1.408
-0.020777473987175027,1.409
-0.017670020528986915,1.41
-0.01215398709069154,1.411
-0.00765053603924703,1.412
-0.006943623770350446,1.413
-0.011499100765666407,1.414
-0.021697921661727553,1.415
-0.037301031213674646,1.416
-0.057275978306778046,1.417
-0.07896289929822084,1.418
-0.09725421265927388,1.419
-0.10471444051151042,1.42
-0.0934529894578176,1.421
-0.05880512602231131,1.422
-0.0032714943178253097,1.423
0.06226087537204864,1.424
0.12178251034150044,1.425
0.1603187433784956,1.426
0.1695337252012508,1.427
0.15005830457728173,1.428
0.10984636330724101,1.429
0.06006452670380638,1.43
0.010985657791608136,1.431
-0.030376013250830527,1.432
-0.060600866151915095,1.433
-0.07899407089007968,1.434
-0.08647976650840823,1.435
-0.08467835884251104,1.436
-0.07527298191311052,1.437
-0.059948420603776406,1.438
-0.04097802860496149,1.439
-0.021590959885282535,1.44
-0.005146775177313675,1.441
0.006381973936589049,1.442
0.013185355449903877,1.443
0.017069607136938184,1.444
0.02020950964320533,1.445
0.024051376145251588,1.446
0.028742562754662682,1.447
0.033167206222771625,1.448
0.0355415234186746,1.449
0.03414636443562457,1.45
0.027739414951278924,1.451
0.015735657303102016,1.452
-0.0015617264962554545,1.453
-0.022673887318392063,1.454
-0.04473748008491719,1.455
-0.06366165290831281,1.456
-0.07502174173546507,1.457
-0.07556923027422488,1.458
-0.06450151727070019,1.459
-0.04361230303453921,1.46
-0.01638049135379006,1.461
0.013151653138524984,1.462
0.04109411626447308,1.463
0.06410522227590354,1.464
0.07976882328392278,1.465
0.08685518293870857,1.466
0.08523348172974124,1.467
0.07563208233654654,1.468
0.0595738552709446,1.469
0.03937112452193556,1.47
0.01781162089147025,1.471
-0.002453336191425852,1.472
-0.019381717202526412,1.473
-0.03164653410107441,1.474
-0.038629956469224125,1.475
-0.040505973941524026,1.476
-0.038231362401627215,1.477
-0.03331152305413015,1.478
-0.027478187563799574,1.479
-0.022392324495266732,1.48
-0.019309116012920416,1.481
-0.01869631838072284,1.482
-0.020017007094329235,1.483
-0.02184089843573187,1.484
-0.02226820588069827,1.485
-0.019662592901348218,1.486
-0.013525891211097776,1.487
-0.004978387846031604,1.488
0.0036034070056165796,1.489
0.009694731143624576,1.49
0.011923839523344507,1.491
0.010826261877199006,1.492
0.00851820522696435,1.493
0.007445375847218316,1.494
0.009059345444301408,1.495
0.013308606281221417,1.496
0.019095248037502434,1.497
0.025065231265776353,1.498
0.03011442723544526,1.499
0.033562579395050744,1.5
0.03520670482958916,1.501
0.035243277763844914,1.502
0.0339006807516317,1.503
0.03088742503769646,1.504
0.02504786823002319,1.505
0.01457076540884404,1.506
-0.0022072183373122,1.507
-0.02573779181549748,1.508
-0.05442908914791155,1.509
-0.08440896316026257,1.51
-0.11009745305850704,1.511
-0.1256087156781926,1.512
-0.12642742402487592,1.513
-0.1103587893854549,1.514
-0.07751319537999593,1.515
-0.030283427708572685,1.516
0.026059370230306203,1.517
0.08308015003970792,1.518
0.13055533781193185,1.519
0.15939535171468436,1.52
0.1644937198897247,1.521
0.14595874353989452,1.522
0.10852462456185887,1.523
0.060056935524165474,1.524
0.00995019935106059,1.525
-0.03248706616048307,1.526
-0.05986300127605471,1.527
-0.0686413520859695,1.528
-0.060274523374614634,1.529
-0.04050246334734176,1.53
-0.017122233661738706,1.531
0.0024795459383773993,1.532
0.013086576791601296,1.533
0.01236992098936289,1.534
0.0007512846402263598,1.535
-0.019139426701966795,1.536
-0.043172164719818516,1.537
-0.06643914213823365,1.538
-0.08385184037148803,1.539
-0.09079224519691557,1.54
-0.08413577513246151,1.541
-0.06340524381063149,1.542
-0.031247920933483844,1.543
0.00718519951255407,1.544
0.04557093022696227,1.545
0.077837684690358,1.546
0.09932182135096337,1.547
0.10753468101490855,1.548
0.10247442573160685,1.549
0.08643453698874287,1.55
0.06335108935536769,1.551
0.037794698963476994,1.552
0.013788519365545327,1.553
-0.006124180403749496,1.554
-0.021145236156872957,1.555
-0.03185471569006311,1.556
-0.03954415950059384,1.557
-0.04558465062320072,1.558
-0.05103630249929437,1.559
-0.05645695430273862,1.56
-0.06172984180203419,1.561
-0.06584677521355943,1.562
-0.06689662820766314,1.563
-0.06261759476573095,1.564
-0.051363655515868634,1.565
-0.0328488801416679,1.566
-0.008377343844667009,1.567
0.01922792973160465,1.568
0.04592664243734963,1.569
0.06719125944144966,1.57
0.07917559829285606,1.571
0.0798996180958021,1.572
0.06994462699008996,1.573
0.05250635769743462,1.574
0.03265716895541115,1.575
0.015616267293626125,1.576
0.004785754536886784,1.577
0.0008870751203840191,1.578
0.002348286507953279,1.579
0.006133716442448659,1.58
0.008666050313634443,1.581
0.006887814886114323,1.582
-0.0007325195692030511,1.583
-0.013626546437608569,1.584
-0.029241458753995333,1.585
-0.04381661668209625,1.586
-0.05351067263268604,1.587
-0.05553864288730562,1.588
-0.049042494638141816,1.589
-0.03536285771522759,1.59
-0.017547208908816163,1.591
0.000657764939185373,1.592
0.01586489760604512,1.593
0.025839526243196364,1.594
0.029910464826627507,1.595
0.028842005840830253,1.596
0.024089586491335413,1.597
0.016796070739609682,1.598
0.007260183014217337,1.599
-0.004653949089673973,1.6
-0.018525136692777906,1.601
-0.03259249334773182,1.602
-0.04369570683219028,1.603
-0.04805634695403338,1.604
-0.042767650595314344,1.605
-0.02743560769364377,1.606
-0.0048483245124526664,1.607
0.0200162140342517,1.608
0.04197741733839769,1.609
0.05743050959032918,1.61
0.06505972029837825,1.611
0.06529460829560065,1.612
0.05939807890328059,1.613
0.04916777864700531,1.614
0.036910904219451084,1.615
0.02495457089615027,1.616
0.014894728819761767,1.617
0.007158111793467299,1.618
0.0010417404040170295,1.619
-0.004932604334815082,1.62
-0.01253771638330257,1.621
-0.023253444093103714,1.622
-0.03763517896634987,1.623
-0.05493930749786529,1.624
-0.07314658321917639,1.625
-0.08921657611880456,1.626
-0.09947296700963873,1.627
-0.10011276643127175,1.628
-0.0879206755905265,1.629
-0.0614422594512806,1.63
-0.02241166661047309,1.631
0.02355196232497271,1.632
0.06784548518992108,1.633
0.10132001143327335,1.634
0.1171792585548483,1.635
0.11285798730742923,1.636
0.0903430301754902,1.637
0.055547358777465375,1.638
0.01711008505090159,1.639
-0.015588509506476868,1.64
-0.03505941171860266,1.641
-0.038068108287107764,1.642
-0.026472316540312336,1.643
-0.006064571429379257,1.644
0.01577819428448664,1.645
0.03248820752725163,1.646
0.03998247335976865,1.647
0.037284156880697326,1.648
0.02611314459564542,1.649
0.009743802424559585,1.65
-0.008266190131297198,1.651
-0.02488161526373066,1.652
-0.037913271880117026,1.653
-0.046145870008925206,1.654
-0.04931825323323272,1.655
-0.047977246585498214,1.656
-0.04333426379698726,1.657
-0.03708480212865655,1.658
-0.031078116212425455,1.659
-0.026836519315330196,1.66
-0.024973139380680267,1.661
-0.02477942716205076,1.662
-0.024439102387868623,1.663
-0.021855439056638382,1.664
-0.015525031252252342,1.665
-0.005074872977251276,1.666
0.008650591920574071,1.667
0.024135589338381617,1.668
0.040095694629740296,1.669
0.05577465630078502,1.67
0.07030830715167428,1.671
0.08213226688909923,1.672
0.0891591660494032,1.673
0.08934890520679852,1.674
0.08132197044455051,1.675
0.06498340176114309,1.676
0.04184820205135932,1.677
0.014675775152323505,1.678
-0.013566947412503538,1.679
-0.04076522644790884,1.68
-0.06591264796169616,1.681
-0.08847907956698993,1.682
-0.10753423433489254,1.683
-0.12116935594514698,1.684
-0.12643757460483185,1.685
-0.119876350585153,1.686
-0.09858109060012075,1.687
-0.06181917493526863,1.688
-0.012760345398339892,1.689
0.04091792445144377,1.69
0.08857489983145599,1.691
0.11989587662038144,1.692
0.12848816806687263,1.693
0.11430318016030608,1.694
0.08379902152837583,1.695
0.04755025151428874,1.696
0.01626053391452668,1.697
-0.0029187402791167804,1.698
-0.008146421027637383,1.699
-0.0024129967848486727,1.7
0.00840525802392665,1.701
0.01801547508464703,1.702
0.021893075618118655,1.703
0.01844820820674829,1.704
0.008840625885517551,1.705
-0.004260854500399159,1.706
-0.01815918046578045,1.707
-0.031008947910279677,1.708
-0.04192712942693331,1.709
-0.050731325069926614,1.71
-0.057687617530060374,1.711
-0.06352645721141502,1.712
-0.0695760996045083,1.713
-0.0772186750376686,1.714
-0.08641440478201373,1.715
-0.09452196755631002,1.716
-0.09669044220485032,1.717
-0.0876440760725439,1.718
-0.06375944508089926,1.719
-0.024497429784681182,1.72
0.02704732668159765,1.721
0.08430046879295276,1.722
0.13827135806103616,1.723
0.1796485074242408,1.724
0.20110845515330356,1.725
0.19891939457191687,1.726
0.17363539663603778,1.727
0.1299585297629999,1.728
0.07573958513118632,1.729
0.02009610195498147,1.73
-0.028953568943609866,1.731
-0.06631301239001493,1.732
-0.09020133203409321,1.733
-0.1013275875053529,1.734
-0.10177728333532632,1.735
-0.09423487631819558,1.736
-0.08156435051486247,1.737
-0.06657465302885833,1.738
-0.05189941309840006,1.739
-0.039786242407490326,1.74
-0.031528935115099244,1.741
-0.02682349079951791,1.742
-0.023731998827340298,1.743
-0.019452229187486292,1.744
-0.011483431726020503,1.745
0.001283548973071995,1.746
0.017947023190447126,1.747
0.03571671259981251,1.748
0.0507742978391765,1.749
0.059571584915459955,1.75
0.060008360545619435,1.751
0.052002386661313696,1.752
0.03731723929958942,1.753
0.01882111760149243,1.754
-0.00039804020708404577,1.755
-0.01763622654768844,1.756
-0.030830442792735113,1.757
-0.03868250846358706,1.758
-0.04075776430400907,1.759
-0.03743944392110756,1.76
-0.02964634311044004,1.761
-0.01844881964187348,1.762
-0.00486948651845263,1.763
0.009964998942950571,1.764
0.024524297072122073,1.765
0.03679108627667107,1.766
0.044529560490168,1.767
0.04588254450144043,1.768
0.040136753226015696,1.769
0.028185827809714296,1.77
0.012311984104144141,1.771
-0.004566358155285148,1.772
-0.019706536165533774,1.773
-0.030986586153055308,1.774
-0.03690669491604576,1.775
-0.03645475325548765,1.776
-0.029216662277904076,1.777
-0.01587096045504805,1.778
0.0012799438295709163,1.779
0.018416581809502078,1.78
0.031190079025809996,1.781
0.03610805702802797,1.782
0.03163776943526123,1.783
0.018586182740994262,1.784
-0.00028619834369755293,1.785
-0.02112816460342257,1.786
-0.03998783035719761,1.787
-0.05361465817232667,1.788
-0.05982482203414941,1.789
-0.057446379625143935,1.79
-0.04619016881566082,1.791
-0.026811616699025136,1.792
-0.0015005817685666122,1.793
0.026012037699684704,1.794
0.05106636346266878,1.795
0.06928086992777192,1.796
0.07777996712856602,1.797
0.07585706609372055,1.798
0.06477552880453938,1.799
0.04693863692494835,1.8
0.025059302530260816,1.801
0.0017179302198904115,1.802
-0.020695452061765082,1.803
-0.039751868031631644,1.804
-0.05282699601551939,1.805
-0.05759073642073507,1.806
-0.053114729629678836,1.807
-0.04073642817373532,1.808
-0.0239610805292303,1.809
-0.007535181375208266,1.81
0.0038398145495183713,1.811
0.006859531679581441,1.812
0.0007113290573840041,1.813
-0.012469631548628934,1.814
-0.028051181760459114,1.815
-0.04030581470609179,1.816
-0.04432021708796333,1.817
-0.03756985660736566,1.818
-0.02050824150005561,1.819
0.0038903986858553757,1.82
0.031183673622900865,1.821
0.056533501085295826,1.822
0.07560140896125177,1.823
0.08538006087846002,1.824
0.08473967304798173,1.825
0.07434625325084093,1.826
0.05619576737817579,1.827
0.03319322458061469,1.828
0.00878108549615885,1.829
-0.01358122525295785,1.83
-0.03110203684691124,1.831
-0.042207679504873065,1.832
-0.046661546788295816,1.833
-0.04537635856231519,1.834
-0.04015573169520996,1.835
-0.03325319684080664,1.836
-0.026604867598308712,1.837
-0.02105871545899967,1.838
-0.016209526406322436,1.839
-0.011081464117009818,1.84
-0.005183603231150977,1.841
0.000853528674145246,1.842
0.00547265264658518,1.843
0.007052994657296635,1.844
0.00490468294786924,1.845
-0.0001931855624554299,1.846
-0.006119112546524863,1.847
-0.010073491410083376,1.848
-0.00965857257039669,1.849
-0.00401525924187753,1.85
0.005686495155065637,1.851
0.016701915688899716,1.852
0.025741550655641845,1.853
0.030087053434693912,1.854
0.028391686684746165,1.855
0.02088858015399375,1.856
0.009047878116714021,1.857
-0.004973227189580412,1.858
-0.018742317021890453,1.859
-0.029737286218103173,1.86
-0.035505482774030914,1.861
-0.03410662236898432,1.862
-0.02486840234155612,1.863
-0.00901996713560283,1.864
0.01030656716089023,1.865
0.028782376106328923,1.866
0.041979568339407865,1.867
0.046532466030935214,1.868
0.041083036622339836,1.869
0.02669245637894108,1.87
0.006534938419390582,1.871
-0.014972947346006762,1.872
-0.03327086756796047,1.873
-0.04471857465232868,1.874
-0.047385577020859465,1.875
-0.04131165614904585,1.876
-0.028172955271106675,1.877
-0.010575576706380645,1.878
0.00865207180874475,1.879
0.026861431579652307,1.88
0.041651746491940145,1.881
0.05089276745465041,1.882
0.05300147902167724,1.883
0.04737718728652184,1.884
0.03460776962671517,1.885
0.016312285849848146,1.886
-0.0051273202652425175,1.887
-0.02671335809861333,1.888
-0.04499125423895503,1.889
-0.05653169733351087,1.89
-0.05874991827741529,1.891
-0.050757407842880665,1.892
-0.03391460130697588,1.893
-0.011796549777860809,1.894
0.01056820585428565,1.895
0.028022373579847534,1.896
0.03678630525338091,1.897
0.03560392746859653,1.898
0.025968759725991743,1.899
0.011326779835466786,1.9
-0.004226695957763664,1.901
-0.017045307318553388,1.902
-0.024437150352848595,1.903
-0.024801295846191188,1.904
-0.017904965650516146,1.905
-0.0052767523101861944,1.906
0.009861838157920532,1.907
0.023430209955162956,1.908
0.03182274150749925,1.909
0.033142544680657644,1.91
0.027696481759539586,1.911
0.017552790768554753,1.912
0.005540227792266706,1.913
-0.005749901846752286,1.914
-0.014525587295579784,1.915
-0.0198210305390793,1.916
-0.02131844178431115,1.917
-0.0192791083266959,1.918
-0.014498623055504227,1.919
-0.008132749888989394,1.92
-0.0014628260336206956,1.921
0.004309144938431456,1.922
0.008252215822479807,1.923
0.00987707706025557,1.924
0.009175077251152707,1.925
0.006468275647477184,1.926
0.0022103241430639882,1.927
-0.0031062463170192112,1.928
-0.008907604597069529,1.929
-0.014363911023124003,1.93
-0.018212621586581056,1.931
-0.01889759736154359,1.932
-0.015167587868160196,1.933
-0.0068174982005018035,1.934
0.004932763298563873,1.935
0.017627212913488358,1.936
0.028196723523448868,1.937
0.03381955039806779,1.938
0.03276292624286143,1.939
0.024846302092510097,1.94
0.011359232753436097,1.941
-0.0053266025993809665,1.942
-0.022133018939625854,1.943
-0.03567920467823187,1.944
-0.04296491674451603,1.945
-0.042265288875510613,1.946
-0.03374386512102295,1.947
-0.019393555187565602,1.948
-0.0023740585492537745,1.949
0.01394510525564628,1.95
0.02685760416969981,1.951
0.03478953077160655,1.952
0.03736005722234244,1.953
0.035195778817571834,1.954
0.029555938963720937,1.955
0.021882699614177503,1.956
0.01348916269209582,1.957
0.005429618907977414,1.958
-0.0015565652059755981,1.959
-0.007076543280966953,1.96
-0.011057559214494028,1.961
-0.01364590745665889,1.962
-0.01509300677552932,1.963
-0.015702274555734103,1.964
-0.015813477392551373,1.965
-0.01576050476831192,1.966
-0.015804937881475408,1.967
-0.01607262214562431,1.968
-0.016492344028816847,1.969
-0.016743356348791615,1.97
-0.016254119535631054,1.971
-0.014320826841950561,1.972
-0.010380927515813576,1.973
-0.004318595668774811,1.974
0.003433607310382767,1.975
0.012042545288274777,1.976
0.02047348258456015,1.977
0.027615172609108684,1.978
0.03240589885769188,1.979
0.034054312610110805,1.98
0.03228698874503963,1.981
0.02741700444834605,1.982
0.0201639018675046,1.983
0.01140815867563087,1.984
0.0020336944803689494,1.985
-0.007166556935879083,1.986
-0.015555151128423749,1.987
-0.022659218978132806,1.988
-0.028086514030932812,1.989
-0.03137998037370329,1.99
-0.032022870705649346,1.991
-0.029747597940683327,1.992
-0.024871666398421,1.993
-0.01825686034114752,1.994
-0.010929966724396153,1.995
-0.003695211411538035,1.996
0.0030514344765557337,1.997
0.00922663814714604,1.998
0.014772658096418671,1.999
0.019461505572709214,2.0
0.0229189518044533,2.001
0.02472423432509629,2.002
0.024507774417098203,2.003
0.02210440717767966,2.004
0.01771491761441773,2.005
0.011937809318006979,2.006
0.005620672398674543,2.007
-0.0003868832145715336,2.008
-0.005447271718952017,2.009
-0.009253044714598318,2.01
-0.011841767426826617,2.011
-0.013466206196810137,2.012
-0.014345597681324504,2.013
-0.014483258229016227,2.014
-0.013690308760573592,2.015
-0.011766451712868982,2.016
-0.008716319911434274,2.017
-0.004879780755904174,2.018
-0.0008762305756498372,2.019
0.002633211511836857,2.02
0.005226620850721074,2.021
0.006841642030624227,2.022
0.0076553443054683725,2.023
0.007876667262973286,2.024
0.007639136324486545,2.025
0.0070123424653483896,2.026
0.006038614473386901,2.027
0.004753614342627219,2.028
0.0032369958765993676,2.029
0.0016800520727692687,2.03
0.0003708190127453424,2.031
-0.00042402235662237727,2.032
-0.0005867024617805894,2.033
-0.00020008750778293218,2.034
0.0004884749979774918,2.035
0.001163424081832722,2.036
0.0015508078694290626,2.037
0.0014778988201946594,2.038
0.0008554433018045779,2.039
-0.00037861352755161326,2.04
-0.0022896201391399925,2.041
-0.004912605504392266,2.042
-0.008181334029662672,2.043
-0.011872324450543884,2.044
-0.015565795096740036,2.045
-0.018617645258475125,2.046
-0.02019479783915916,2.047
-0.01942384928148963,2.048
-0.015668454092887696,2.049
-0.008908740222143614,2.05
-2.4460015644541326e-05,2.051
0.009288617959923013,2.052
0.0169945284732271,2.053
0.02138234495188372,2.054
0.021683413914582374,2.055
0.0184122170783582,2.056
0.013204585830660956,2.057
0.00810358761730256,2.058
0.004720559798037819,2.059
0.0038216655949004385,2.06
0.005329041648527306,2.061
0.008434192662185357,2.062
0.011777845746476215,2.063
0.013757548873539157,2.064
0.01293617932678635,2.065
0.008477602407497169,2.066
0.0004773224374688121,2.067
-0.009929656043030179,2.068
-0.020666114871229293,2.069
-0.02901200536554556,2.07
-0.03228979231441294,2.071
-0.02893673899439838,2.072
-0.019381111088311326,2.073
-0.006055294547127167,2.074
0.007505194597772567,2.075
0.017993557303845085,2.076
0.023452222567643746,2.077
0.023691322569571502,2.078
0.019934576985666207,2.079
0.013989509261942777,2.08
0.007417819549133209,2.081
0.0011673545650647808,2.082
-0.004267913810327957,2.083
-0.008550738069612745,2.084
-0.01140098690133071,2.085
-0.01266681614787753,2.086
-0.01239717491250054,2.087
-0.010863372570591343,2.088
-0.008563059908000182,2.089
-0.006138445036573561,2.09
-0.004127977390649072,2.091
-0.0027088614111614767,2.092
-0.0016750602485769025,2.093
-0.0006548197825070807,2.094
0.0006167299775552671,2.095
0.002121790650143095,2.096
0.0035502656850601977,2.097
0.004467197358775874,2.098
0.0045874151638722925,2.099
0.003997831999816416,2.1
0.003155509424183328,2.101
0.0026110149884805665,2.102
0.0026490525918233068,2.103
0.003140772615243967,2.104
0.003671305178619444,2.105
0.0037881731907864038,2.106
0.003235538037645224,2.107
0.0020821970944798164,2.108
0.000663695248313573,2.109
-0.000637215055969521,2.11
-0.0015975236055211076,2.111
-0.0021864183552361364,2.112
-0.0024722952004658815,2.113
-0.0025556530796825663,2.114
-0.002535775360760425,2.115
-0.0024485960698658812,2.116
-0.0022231518398434617,2.117
-0.001723807320582089,2.118
-0.0008520443908572692,2.119
0.000362811705620386,2.12
0.0017442304583194905,2.121
0.0030340774962444757,2.122
0.003986131797647757,2.123
0.004423197118503592,2.124
0.0042639009219828045,2.125
0.0035425509813218196,2.126
0.0023988443871890545,2.127
0.0010367142838564466,2.128
-0.0003110645697853916,2.129
-0.0014227552716640772,2.13
-0.002156618695410545,2.131
-0.002515348929938878,2.132
-0.0026470354059910032,2.133
-0.0027576164700446213,2.134
-0.0029936156708017876,2.135
-0.0033876254385167832,2.136
-0.0038674896123585926,2.137
-0.004284548701288168,2.138
-0.004458901456545269,2.139
-0.004229903332043006,2.14
-0.0034984762510767405,2.141
-0.0022686208563414906,2.142
-0.0006478159096085183,2.143
0.001213626835756947,2.144
0.0031480608065780416,2.145
0.0048983636185575535,2.146
0.006077833606732471,2.147
0.0063160592207887585,2.148
0.005493861553018687,2.149
0.0038385880424340324,2.15
0.0018239643445615722,2.151
-3.144912982284851e-05,2.152
-0.0013589133737480932,2.153
-0.002034058602233486,2.154
-0.0021385611530434718,2.155
-0.0018411638139359738,2.156
-0.0013021681203232234,2.157
-0.0006566123776471355,2.158
-2.6694997314462465e-05,2.159
0.0004774243753237022,2.16
0.000749936720473643,2.161
0.0006802589874580379,2.162
0.00017837316652703314,2.163
-0.000752811529729059,2.164
-0.0019404855558864482,2.165
-0.0030452419233350098,2.166
-0.003676982557463229,2.167
-0.0035449779143434225,2.168
-0.002559808433420755,2.169
-0.0008712752237962709,2.17
0.001181159054966287,2.171
0.0031826704573051203,2.172
0.00472126472350978,2.173
0.005458438514029769,2.174
0.005271848608837913,2.175
0.00432887960325261,2.176
0.0029698987235845468,2.177
0.0015314495238131433,2.178
0.00022985338218891834,2.179
-0.000888423083434837,2.18
-0.0019048165388801906,2.181
-0.0028833733072523397,2.182
-0.003733112412863337,2.183
-0.0042363648628903775,2.184
-0.004213102501530486,2.185
-0.0036266919511469334,2.186
-0.002561030930459625,2.187
-0.0011584523926938513,2.188
0.0004273425881325898,2.189
0.002051301795487099,2.19
0.0035404820611237234,2.191
0.00465640393045957,2.192
0.005162553052955421,2.193
0.004947594767465121,2.194
0.004055938633476592,2.195
0.0026124030516876864,2.196
0.0007454700545954935,2.197
-0.0014321020577207494,2.198
-0.00380393044696257,2.199
-0.006230210760139556,2.2
-0.008522135369471948,2.201
-0.010387377318826673,2.202
-0.01141582436010441,2.203
-0.011199898343544495,2.204
-0.009525285171646337,2.205
-0.0064821139524956165,2.206
-0.0024365657234575234,2.207
0.0021207173072058725,2.208
0.00676274644828116,2.209
0.011171797270593486,2.21
0.014961476841927468,2.211
0.01749983225195877,2.212
0.018037241839255064,2.213
0.01609325006123296,2.214
0.011761322030971329,2.215
0.005714152063863304,2.216
-0.0010146655562306424,2.217
-0.007292909680226402,2.218
-0.012109755207639756,2.219
-0.01474792364112714,2.22
-0.014913297808880083,2.221
-0.012804649880521785,2.222
-0.009068825115728735,2.223
-0.00461314658091263,2.224
-0.00035024288103880665,2.225
0.0030302024445997824,2.226
0.005219162299629565,2.227
0.006275326195408939,2.228
0.006416894555206579,2.229
0.005835442932583497,2.23
0.004683878521337332,2.231
0.003146496573098873,2.232
0.0014669110484630363,2.233
-9.880657880580204e-05,2.234
-0.0013470547000807643,2.235
-0.002140718010133402,2.236
-0.0023878584068283307,2.237
-0.002056064159949082,2.238
-0.0012515692775189617,2.239
-0.00028204363357747835,2.24
0.0004223928582153942,2.241
0.0005249300723475133,2.242
-3.2357726506427977e-05,2.243
-0.0010280664916536226,2.244
-0.0021210141072967766,2.245
-0.0030016147041731413,2.246
-0.003440976102878603,2.247
-0.0033060300584124877,2.248
-0.0026012660760817187,2.249
-0.001488907792542409,2.25
-0.0002325265660698018,2.251
0.000916591559659216,2.252
0.0018147782386362507,2.253
0.0024397519147043413,2.254
0.0028259161700944797,2.255
0.0029864055519602264,2.256
0.002894477534332448,2.257
0.0025264187931800146,2.258
0.001906542701340448,2.259
0.0011186968673377107,2.26
0.00028303934431585487,2.261
-0.0004745068166124569,2.262
-0.0010081848805098906,2.263
-0.0011502017295945042,2.264
-0.0008454826673538311,2.265
-0.00031315545315279,2.266
2.7036008943044273e-05,2.267
-0.0001574313887661801,2.268
-0.0008987698733391417,2.269
-0.0019447206106726603,2.27
-0.0029120886255392764,2.271
-0.0034468991081942945,2.272
-0.00333757797134879,2.273
-0.002579795878168242,2.274
-0.001407877495045289,2.275
-0.00024187643320262617,2.276
0.0005726725877980038,2.277
0.0011039130409053256,2.278
0.001822741614486426,2.279
0.0031722451384394485,2.28
0.005160084884065344,2.281
0.007289271013320839,2.282
0.008801440108008426,2.283
0.009046286069803771,2.284
0.007745619445961812,2.285
0.005011885272007759,2.286
0.0011667533447626557,2.287
-0.0034169792242186043,2.288
-0.00827733814979683,2.289
-0.012728271503017256,2.29
-0.015873926541254243,2.291
-0.016895130450447497,2.292
-0.015448508192332129,2.293
-0.011867770569143874,2.294
-0.007013153098488791,2.295
-0.0018673801988285603,2.296
0.002868475045087938,2.297
0.006934170625512371,2.298
0.010381521895810266,2.299
0.013316334907622846,2.3
0.01567896146791325,2.301
0.0171305564690982,2.302
0.017090165015486963,2.303
0.015011008512989293,2.304
0.01080159376397564,2.305
0.0050408088495194365,2.306
-0.00118391288956535,2.307
-0.006636777974039964,2.308
-0.010290990302932823,2.309
-0.01161069487525033,2.31
-0.010713039101534516,2.311
-0.008344241831955937,2.312
-0.005632002989683865,2.313
-0.003669103923998329,2.314
-0.003092616424865963,2.315
-0.0038792843485414854,2.316
-0.005468906014616803,2.317
-0.00708282571362404,2.318
-0.00801224535396835,2.319
-0.007774078742580836,2.32
-0.006141497126778389,2.321
-0.003131373032651858,2.322
0.0009645993752334617,2.323
0.0055422127903781305,2.324
0.009738497216009416,2.325
0.012615185362920313,2.326
0.013411029416078163,2.327
0.011751387019043888,2.328
0.007795658617212037,2.329
0.002334461969094193,2.33
-0.0033198174707143057,2.331
-0.007769751703398972,2.332
-0.010061258846152917,2.333
-0.009938418993434502,2.334
-0.007705399157600807,2.335
-0.0038977041550145243,2.336
0.0008851555783700373,2.337
0.005877237627352924,2.338
0.010052014476985869,2.339
0.012357530990415526,2.34
0.01219362693007908,2.341
0.009661630695966998,2.342
0.005402235275800745,2.343
0.0003178498370039044,2.344
-0.0046042735600991085,2.345
-0.008426280407411413,2.346
-0.010440648525264853,2.347
-0.01036898929178552,2.348
-0.008443471566889316,2.349
-0.005280553131724585,2.35
-0.001634472429365252,2.351
0.0017907204575462825,2.352
0.004403301825194278,2.353
0.005751085690133505,2.354
0.005602263860632183,2.355
0.0040292337699102225,2.356
0.0013871965475274603,2.357
-0.0018053022555070317,2.358
-0.0049690870813190865,2.359
-0.007497044951336864,2.36
-0.008797556100855542,2.361
-0.008441549693358424,2.362
-0.006343048280303534,2.363
-0.002793030213828105,2.364
0.0016769345019922264,2.365
0.006424638454026641,2.366
0.01069376340430442,2.367
0.013584893291499246,2.368
0.01424040050477603,2.369
0.012257382533619984,2.37
0.007952502785906508,2.371
0.0021874896231499877,2.372
-0.0040056811472771806,2.373
-0.009648288753654628,2.374
-0.01387650827227333,2.375
-0.01598472205272455,2.376
-0.015535956674073911,2.377
-0.012512555809168383,2.378
-0.007394865454207426,2.379
-0.0011192074350794496,2.38
0.0050564454670646184,2.381
0.009816119840670904,2.382
0.012218111675118779,2.383
0.012093047514759845,2.384
0.010096259095330509,2.385
0.007361232511457013,2.386
0.004949018546320967,2.387
0.0033644724217649384,2.388
0.002417819742769991,2.389
0.0015290813584147055,2.39
0.00019957174120296844,2.391
-0.0017381056792892808,2.392
-0.004115859957235971,2.393
-0.006478899774407406,2.394
-0.008200750519701611,2.395
-0.008695453300248712,2.396
-0.007594744004072588,2.397
-0.004851070130183755,2.398
-0.0008335988300113778,2.399
0.003616455546759118,2.4
0.007315250112639683,2.401
0.009120498525231389,2.402
0.00841391290583215,2.403
0.005389519985322599,2.404
0.0009499837279413175,2.405
-0.003706378508297032,2.406
-0.007511477417142381,2.407
-0.009769243238911523,2.408
-0.010216143534539047,2.409
-0.008966516782711384,2.41
-0.006434786698030528,2.411
-0.0032874938260435134,2.412
-0.00032968824328770586,2.413
0.001734202561011104,2.414
0.002506501818335522,2.415
0.001970273441681372,2.416
0.0005254872219857824,2.417
-0.0010513235226920555,2.418
-0.0018706020523505844,2.419
-0.0013146985226879196,2.42
0.000724709833385452,2.421
0.0038697990084860527,2.422
0.007428600033507688,2.423
0.010560275340931747,2.424
0.012457124261794484,2.425
0.012624497841154244,2.426
0.011097720803571838,2.427
0.008360619364108791,2.428
0.00503944361049851,2.429
0.0016548353942148844,2.43
-0.001445343950771332,2.431
-0.0040547008119730865,2.432
-0.006074157003202579,2.433
-0.007482499516576763,2.434
-0.008291658870370056,2.435
-0.008522212744853755,2.436
-0.008221334963771117,2.437
-0.007470972313849393,2.438
-0.00635271444094602,2.439
-0.004914428266062895,2.44
-0.0031851536574750666,2.441
-0.0012223975304403222,2.442
0.0008430355464992219,2.443
0.002786052599234192,2.444
0.004315339350038072,2.445
0.005153272343097649,2.446
0.005123309083344652,2.447
0.004196770352844704,2.448
0.002490748911747758,2.449
0.00024392932690735502,2.45
-0.00221396189323374,2.451
-0.004507389405015962,2.452
-0.006266265910904328,2.453
-0.007170681232919472,2.454
-0.007002506793076225,2.455
-0.005716528595518495,2.456
-0.003486855327506255,2.457
-0.0006248157508808982,2.458
0.0026075071528374656,2.459
0.006045206903654894,2.46
0.009397640237350288,2.461
0.012019433294799643,2.462
0.013076055922365055,2.463
0.012064362802821737,2.464
0.009148533207368682,2.465
0.004999710003624088,2.466
0.00041883483169073287,2.467
-0.003912867821533422,2.468
-0.007515253677968624,2.469
-0.010110431751333176,2.47
-0.011587162889006046,2.471
-0.011932489543102817,2.472
-0.01116179142162471,2.473
-0.009326421306543257,2.474
-0.006629012117606176,2.475
-0.003514099085815379,2.476
-0.0005445642954088486,2.477
0.001897491368745255,2.478
0.0038015073015608817,2.479
0.005430815878435637,2.48
0.007051284785102989,2.481
0.008700047634465436,2.482
0.010119016071134208,2.483
0.010878421185029359,2.484
0.010607325807164877,2.485
0.009196141376764291,2.486
0.006880154077369428,2.487
0.004155688804291971,2.488
0.00156711151807501,2.489
-0.0004954789108872592,2.49
-0.0018956070683337734,2.491
-0.0027661569999820872,2.492
-0.0034670886071655744,2.493
-0.004455402429201219,2.494
-0.006064377727558876,2.495
-0.00830410599284228,2.496
-0.010821700980451064,2.497
-0.013044550648383644,2.498
-0.014408066564534736,2.499
-0.014513576318179507,2.5
-0.013146989257594515,2.501
-0.01025145567842791,2.502
-0.005932830264795315,2.503
-0.0004732038931477881,2.504
0.005648936199276377,2.505
0.011713894264527513,2.506
0.01674871957077226,2.507
0.019671403598211335,2.508
0.019665090333108547,2.509
0.01661745821204732,2.51
0.011251572465154186,2.511
0.004812790536462082,2.512
-0.0013796869693874095,2.513
-0.006230129101286377,2.514
-0.009033940238711595,2.515
-0.009586986121372019,2.516
-0.00820717297510866,2.517
-0.0056155551707951085,2.518
-0.0026912393575609143,2.519
-0.00020531456154796997,2.52
0.0013569151884168685,2.521
0.0018420117849196156,2.522
0.0013705792717584094,2.523
0.0002431926268682675,2.524
-0.0011476536284475579,2.525
-0.0024026381952310144,2.526
-0.003201803241333221,2.527
-0.003367523413809273,2.528
-0.002877376863575697,2.529
-0.0018300945049650312,2.53
-0.00039517860120120307,2.531
0.0012236583810889426,2.532
0.002806756883082449,2.533
0.004134945254878492,2.534
0.005018556035467106,2.535
0.005340100285272054,2.536
0.005092260215105541,2.537
0.004376540257594558,2.538
0.003353547505130503,2.539
0.0021815498121210077,2.54
0.000978185460759867,2.541
-0.00018955190909153227,2.542
-0.0012938158111514201,2.543
-0.0023241770657513676,2.544
-0.003267886734027748,2.545
-0.004094884791543418,2.546
-0.004750836026103627,2.547
-0.005164290239477427,2.548
-0.0052570955119516875,2.549
-0.004949792444458342,2.55
-0.004186591251484552,2.551
-0.0029907453304054716,2.552
-0.0015070215759602514,2.553
8.89069525014377e-06,2.554
0.0012498860716569883,2.555
0.0019395336393233683,2.556
0.001905384419978818,2.557
0.0011274990955807097,2.558
-0.0002375884459058112,2.559
-0.0018662182819811433,2.56
-0.0033184880935345656,2.561
-0.004118972231761171,2.562
-0.0038507703066337877,2.563
-0.0022599593706625165,2.564
0.0006341949146657245,2.565
0.004441970898846107,2.566
0.008355548332704119,2.567
0.011265769221489651,2.568
0.012170262523429799,2.569
0.010695575023010875,2.57
0.0072863772360811496,2.571
0.002924541983861801,2.572
-0.0013126102348508715,2.573
-0.004579043987563349,2.574
-0.006419921769425328,2.575
-0.006788764482892507,2.576
-0.005966896711499733,2.577
-0.004428040030766541,2.578
-0.0026658856359796797,2.579
-0.0010389021600138429,2.58
0.0002813059179434692,2.581
0.0012537434606143757,2.582
0.0018868821456418216,2.583
0.0021935932259674507,2.584
0.0021775259768909987,2.585
0.0018201387914945312,2.586
0.001061881122305988,2.587
-0.00018784362696618568,2.588
-0.001980536807860015,2.589
-0.004223676861317179,2.59
-0.006607013339422735,2.591
-0.008614694095462217,2.592
-0.009628859974689161,2.593
-0.009080922289465866,2.594
-0.006616653241293933,2.595
-0.002268858998249968,2.596
0.003415646147661374,2.597
0.009400651151850074,2.598
0.014401777492545394,2.599
0.0172949871367038,2.6
0.017493736995326446,2.601
0.015065490796507468,2.602
0.010583183827999913,2.603
0.0048991284197657785,2.604
-0.0010578996032148344,2.605
-0.006456595533402017,2.606
-0.010676975175177416,2.607
-0.013348264159027597,2.608
-0.014331227663465954,2.609
-0.01367777107634483,2.61
-0.011606191642010131,2.611
-0.008500845528988001,2.612
-0.00490288567946914,2.613
-0.001447968004943095,2.614
0.0012862944589519707,2.615
0.0030000269122772713,2.616
0.003804165538826327,2.617
0.004113175432436712,2.618
0.0043578457212220985,2.619
0.004733804780451388,2.62
0.005130164411093932,2.621
0.005247748666506645,2.622
0.004825595108036381,2.623
0.0038173703105655087,2.624
0.002401645962714302,2.625
0.0008731231288377895,2.626
-0.000478692463818433,2.627
-0.0014530203720644278,2.628
-0.001963482558379048,2.629
-0.002020269214935326,2.63
-0.0017185579161375867,2.631
-0.001231027274761467,2.632
-0.0007588070207410279,2.633
-0.00045249422062807674,2.634
-0.00036433981425654504,2.635
-0.0004602806808234362,2.636
-0.0006612808666691945,2.637
-0.0008707709701546222,2.638
-0.000983011393835298,2.639
-0.0008980290726948489,2.64
-0.0005584173365692993,2.641
1.0840104727737609e-05,2.642
0.0006872595631955934,2.643
0.0012776331729266897,2.644
0.0015946067623651206,2.645
0.0015446986244793983,2.646
0.001166412236346033,2.647
0.0006032242341897558,2.648
3.549083724767266e-05,2.649
-0.00038936256800557354,2.65
-0.0006037927661938159,2.651
-0.0006395313152956542,2.652
-0.0006012928819593365,2.653
-0.0005946623482823073,2.654
-0.0006559996825800842,2.655
-0.0007418245631023553,2.656
-0.0007863888958622468,2.657
-0.0007674908194738316,2.658
-0.0007215720854609419,2.659
-0.000709206840697034,2.66
-0.0007726022991966098,2.661
-0.0009195249371699881,2.662
-0.001117122856097254,2.663
-0.0012711659963861616,2.664
-0.0012272106920931496,2.665
-0.0008292121175236457,2.666
-1.5195384762312017e-06,2.667
0.001199302836965042,2.668
0.002583945318671382,2.669
0.0038710916737062693,2.67
0.004759578760195685,2.671
0.005029907042964141,2.672
0.004625922619612428,2.673
0.003647859463725612,2.674
0.002275548178976842,2.675
0.0007018537158346593,2.676
