VaMe,time
-0.00026226309209515886,0.001
-0.001841552076762038,0.002
-0.0037551475155205125,0.003
-0.006326588608188029,0.004
-0.009720671265475229,0.005
-0.01370038655522266,0.006
-0.01752486644244536,0.007
-0.02017348270496136,0.008
-0.020815594580692185,0.009
-0.019220232480152432,0.01
-0.015811975837351076,0.011
-0.011364620695212943,0.012
-0.006613997402748371,0.013
-0.0020827635202811112,0.014
0.00181974223280373,0.015
0.0046534289983258485,0.016
0.006011984738033561,0.017
0.005733073510565224,0.018
0.004040188939355661,0.019
0.0015388870561437265,0.02
-0.0009235385879303736,0.021
-0.002503380025144592,0.022
-0.0026088201979479145,0.023
-0.0010424067863959723,0.024
0.0019750374809460315,0.025
0.005875343811667952,0.026
0.00989585412444902,0.027
0.013249078258004419,0.028
0.015258991025853975,0.029
0.01549343624653904,0.03
0.013860361424833498,0.031
0.01056210390186884,0.032
0.005950368913230733,0.033
0.0004762047628909089,0.034
-0.005209645638149579,0.035
-0.010194319795575519,0.036
-0.013448098341357212,0.037
-0.014129885595631275,0.038
-0.011925660403002218,0.039
-0.0073125849693089955,0.04
-0.0015848456965779282,0.041
0.0034962623794377273,0.042
0.006360450787721188,0.043
0.006280805297478928,0.044
0.0036050713825405267,0.045
-0.0005799210946640815,0.046
-0.005034992461326694,0.047
-0.008790464099907656,0.048
-0.011275587790280334,0.049
-0.012275200860458082,0.05
-0.01186984604450916,0.051
-0.01039606229605036,0.052
-0.008317336745810073,0.053
-0.005939355782277191,0.054
-0.0031635709182720475,0.055
0.0004185486305412925,0.056
0.005103352478172039,0.057
0.010681545583218053,0.058
0.016369547282365178,0.059
0.02106603307070017,0.06
0.023739056859574146,0.061
0.02375357174947877,0.062
0.021016597758397072,0.063
0.015911778065055317,0.064
0.009174981777287367,0.065
0.0018514100917745517,0.066
-0.004773728082674517,0.067
-0.009442481955946293,0.068
-0.01137761636112064,0.069
-0.01067531048688472,0.07
-0.008277683639437731,0.071
-0.005443949429776314,0.072
-0.0031283679074961906,0.073
-0.0017407915041655463,0.074
-0.0013189865411640412,0.075
-0.0017945863010830618,0.076
-0.003124324331645862,0.077
-0.005268862643353753,0.078
-0.008067005598369122,0.079
-0.011092023856925936,0.08
-0.013629714205926102,0.081
-0.014848880609310148,0.082
-0.014075210244300146,0.083
-0.011020922839946911,0.084
-0.005915267511088648,0.085
0.00044871107703787225,0.086
0.006764536198058999,0.087
0.011430854616828346,0.088
0.013037381637876265,0.089
0.011033643210632762,0.09
0.006137059821471337,0.091
8.885274268357449e-05,0.092
-0.005057627927814208,0.093
-0.00763654959408888,0.094
-0.006811998760398586,0.095
-0.0027270616421912457,0.096
0.0036182250028022624,0.097
0.010698008490967905,0.098
0.016927942101214764,0.099
0.02110405670987308,0.1
0.022580780854056386,0.101
0.021189259348135293,0.102
0.017189072332198015,0.103
0.011378698966209725,0.104
0.005053699914528104,0.105
-0.0004374967593524028,0.106
-0.004267898124272387,0.107
-0.006408664409786329,0.108
-0.007481536433881388,0.109
-0.008309603028587855,0.11
-0.009442445244422613,0.111
-0.010948879185919412,0.112
-0.012513289590430571,0.113
-0.013662677790688381,0.114
-0.013988172659493736,0.115
-0.013304683630394342,0.116
-0.011728739803529401,0.117
-0.00967188185919078,0.118
-0.007742184339057231,0.119
-0.006561964577774709,0.12
-0.006563007566908842,0.121
-0.00782283574718335,0.122
-0.009935158577322875,0.123
-0.01191207198227959,0.124
-0.012292411727478667,0.125
-0.009671893435768361,0.126
-0.003467785146591668,0.127
0.005607692908076909,0.128
0.015693663306835207,0.129
0.024492238134934532,0.13
0.03015495019266776,0.131
0.03181231162397301,0.132
0.02959297806313395,0.133
0.024411563541337156,0.134
0.017664909384781203,0.135
0.010783649282051,0.136
0.004807930544111947,0.137
0.00023294222267118122,0.138
-0.0028968499900899236,0.139
-0.0048012845337789805,0.14
-0.005811614497245536,0.141
-0.006325388700989858,0.142
-0.006790873196295318,0.143
-0.007570222894622422,0.144
-0.008736083131310975,0.145
-0.010040069342191996,0.146
-0.011125007339617191,0.147
-0.011751029909008073,0.148
-0.011800167481292432,0.149
-0.011134716718870041,0.15
-0.009594307029723184,0.151
-0.007224119050336798,0.152
-0.004480568915672054,0.153
-0.002117285692385077,0.154
-0.0007511729591522993,0.155
-0.0004245270339670929,0.156
-0.0005292203682510611,0.157
-0.0001834137405744461,0.158
0.0012031965907827267,0.159
0.0035722896445026806,0.16
0.006289378141288844,0.161
0.008526659153774803,0.162
0.00965673656880053,0.163
0.009445366434352261,0.164
0.008013304974982613,0.165
0.005705715400872538,0.166
0.003023998030591325,0.167
0.0006005245812063754,0.168
-0.0009157506147916283,0.169
-0.0011006764766511594,0.17
8.771464843830936e-07,0.171
0.001818341565150244,0.172
0.00348145828364539,0.173
0.0042236375862744965,0.174
0.003722266019621126,0.175
0.00217910986561258,0.176
0.00013168557291560735,0.177
-0.0018635991187913585,0.178
-0.003529940433022178,0.179
-0.004985547526607108,0.18
-0.006540183290335264,0.181
-0.008294530777647902,0.182
-0.009903412294324863,0.183
-0.0107843564722722,0.184
-0.010643548553872416,0.185
-0.009792223642568074,0.186
-0.0088643102797594,0.187
-0.00819379940474789,0.188
-0.007500317662265817,0.189
-0.006147726092826929,0.19
-0.0036154908628386775,0.191
0.0002826495041643072,0.192
0.005473809922685705,0.193
0.011674904337238811,0.194
0.01826354491551927,0.195
0.024174146281746946,0.196
0.0280388588573536,0.197
0.02860097027556463,0.198
0.025273930468806636,0.199
0.018562230808507343,0.2
0.01000068477207695,0.201
0.001592847164909714,0.202
-0.004852296695124596,0.203
-0.008190804413833753,0.204
-0.008233142088116584,0.205
-0.0058322578982800835,0.206
-0.002642011673842652,0.207
-0.0005003629381829704,0.208
-0.0006716048568997549,0.209
-0.003422043097054087,0.21
-0.008150531977951708,0.211
-0.013809897805910945,0.212
-0.01928953167712137,0.213
-0.023671308855272695,0.214
-0.026385661235102893,0.215
-0.0272385506919972,0.216
-0.026273703208993523,0.217
-0.023568300523488094,0.218
-0.019138917054718964,0.219
-0.013069676210176337,0.22
-0.005779691146990386,0.221
0.001901629432518251,0.222
0.009059566782561219,0.223
0.015109837704761963,0.224
0.019879735599823648,0.225
0.023401147895889263,0.226
0.0257057924648898,0.227
0.02675767090684446,0.228
0.026548292600806815,0.229
0.02526559253390077,0.23
0.023324253813849567,0.231
0.021173492242826754,0.232
0.019050366776883657,0.233
0.016885637827108408,0.234
0.014377522933834739,0.235
0.011087572471230565,0.236
0.006476643503209626,0.237
-1.4098253659343922e-05,0.238
-0.008704255219633403,0.239
-0.019302101299254967,0.24
-0.030675234645653495,0.241
-0.040963091528144334,0.242
-0.04799007397063691,0.243
-0.04982528188698777,0.244
-0.045373740809526796,0.245
-0.034832655714573994,0.246
-0.019779841519464412,0.247
-0.002795382072225977,0.248
0.013247190608444152,0.249
0.025943174245573856,0.25
0.03389645182801692,0.251
0.036871955246364475,0.252
0.035583491941430304,0.253
0.031283875515263806,0.254
0.025325244072868302,0.255
0.018848740517868428,0.256
0.012710609509629246,0.257
0.0075090997690411086,0.258
0.003510128774358331,0.259
0.0005495168959741546,0.26
-0.001895783727836158,0.261
-0.0044403299121925505,0.262
-0.007470632096585638,0.263
-0.011015539498172574,0.264
-0.014856766245863184,0.265
-0.018624136916996704,0.266
-0.021769818778770204,0.267
-0.02361988328001864,0.268
-0.02361989542457385,0.269
-0.021623721473715506,0.27
-0.017897009796381553,0.271
-0.012752238107855182,0.272
-0.0063507243654019295,0.273
0.0009533156396073213,0.274
0.008259893252020277,0.275
0.014329029750331294,0.276
0.01815686483702351,0.277
0.019450807737025396,0.278
0.01871688506906233,0.279
0.016923953828411116,0.28
0.014988604066690963,0.281
0.013398085531614213,0.282
0.01210439237312793,0.283
0.010716629666409468,0.284
0.008909789723731115,0.285
0.006694115201749791,0.286
0.004307040099572818,0.287
0.0019888780682711083,0.288
-9.830936678971206e-05,0.289
-0.0019010185998329637,0.29
-0.003508333030203675,0.291
-0.005083152751386192,0.292
-0.006710275788394378,0.293
-0.008314781483548639,0.294
-0.009736304702236784,0.295
-0.010902268259293812,0.296
-0.011941518143146377,0.297
-0.013112329061901322,0.298
-0.014553143734287571,0.299
-0.01600833285129847,0.3
-0.016782788073579417,0.301
-0.01602011308993629,0.302
-0.013094117561853675,0.303
-0.007882825298958852,0.304
-0.0008365302473677891,0.305
0.007155087159771835,0.306
0.014993175531653236,0.307
0.021623768989236895,0.308
0.026275446884614702,0.309
0.02852122476363229,0.31
0.0281274814482181,0.311
0.024908643749258726,0.312
0.01872180707637812,0.313
0.009589991981622104,0.314
-0.0020952712463054492,0.315
-0.015416980356513803,0.316
-0.02889024408211433,0.317
-0.040525168939008836,0.318
-0.048056958562091794,0.319
-0.04941884992170252,0.32
-0.04337191364305654,0.321
-0.029999253046484924,0.322
-0.010808816650481962,0.323
0.011517135465876998,0.324
0.03357554215043131,0.325
0.05189441816594162,0.326
0.06368363965700662,0.327
0.06734094926899657,0.328
0.06259341512290896,0.329
0.050478434307987624,0.33
0.03320887125426642,0.331
0.013801134685069619,0.332
-0.0045426926364937285,0.333
-0.019230684446690162,0.334
-0.029057033250523206,0.335
-0.03450332623977171,0.336
-0.037222562917520616,0.337
-0.03895061256373091,0.338
-0.040506126693158846,0.339
-0.04145204958647249,0.34
-0.04055689267155449,0.341
-0.03667181722214834,0.342
-0.029424965880486206,0.343
-0.019359075733767436,0.344
-0.007574898187409409,0.345
0.0047399329432368876,0.346
0.016557755355751057,0.347
0.02695472732927222,0.348
0.0349625758883474,0.349
0.03962339129459964,0.35
0.040246391904061644,0.351
0.03665686648491856,0.352
0.029328583032585717,0.353
0.01936406768296298,0.354
0.008323212417989388,0.355
-0.0020556529800745665,0.356
-0.010222247081762507,0.357
-0.015213439845485469,0.358
-0.016871476963021506,0.359
-0.01567897771500822,0.36
-0.012376318809241416,0.361
-0.007725760401328404,0.362
-0.0024807164607891386,0.363
0.0026301477903999094,0.364
0.006998202296935186,0.365
0.01024550537007896,0.366
0.01223229066787156,0.367
0.012924826615415073,0.368
0.012211969288289019,0.369
0.009813618020132264,0.37
0.005357862885280673,0.371
-0.001435498438648423,0.372
-0.010537386933638457,0.373
-0.02135685756639371,0.374
-0.03251644502837573,0.375
-0.0418499383207088,0.376
-0.04680644773080813,0.377
-0.045239113074396334,0.378
-0.03627423666262036,0.379
-0.020840788770036457,0.38
-0.0016063658384473333,0.381
0.01769336575681234,0.382
0.03336113343132462,0.383
0.04291721649686013,0.384
0.04583604426578874,0.385
0.04343667683708994,0.386
0.03802265274029096,0.387
0.03180937669458826,0.388
0.026134536980584013,0.389
0.02120923413567686,0.39
0.016444520334370483,0.391
0.011095512223205047,0.392
0.00479395248029289,0.393
-0.002303439216179597,0.394
-0.00968592627899687,0.395
-0.016717817072614622,0.396
-0.022776179363745038,0.397
-0.027389539784364134,0.398
-0.030473688010253828,0.399
-0.03250259790121902,0.4
-0.03430182871356359,0.401
-0.03638863759000884,0.402
-0.038283053025682766,0.403
-0.038389756996906964,0.404
-0.03460672025209337,0.405
-0.02534680229417198,0.406
-0.010561967983867233,0.407
0.007696610788535873,0.408
0.025638614281933255,0.409
0.039087272421554124,0.41
0.04528729759799096,0.411
0.04416165299407372,0.412
0.03824522036093721,0.413
0.031468583368028734,0.414
0.027500033375350043,0.415
0.028226421996598798,0.416
0.03292700285195225,0.417
0.03853380257913426,0.418
0.040835326155952825,0.419
0.03605982747986365,0.42
0.022221518063152992,0.421
-0.00012186801836829993,0.422
-0.027776843794160615,0.423
-0.055452287391059396,0.424
-0.07691000513781424,0.425
-0.08662726602571008,0.426
-0.08145492948244218,0.427
-0.061616150985273135,0.428
-0.030821692663362776,0.429
0.004449792550315351,0.43
0.03641514669700867,0.431
0.05789132386487667,0.432
0.06417374223141376,0.433
0.054351916858062635,0.434
0.031537895688041266,0.435
0.0019017593266739655,0.436
-0.02708715753975044,0.437
-0.048682830841089236,0.438
-0.05858458312666897,0.439
-0.05575679234076723,0.44
-0.042040557925205314,0.441
-0.02088228951246474,0.442
0.004016171316112283,0.443
0.02940260770675512,0.444
0.05239315667393429,0.445
0.0700834984742489,0.446
0.07945468888409908,0.447
0.07785591263119503,0.448
0.06397278794802519,0.449
0.03876301168420476,0.45
0.005692562702272712,0.451
-0.029881050417525725,0.452
-0.06179941107759341,0.453
-0.08429916702096579,0.454
-0.09317331175279321,0.455
-0.08682447509596906,0.456
-0.06692084877126758,0.457
-0.0381235466266256,0.458
-0.0067583125998617825,0.459
0.020962302277392545,0.46
0.0405394657153514,0.461
0.050234942255078505,0.462
0.051114026891802215,0.463
0.04600369330947384,0.464
0.038094964495093836,0.465
0.03006507825970742,0.466
0.023846502394084916,0.467
0.020491934501395515,0.468
0.019862578003437402,0.469
0.020598925438329987,0.47
0.020758857405379336,0.471
0.0187224874154798,0.472
0.013708927908250977,0.473
0.005769673316888947,0.474
-0.004454957116964936,0.475
-0.016028262083255907,0.476
-0.028019126633830757,0.477
-0.03968637176997593,0.478
-0.0504322016100566,0.479
-0.059603709115526905,0.48
-0.06632952142642279,0.481
-0.06949764569170622,0.482
-0.06781827650286022,0.483
-0.05995166448885295,0.484
-0.04489317588634842,0.485
-0.02274070178066566,0.486
0.004538956662507745,0.487
0.03308954901769607,0.488
0.05817147316163224,0.489
0.07561648191706405,0.49
0.0829666482350815,0.491
0.07998305544384729,0.492
0.06852893914323367,0.493
0.05198006258077894,0.494
0.03437073104807155,0.495
0.019345296354438057,0.496
0.009116061405781658,0.497
0.0039359332760085805,0.498
0.0023402249164267094,0.499
0.0019172965433589487,0.5
0.0002656307470356894,0.501
-0.004137388122037813,0.502
-0.011493326415199706,0.503
-0.020912507983866256,0.504
-0.031081471694942603,0.505
-0.040820095341792775,0.506
-0.04922060874065289,0.507
-0.055454652200972926,0.508
-0.058579914279272824,0.509
-0.057626474694019054,0.51
-0.05186715505078364,0.511
-0.04101256230042699,0.512
-0.025318212540256207,0.513
-0.005682576660590083,0.514
0.016379554865715965,0.515
0.03894766001213677,0.516
0.05987910039415301,0.517
0.07690763567261766,0.518
0.08785769797419461,0.519
0.09097786902935011,0.52
0.08528578083034641,0.521
0.07093056045532224,0.522
0.049393710235622695,0.523
0.023217121540512746,0.524
-0.004687797050861414,0.525
-0.031738199413679634,0.526
-0.056002241723363475,0.527
-0.0760574126715356,0.528
-0.09067225693397864,0.529
-0.09866619224724828,0.53
-0.09900569151254984,0.531
-0.09107130918378831,0.532
-0.07513079492219092,0.533
-0.0528002212402744,0.534
-0.026934740706411886,0.535
-0.0007700463815207745,0.536
0.02320894694869815,0.537
0.044022627617601916,0.538
0.062039787247068455,0.539
0.07780301988807607,0.54
0.0906624068636608,0.541
0.09841238617405108,0.542
0.098167219347797,0.543
0.0878021818690166,0.544
0.06728179070933465,0.545
0.0392558701191349,0.546
0.00853866568937319,0.547
-0.019250174837720305,0.548
-0.0393503937884295,0.549
-0.049396104274558345,0.55
-0.05027033153937417,0.551
-0.04573322550829368,0.552
-0.0408244063500272,0.553
-0.03983594237553523,0.554
-0.044827224217939235,0.555
-0.05507696238371553,0.556
-0.06734662856093075,0.557
-0.076713938242224,0.558
-0.07786577665542371,0.559
-0.0667757915710433,0.56
-0.042308555469916506,0.561
-0.00692678536647774,0.562
0.03386687858575751,0.563
0.07290157162310226,0.564
0.10307810744146283,0.565
0.11931126287584835,0.566
0.11995466702927687,0.567
0.10680863678418419,0.568
0.08398295102200871,0.569
0.05660527325911578,0.57
0.02975266544624094,0.571
0.007532052102001568,0.572
-0.007603104338079239,0.573
-0.01514227259107644,0.574
-0.01636584660025613,0.575
-0.013830405298558841,0.576
-0.010664136707898463,0.577
-0.009887187696147087,0.578
-0.01397633082874562,0.579
-0.024744753076778068,0.58
-0.04328708604620493,0.581
-0.06959890229435174,0.582
-0.10172953295084519,0.583
-0.1348080473432948,0.584
-0.16083553843888188,0.585
-0.17023976288292103,0.586
-0.15520258392296432,0.587
-0.11329989816957654,0.588
-0.04935000209836496,0.589
0.025791738492416134,0.59
0.09883084475901414,0.591
0.15798745744269155,0.592
0.19561079774916412,0.593
0.20901552459946598,0.594
0.19988094778342336,0.595
0.17267645940256515,0.596
0.1328200558285166,0.597
0.08545654819131573,0.598
0.035169831557867445,0.599
-0.013757683347162316,0.6
-0.05703634236472219,0.601
-0.09031630447803826,0.602
-0.1095719800103494,0.603
-0.11201653202850209,0.604
-0.09738311607250334,0.605
-0.06892758305132783,0.606
-0.033301512001092964,0.607
0.0009782672543413207,0.608
0.025877260866447774,0.609
0.03600747321755304,0.61
0.029881107470978427,0.611
0.01018479463808423,0.612
-0.016739722492792534,0.613
-0.042301457449423416,0.614
-0.05812741717783811,0.615
-0.058990280475677934,0.616
-0.04460868799979665,0.617
-0.019243892958547736,0.618
0.010308356988848539,0.619
0.03699770952785989,0.62
0.0552246468326235,0.621
0.061764072645168935,0.622
0.0560253708786367,0.623
0.039770395383077604,0.624
0.016469991701495584,0.625
-0.00934500287635424,0.626
-0.0327339470096982,0.627
-0.04935897734778248,0.628
-0.05665399139080121,0.629
-0.054444457341263255,0.63
-0.04473440372216923,0.631
-0.03092549468801572,0.632
-0.016793516062704985,0.633
-0.005246877564076487,0.634
0.0029617029695914766,0.635
0.009658463988268435,0.636
0.01810400309883757,0.637
0.030873751706993288,0.638
0.04799669638573364,0.639
0.06634754987116469,0.64
0.08071559004976225,0.641
0.0860276919250082,0.642
0.07962821190622792,0.643
0.06267316020159276,0.644
0.03987878383941423,0.645
0.017406798229775564,0.646
-7.66476653692911e-05,0.647
-0.011411948993274171,0.648
-0.018898907437961538,0.649
-0.02647096546762318,0.65
-0.03743855529460169,0.651
-0.05293315507729173,0.652
-0.0713248159007814,0.653
-0.08853277173938452,0.654
-0.09919387604101754,0.655
-0.09866691911350135,0.656
-0.08526617627013268,0.657
-0.06128615428436259,0.658
-0.03199410905631965,0.659
-0.003280304326968347,0.66
0.020770704285644013,0.661
0.039202599031355034,0.662
0.053741751114232045,0.663
0.0670700406205714,0.664
0.0808534469094173,0.665
0.09426527686255565,0.666
0.10365381161873609,0.667
0.10375281223959915,0.668
0.08987913341437419,0.669
0.059984118455864335,0.67
0.01572164243184198,0.671
-0.03771119872084044,0.672
-0.09266350997469565,0.673
-0.14064123624491262,0.674
-0.17407957729767015,0.675
-0.18764089911711937,0.676
-0.1785411978814047,0.677
-0.1462474388990069,0.678
-0.09243954120017982,0.679
-0.0217624084181731,0.68
0.0573207744288134,0.681
0.1331558313826034,0.682
0.19350807959422883,0.683
0.22870061126726365,0.684
0.23379771955876874,0.685
0.20964631523798063,0.686
0.16276542651630177,0.687
0.10368610817503578,0.688
0.04383613815731956,0.689
-0.007839925017573917,0.69
-0.046759747317712694,0.691
-0.07234299412046429,0.692
-0.08635196818122917,0.693
-0.09131376172267529,0.694
-0.08979664879169551,0.695
-0.08452820982909606,0.696
-0.07865465055377709,0.697
-0.07538119609639618,0.698
-0.0769467329960222,0.699
-0.0835432871272947,0.7
-0.09283386360399064,0.701
-0.1003217817929226,0.702
-0.10036052419535405,0.703
-0.08758169786062388,0.704
-0.058732060695448646,0.705
-0.014472587833540933,0.706
0.039862128965196406,0.707
0.09508791120759992,0.708
0.14033963997207896,0.709
0.16606486271325543,0.71
0.1669490804806799,0.711
0.1435520815819666,0.712
0.10205566984053,0.713
0.05247657565036332,0.714
0.005968688453462958,0.715
-0.028203616403045636,0.716
-0.04528241631344231,0.717
-0.046289702891710215,0.718
-0.03733277803254649,0.719
-0.027178369564559428,0.72
-0.02392467550472914,0.721
-0.03181697041012576,0.722
-0.04944372259346513,0.723
-0.0703338649434086,0.724
-0.08596479385696705,0.725
-0.0897099970561593,0.726
-0.07947021149109125,0.727
-0.05770499670280535,0.728
-0.029506710716623124,0.729
-0.0001948018814908288,0.73
0.026501142764773975,0.731
0.049041396736929144,0.732
0.06747132127974802,0.733
0.08238656284479615,0.734
0.09415828465173648,0.735
0.10258106514334106,0.736
0.10683499394296585,0.737
0.10557654003053554,0.738
0.09718066091908155,0.739
0.0802854572385685,0.74
0.054461965435675955,0.741
0.020685111129431683,0.742
-0.018490583617362027,0.743
-0.05917306076778384,0.744
-0.09693774427339677,0.745
-0.12784919335371878,0.746
-0.14900735833574147,0.747
-0.15832510983135814,0.748
-0.15393679825312376,0.749
-0.13404684999129288,0.75
-0.09797412289140146,0.751
-0.04812108397643822,0.752
0.009016228782738167,0.753
0.06431729981790908,0.754
0.10893437069285182,0.755
0.1364788738902935,0.756
0.1439232394329523,0.757
0.13198472900189567,0.758
0.10524517251884023,0.759
0.07123513722949451,0.76
0.037976190133786544,0.761
0.011088022755975915,0.762
-0.007599586960819679,0.763
-0.01935731172256941,0.764
-0.026849253597195383,0.765
-0.03244730186195388,0.766
-0.03705855663406529,0.767
-0.03989073887821185,0.768
-0.039269499504841814,0.769
-0.034053658832871724,0.77
-0.02494346891500592,0.771
-0.014931792260177238,0.772
-0.00847402825713205,0.773
-0.009764202934006195,0.774
-0.02109090417997825,0.775
-0.042056813745329234,0.776
-0.06963141270464886,0.777
-0.09848045369554193,0.778
-0.12134390381666932,0.779
-0.12979603029289083,0.78
-0.11600606777670457,0.781
-0.07566413715950328,0.782
-0.010780030578362073,0.783
0.0696240877825104,0.784
0.15142275660104837,0.785
0.2188944026505953,0.786
0.2587650835258915,0.787
0.2636909407487286,0.788
0.23400347558254947,0.789
0.1770999006718997,0.79
0.10468639199971394,0.791
0.029103085174521197,0.792
-0.03952186839494056,0.793
-0.09453047143759033,0.794
-0.1329980034760899,0.795
-0.15549285484882772,0.796
-0.1650354203805914,0.797
-0.1651645519016729,0.798
-0.15798739735779949,0.799
-0.14351042022244181,0.8
-0.12067988543090545,0.801
-0.08929002385708862,0.802
-0.05149794206111575,0.803
-0.011824643226640126,0.804
0.024682641037674778,0.805
0.05467167116406581,0.806
0.07714819694896102,0.807
0.0925352808346961,0.808
0.10147398568609944,0.809
0.1043644779627092,0.81
0.10171274671503806,0.811
0.09432255378787803,0.812
0.08259746088555155,0.813
0.06576499871256149,0.814
0.04226278454738104,0.815
0.011327569129195377,0.816
-0.025361721234823654,0.817
-0.0632155071871982,0.818
-0.09575492312560276,0.819
-0.11645149891401738,0.82
-0.12049968422387913,0.821
-0.10609406813921987,0.822
-0.07503449433014094,0.823
-0.03246648008748259,0.824
0.014256846133727522,0.825
0.05731158973775029,0.826
0.09018975616509507,0.827
0.10893303006267151,0.828
0.11249458316429589,0.829
0.10225405195164051,0.83
0.08103496101704673,0.831
0.05223628123151058,0.832
0.019473045365759088,0.833
-0.013351824499800272,0.834
-0.04198678871018994,0.835
-0.06248711689009387,0.836
-0.07268204349467725,0.837
-0.07340137346246287,0.838
-0.06845336566845904,0.839
-0.06322602932800775,0.84
-0.06243034864814822,0.841
-0.06817733005575126,0.842
-0.07939096813921746,0.843
-0.09219393383819097,0.844
-0.10067106438746666,0.845
-0.09827404360198937,0.846
-0.07984770208616182,0.847
-0.04348185202413114,0.848
0.008522781457327632,0.849
0.06979380661554192,0.85
0.13100988759807333,0.851
0.1818901515690511,0.852
0.21382465125309344,0.853
0.22223557994781226,0.854
0.20752417869078502,0.855
0.17436583099942532,0.856
0.13000500872604678,0.857
0.08228258376701593,0.858
0.0377906624260456,0.859
0.0003179257603060485,0.86
-0.030008453775774636,0.861
-0.056249429840269455,0.862
-0.08267464408880601,0.863
-0.11202183147669602,0.864
-0.14340571046367034,0.865
-0.17202818421233415,0.866
-0.19079878676997242,0.867
-0.1930338532930012,0.868
-0.17518141264038314,0.869
-0.1386457926288836,0.87
-0.08983882532517494,0.871
-0.03821594603348951,0.872
0.006873981766150373,0.873
0.03927529351544899,0.874
0.05779001657320118,0.875
0.06571054281279304,0.876
0.06857098664202192,0.877
0.07160743827397197,0.878
0.07790868547040694,0.879
0.08760597748726438,0.88
0.0984179789051549,0.881
0.10719474945568133,0.882
0.1111904973509715,0.883
0.10846406984418776,0.884
0.0980522752820889,0.885
0.08027127991601436,0.886
0.056706650686038286,0.887
0.029599270839386134,0.888
0.0009350501507614985,0.889
-0.028085302752104427,0.89
-0.056871118024561934,0.891
-0.08491469855729507,0.892
-0.11114874642621503,0.893
-0.1331363056509538,0.894
-0.14673608414724068,0.895
-0.14712647170432877,0.896
-0.13093788185420707,0.897
-0.09838566111795694,0.898
-0.054228519250977464,0.899
-0.006838626823817178,0.9
0.03423609511233483,0.901
0.06104638802560078,0.902
0.06939734355666241,0.903
0.060047914248727255,0.904
0.03874669005439288,0.905
0.014833504006459018,0.906
-0.0014051974041206024,0.907
-0.001978006524999046,0.908
0.01589397197217076,0.909
0.048517053812754035,0.91
0.08703537610851,0.911
0.12058990342736182,0.912
0.1396503691963468,0.913
0.13856534351186303,0.914
0.1169889542699159,0.915
0.07958583698468741,0.916
0.03403418467568662,0.917
-0.01148273863043286,0.918
-0.05033204842808754,0.919
-0.07882958191109905,0.92
-0.09681048094171726,0.921
-0.10711935985914989,0.922
-0.11398237958742499,0.923
-0.12082850404737665,0.924
-0.1285915675982287,0.925
-0.13503638923218383,0.926
-0.1351380157028756,0.927
-0.12267106113627159,0.928
-0.09286060687715808,0.929
-0.04503616718974507,0.93
0.016112528234362024,0.931
0.08137746109613941,0.932
0.1395637699714312,0.933
0.18058899493526065,0.934
0.19797294402022175,0.935
0.19000052663104197,0.936
0.15963354738152,0.937
0.11356956457837458,0.938
0.06050501636796612,0.939
0.008974856414635888,0.94
-0.03429734458192387,0.941
-0.0651922699845992,0.942
-0.08242332705199219,0.943
-0.08722366392354823,0.944
-0.08244141190318512,0.945
-0.07139720983794959,0.946
-0.057036103031076354,0.947
-0.04185639825297966,0.948
-0.028621924023462374,0.949
-0.020808537779712886,0.95
-0.021572463390417226,0.951
-0.031567404404558304,0.952
-0.04721711111315819,0.953
-0.06085284835548867,0.954
-0.06325442966212362,0.955
-0.04782076896069632,0.956
-0.014314524172183339,0.957
0.03005348041224805,0.958
0.07322919881198163,0.959
0.10337220637588691,0.96
0.11342446305901553,0.961
0.10296664974637296,0.962
0.07734038487664509,0.963
0.04528104924129785,0.964
0.01607377510438907,0.965
-0.003189824806149994,0.966
-0.00959097759418166,0.967
-0.004968279946224401,0.968
0.0050265512209517116,0.969
0.01312720223243986,0.97
0.01333767769235964,0.971
0.0033110551253626884,0.972
-0.015099995950883823,0.973
-0.0372656431854706,0.974
-0.05805803169750573,0.975
-0.07370204293091068,0.976
-0.0825091356827538,0.977
-0.08457830435035646,0.978
-0.08100809993700908,0.979
-0.07304209482154453,0.98
-0.061253989411268514,0.981
-0.044926491902444854,0.982
-0.021991808872010923,0.983
0.010044038485568252,0.984
0.05192967066080438,0.985
0.10020868256860531,0.986
0.14669383700104707,0.987
0.18067216320859963,0.988
0.19238248139569364,0.989
0.17622080483169955,0.99
0.13268467948076537,0.991
0.06840053111142651,0.992
-0.005649360726599548,0.993
-0.07693746817640525,0.994
-0.13401124092693908,0.995
-0.16815725298081624,0.996
-0.1748889868477439,0.997
-0.15578558097822207,0.998
-0.11907248262172718,0.999
-0.07725567355345943,1.0
-0.04246245647476775,1.001
-0.02176977602661526,1.002
-0.014898025717579417,1.003
-0.015470750737290137,1.004
-0.014773756772300422,1.005
-0.005769821030115651,1.006
0.014187144813127035,1.007
0.04272290399456367,1.008
0.07393740897836788,1.009
0.1009607906644131,1.01
0.11818798086119259,1.011
0.12251293994545476,1.012
0.1135306284165396,1.013
0.09299087317550754,1.014
0.0641861211377758,1.015
0.03165810606062951,1.016
0.000627340947640044,1.017
-0.024323029598193033,1.018
-0.04066958752159616,1.019
-0.048516446628246404,1.02
-0.05010771289361033,1.021
-0.04869266759121138,1.022
-0.047081760038662775,1.023
-0.04632014897820698,1.024
-0.04520720332955955,1.025
-0.04114016434535669,1.026
-0.031970580638510555,1.027
-0.01791543289732174,1.028
-0.0024870285637049747,1.029
0.008182203504215831,1.03
0.007540899607943045,1.031
-0.008350268588199794,1.032
-0.03813255065375235,1.033
-0.07422225201487265,1.034
-0.10430473563649201,1.035
-0.11491769611103524,1.036
-0.09639215831332393,1.037
-0.04731000106078716,1.038
0.02407780144020287,1.039
0.10231506020025172,1.04
0.16979793794691905,1.041
0.21219968572793932,1.042
0.2221403127201014,1.043
0.20018073614333484,1.044
0.15342536478634114,1.045
0.09255102002345644,1.046
0.028326666572822845,1.047
-0.031189040241470525,1.048
-0.0817439549326425,1.049
-0.12207098556934275,1.05
-0.15202227028828927,1.051
-0.17106602571192808,1.052
-0.17828016618307438,1.053
-0.17375953726984492,1.054
-0.15982111757153705,1.055
-0.14027769745016636,1.056
-0.11783287881197899,1.057
-0.09160587412250995,1.058
-0.057192370529797004,1.059
-0.010024533435553552,1.06
0.050162201844640875,1.061
0.11729500879453904,1.062
0.18053097494059242,1.063
0.22784333392435796,1.064
0.24990654142103427,1.065
0.2429677606922783,1.066
0.20958768559519006,1.067
0.15720219271329627,1.068
0.09550104007896762,1.069
0.03379575019048444,1.07
-0.020951258458373527,1.071
-0.06511204299805706,1.072
-0.09795317644069564,1.073
-0.11996761587731701,1.074
-0.1312769724306045,1.075
-0.13124945899578522,1.076
-0.11930052005305271,1.077
-0.09606156462489748,1.078
-0.0641803930107425,1.079
-0.028376167567406366,1.08
0.005409570938107162,1.081
0.03159557454744317,1.082
0.04659819144278345,1.083
0.04960157277993121,1.084
0.042050367906731216,1.085
0.02637190798349354,1.086
0.004815014108780596,1.087
-0.020937818992101714,1.088
-0.04916593946722349,1.089
-0.07693235735732104,1.09
-0.09934646448505563,1.091
-0.11025309257998951,1.092
-0.10447001643477791,1.093
-0.08045769821976513,1.094
-0.04171628380233026,1.095
0.00402090245039851,1.096
0.04737257295593444,1.097
0.0803930778213938,1.098
0.098658310005818,1.099
0.10159412702330943,1.1
0.09161725891624246,1.101
0.0729749586663157,1.102
0.05055606226680907,1.103
0.02888567761285147,1.104
0.011747943480543916,1.105
0.0022632533120902684,1.106
0.0024383563609840985,1.107
0.011968527142740425,1.108
0.0276196065329119,1.109
0.044174121105481474,1.11
0.05623046186369947,1.111
0.059765803293847425,1.112
0.05308954719635078,1.113
0.037032086093238874,1.114
0.0143031629452525,1.115
-0.011586886860632478,1.116
-0.03723375266314757,1.117
-0.05982182780787677,1.118
-0.07743823486031243,1.119
-0.08929358651115492,1.12
-0.09554552587233833,1.121
-0.09690416617505808,1.122
-0.09444817122145772,1.123
-0.08929149521752107,1.124
-0.08158515618615757,1.125
-0.06960729680055215,1.126
-0.050359595377527176,1.127
-0.021718188110136417,1.128
0.01543627757824701,1.129
0.05663625102462969,1.13
0.0950765598655558,1.131
0.1237814331876945,1.132
0.13753821350353237,1.133
0.13420219463671915,1.134
0.1153711890165692,1.135
0.0859784499629361,1.136
0.05251920446899797,1.137
0.020795936268162358,1.138
-0.005475223451615924,1.139
-0.02484895536197898,1.14
-0.03771168603844694,1.141
-0.045646263812945925,1.142
-0.05068966570740414,1.143
-0.05460288611533928,1.144
-0.05824608301486851,1.145
-0.06120263845457888,1.146
-0.06201362579095516,1.147
-0.05922161185336587,1.148
-0.05260890771446363,1.149
-0.043525689501624616,1.15
-0.03406917087211691,1.151
-0.025884027670435978,1.152
-0.019225282131822053,1.153
-0.012588704085227453,1.154
-0.003202343520563955,1.155
0.011612304771851838,1.156
0.03274046059696999,1.157
0.05822202813460819,1.158
0.08367179209123146,1.159
0.10389598846055359,1.16
0.11464277196759176,1.161
0.11374528549106666,1.162
0.10136204487097444,1.163
0.07937294466627974,1.164
0.05044730033441928,1.165
0.017275902431253588,1.166
-0.01773486481657104,1.167
-0.052044636468187945,1.168
-0.08225269288016913,1.169
-0.10408946275832691,1.17
-0.11353225664907438,1.171
-0.10873419005283813,1.172
-0.09198366032664064,1.173
-0.07010344963207057,1.174
-0.052106003720446485,1.175
-0.045011246546510245,1.176
-0.05016637491255892,1.177
-0.06211112349938509,1.178
-0.07076726758724222,1.179
-0.06603826235211671,1.18
-0.04247451434291231,1.181
-0.0015565199610591979,1.182
0.04930979449333476,1.183
0.10000210213100277,1.184
0.14115363872914977,1.185
0.1664349517239283,1.186
0.17325903617699379,1.187
0.16238347374162973,1.188
0.13704873907882714,1.189
0.10198951278929977,1.19
0.06244215321621395,1.191
0.023278448488980138,1.192
-0.01159320401056956,1.193
-0.03957387767204261,1.194
-0.05957935882375138,1.195
-0.07202806014496033,1.196
-0.07842206217118755,1.197
-0.08059548129251415,1.198
-0.08000173053216314,1.199
-0.07736719132437815,1.2
-0.07280745192799115,1.201
-0.06627692102632074,1.202
-0.05800941027265653,1.203
-0.04857193108203251,1.204
-0.03840160984602319,1.205
-0.027227195162977252,1.206
-0.01418717392253609,1.207
0.0011627663506012533,1.208
0.017867797950236734,1.209
0.033408363756590564,1.21
0.04420583808552687,1.211
0.04656422448470013,1.212
0.03811477672135426,1.213
0.019373994174448426,1.214
-0.005451919448638502,1.215
-0.028999110366410737,1.216
-0.04274316010428583,1.217
-0.04010507094982243,1.218
-0.01946236421466761,1.219
0.01465683289545906,1.22
0.05306589615298688,1.221
0.08530608607697136,1.222
0.10322558251831353,1.223
0.1032644831642257,1.224
0.08680605797699145,1.225
0.058862873555418666,1.226
0.025906912046947894,1.227
-0.006106697013935525,1.228
-0.032774946787515226,1.229
-0.05150143159175464,1.23
-0.061462288672176534,1.231
-0.06337000071787668,1.232
-0.05913990820947582,1.233
-0.05155905986901234,1.234
-0.04354201715436839,1.235
-0.03673164804524791,1.236
-0.03026684133955044,1.237
-0.02114462445236819,1.238
-0.006589721155559113,1.239
0.01324766769721218,1.24
0.03449640116297272,1.241
0.05107196271683309,1.242
0.05731843469991765,1.243
0.050445626995125836,1.244
0.03165080951328165,1.245
0.005508710625112623,1.246
-0.021826713050863925,1.247
-0.04461735890892919,1.248
-0.05884087522897911,1.249
-0.0625522411039293,1.25
-0.055779849407063146,1.251
-0.040320357261799694,1.252
-0.019324272333052568,1.253
0.003423060320238104,1.254
0.024341750185783304,1.255
0.040684821329964316,1.256
0.050854608113245436,1.257
0.054687310539902285,1.258
0.05357017464968629,1.259
0.049701733250750425,1.26
0.04469286357690884,1.261
0.038758603911321916,1.262
0.03110808873914497,1.263
0.020950027161168158,1.264
0.008224833331460303,1.265
-0.0063372735469868725,1.266
-0.02157068890739069,1.267
-0.036240559399857715,1.268
-0.049267400595547337,1.269
-0.05973767565872858,1.27
-0.06665702465269742,1.271
-0.0685946858546161,1.272
-0.06368533554777228,1.273
-0.05056060542925413,1.274
-0.029922393932546674,1.275
-0.00529085767841591,1.276
0.01807393900568807,1.277
0.03546650581511945,1.278
0.04484147506622584,1.279
0.04746064678242414,1.28
0.04664715082390293,1.281
0.0454591839538796,1.282
0.04471521655480258,1.283
0.04254932470962535,1.284
0.03575601363271085,1.285
0.021982562990355916,1.286
0.0014887915606190396,1.287
-0.022333698333026175,1.288
-0.044093973029397215,1.289
-0.05863992439272231,1.29
-0.06281063121576251,1.291
-0.05582456705147804,1.292
-0.03882436876608146,1.293
-0.014358255682992054,1.294
0.013842617411007374,1.295
0.041045608828803724,1.296
0.06220153244138695,1.297
0.07315364478477347,1.298
0.07190626171488983,1.299
0.05939290560690373,1.3
0.039236470641922566,1.301
0.016422018174425096,1.302
-0.004606110196108157,1.303
-0.0214558063702168,1.304
-0.034029794863189765,1.305
-0.04365970250325947,1.306
-0.05204944606690991,1.307
-0.06038549734863229,1.308
-0.0683990398468138,1.309
-0.07362043911060626,1.31
-0.0717224413236173,1.311
-0.05849556952511525,1.312
-0.03261794973526212,1.313
0.002555155401023059,1.314
0.03948793411610806,1.315
0.06915358919829535,1.316
0.08447948687992192,1.317
0.08279794895344313,1.318
0.06637790371309073,1.319
0.04123084276137254,1.32
0.014969168429171719,1.321
-0.005472842729989371,1.322
-0.015620485995918507,1.323
-0.014512295484592801,1.324
-0.0048894558445079644,1.325
0.007903763705791498,1.326
0.018068410972896246,1.327
0.021295314339183635,1.328
0.015731387391320666,1.329
0.0021683126013489432,1.33
-0.01626797257555504,1.331
-0.03487162163692374,1.332
-0.048518322205080525,1.333
-0.05298616961536195,1.334
-0.04616761100148553,1.335
-0.029076550068988655,1.336
-0.00607609715069924,1.337
0.016425335036464584,1.338
0.03242018604462033,1.339
0.038514189515933384,1.34
0.034762814557509396,1.341
0.02400866572687277,1.342
0.01043011832012569,1.343
-0.0020312258333033393,1.344
-0.010924850686799825,1.345
-0.01576437617100692,1.346
-0.01760188553061084,1.347
-0.018118013885567826,1.348
-0.018751088000719823,1.349
-0.02015916578263306,1.35
-0.02203617973265018,1.351
-0.023284508495999803,1.352
-0.022572086681463217,1.353
-0.01903562091557349,1.354
-0.012782200141161097,1.355
-0.004898645380315125,1.356
0.0032155863440946394,1.357
0.010788125651732886,1.358
0.01804096060315684,1.359
0.025687892090533307,1.36
0.034109948878405655,1.361
0.04284652806477275,1.362
0.050568068389388834,1.363
0.055426651313027715,1.364
0.05562917427212696,1.365
0.05011602988347172,1.366
0.039200139740796246,1.367
0.02468607543277965,1.368
0.009178017247241665,1.369
-0.0048945949304824874,1.37
-0.015918820556597973,1.371
-0.023325480362620134,1.372
-0.027525381237139705,1.373
-0.029622765165800903,1.374
-0.030976895458053114,1.375
-0.03276574705793515,1.376
-0.035666308965083396,1.377
-0.03968239380318338,1.378
-0.04413711596544334,1.379
-0.04780123403592721,1.38
-0.0491797665001116,1.381
-0.04704135435985254,1.382
-0.04106286350434866,1.383
-0.03217928650343321,1.384
-0.022291105695463154,1.385
-0.013389720048321643,1.386
-0.006593287893650226,1.387
-0.0016042497286036495,1.388
0.003286228629459671,1.389
0.010618259712091894,1.39
0.022510062864353968,1.391
0.03917961594473068,1.392
0.05826511697494972,1.393
0.07552583728956862,1.394
0.08651065292280284,1.395
0.08826588316331657,1.396
0.08027857270829739,1.397
0.06433440560044655,1.398
0.04351656200268082,1.399
0.020996614919236344,1.4
-0.0006355210228767697,1.401
-0.01936077369164847,1.402
-0.033624597430688255,1.403
-0.04250934045187807,1.404
-0.04593727294834449,1.405
-0.04466169405297829,1.406
-0.040095541299883575,1.407
-0.03404456860435137,1.408
-0.02828021605920886,1.409
-0.023899618310037715,1.41
-0.02080971304704825,1.411
-0.017910326607734114,1.412
-0.013967813728750025,1.413
-0.00852039369042607,1.414
-0.0022996461221423243,1.415
0.00292516083486938,1.416
0.004981786842311237,1.417
0.002165598933465517,1.418
-0.005946138821233177,1.419
-0.017903662457583798,1.42
-0.03016385411419474,1.421
-0.03760171353529614,1.422
-0.03518664795610685,1.423
-0.02045700179566838,1.424
0.004798337086983955,1.425
0.03498972317022677,1.426
0.06288006990030846,1.427
0.08197633983438912,1.428
0.08809772881674338,1.429
0.07998161677953415,1.43
0.059268967270472914,1.431
0.029891193749809353,1.432
-0.003150318371215277,1.433
-0.03501292782667467,1.434
-0.06164374943262513,1.435
-0.07988207028207399,1.436
-0.08746008352702038,1.437
-0.08312319310010706,1.438
-0.06684749664565455,1.439
-0.040149357003705956,1.44
-0.006381776371455081,1.441
0.02928944286966291,1.442
0.06045427347829317,1.443
0.08073049068170977,1.444
0.08567027895105438,1.445
0.07453376986796328,1.446
0.0509062927131739,1.447
0.021633270503909514,1.448
-0.005608789956259831,1.449
-0.024875893401703715,1.45
-0.03344565599534405,1.451
-0.0319817044831592,1.452
-0.023673767043897793,1.453
-0.012774339059088032,1.454
-0.003172009548816459,1.455
0.002495589721502663,1.456
0.003141166265745091,1.457
-0.0008996361159410188,1.458
-0.00823398169613841,1.459
-0.016847452496888835,1.46
-0.024542077293918912,1.461
-0.029399195067258858,1.462
-0.03024327180426333,1.463
-0.026928442332460348,1.464
-0.020297031644350712,1.465
-0.011874700907474636,1.466
-0.0034208913721906283,1.467
0.0036366948102040234,1.468
0.00872664925397344,1.469
0.012282546943164727,1.47
0.015370382164944836,1.471
0.0189975791344223,1.472
0.02355005590468818,1.473
0.028664253776479673,1.474
0.03335605616775062,1.475
0.03622134456050406,1.476
0.03584248074775958,1.477
0.03138044174997841,1.478
0.023035673288630255,1.479
0.012074835841874512,1.48
0.00036402133040896534,1.481
-0.010309262221503687,1.482
-0.01880175320988987,1.483
-0.024965232919297687,1.484
-0.029576018818089335,1.485
-0.03361374130607121,1.486
-0.037273826229951026,1.487
-0.03951931964354892,1.488
-0.03858280682863161,1.489
-0.03312257891136843,1.49
-0.023245578323854637,1.491
-0.010687528729064826,1.492
0.001954851742947114,1.493
0.01246229205286003,1.494
0.01993118248750214,1.495
0.024813972890503362,1.496
0.028159096954534484,1.497
0.030720425587705765,1.498
0.03252695407304301,1.499
0.03299961364000253,1.5
0.03137170735219793,1.501
0.027198417285650117,1.502
0.020675368443171676,1.503
0.01247889290259002,1.504
0.003302934479208461,1.505
-0.0064533538188080485,1.506
-0.01665042811004705,1.507
-0.027051945427370144,1.508
-0.03678565983024037,1.509
-0.043977043936176255,1.51
-0.04596933097597364,1.511
-0.04028371066730498,1.512
-0.025994424360209902,1.513
-0.004761980473000402,1.514
0.019075807641170728,1.515
0.039418424127405954,1.516
0.0500935810301055,1.517
0.04688754570401619,1.518
0.029236002715672817,1.519
0.0008967871155623804,1.52
-0.030726123923724036,1.521
-0.05647251039508193,1.522
-0.06809782564338128,1.523
-0.06104075174113727,1.524
-0.03628648361325981,1.525
-0.0003073341086246317,1.526
0.03716164014946757,1.527
0.0664848987241763,1.528
0.08107565115970476,1.529
0.0789148421061128,1.53
0.06238458424851742,1.531
0.03678938859829889,1.532
0.008357101078996879,1.533
-0.017504396925527677,1.534
-0.03719301688143663,1.535
-0.04898832207824563,1.536
-0.05254805270053701,1.537
-0.04842299624571632,1.538
-0.03791968947291845,1.539
-0.023112787512449752,1.54
-0.006590609517447545,1.541
0.009134771177911474,1.542
0.022221246161555026,1.543
0.03175009267667287,1.544
0.03752482115915362,1.545
0.03956958448123897,1.546
0.037698521554971484,1.547
0.031526901461207096,1.548
0.020899027011168518,1.549
0.006355411511594712,1.55
-0.010667498753450484,1.551
-0.027978573627283693,1.552
-0.042956846808734926,1.553
-0.052957949850836634,1.554
-0.055947594146488096,1.555
-0.05131360656564951,1.556
-0.040364777535666876,1.557
-0.026011971162802558,1.558
-0.011694731520567402,1.559
-0.00020219825469227576,1.56
0.0070592656603792985,1.561
0.010295874973470953,1.562
0.01109411914638551,1.563
0.011657478970143043,1.564
0.013798291138420557,1.565
0.018280292122298626,1.566
0.02471734985954594,1.567
0.03186876475437428,1.568
0.03817006210400471,1.569
0.04219309845717271,1.57
0.04282518578725915,1.571
0.03940185753885959,1.572
0.031945210215986466,1.573
0.02127239555179316,1.574
0.008867171454785031,1.575
-0.003378782227538283,1.576
-0.01356096370028005,1.577
-0.0202902681783936,1.578
-0.02314726270506712,1.579
-0.022718128714043332,1.58
-0.020156866004409597,1.581
-0.0167991202226295,1.582
-0.014097574778283224,1.583
-0.013404025225670978,1.584
-0.015446231751344977,1.585
-0.02007018107846221,1.586
-0.02651662104818645,1.587
-0.03378437144583608,1.588
-0.0405811420837477,1.589
-0.04493615406830538,1.59
-0.04420131342260234,1.591
-0.036148939423447816,1.592
-0.020670582572574918,1.593
-0.0004577467401185452,1.594
0.020174800673400644,1.595
0.03748735468061524,1.596
0.05008584733895838,1.597
0.059059231781681466,1.598
0.06622381205694763,1.599
0.07184258762186924,1.6
0.07367666876061404,1.601
0.06798903116316139,1.602
0.0518708335121475,1.603
0.025563706062569927,1.604
-0.006779770556492161,1.605
-0.03848750031798267,1.606
-0.06290574971233562,1.607
-0.07556266699680163,1.608
-0.07514471981126218,1.609
-0.06331559854259664,1.61
-0.043858778470188244,1.611
-0.021551587763567234,1.612
-0.0008713950324970949,1.613
0.01519516437890932,1.614
0.025631929997772283,1.615
0.03089748521755642,1.616
0.031978486068499436,1.617
0.029777294446218378,1.618
0.02506750075129921,1.619
0.018706488591395547,1.62
0.011753191637166024,1.621
0.005311410108693651,1.622
0.00016971701011722268,1.623
-0.0034897885266519197,1.624
-0.006136375092528377,1.625
-0.008717707878908992,1.626
-0.012302219931520905,1.627
-0.017535177057671276,1.628
-0.024057366292977677,1.629
-0.030298862083723586,1.63
-0.03410030818691634,1.631
-0.03392560931617347,1.632
-0.029598632705461505,1.633
-0.02195745085685522,1.634
-0.012065196290958738,1.635
-0.0008642852979701254,1.636
0.01062238528323196,1.637
0.021101745298660525,1.638
0.029237498750505127,1.639
0.03404677624306656,1.64
0.03505851721591251,1.641
0.03222914330263858,1.642
0.02581352735168576,1.643
0.016302988824342234,1.644
0.00456516722682951,1.645
-0.007722128890966594,1.646
-0.017742801995616064,1.647
-0.02213002307161659,1.648
-0.01855369200175701,1.649
-0.0071637686554710655,1.65
0.009107254951506254,1.651
0.02536457832270888,1.652
0.036386780838680334,1.653
0.038587841511195146,1.654
0.031344043117090145,1.655
0.01705713888876455,1.656
0.0001639621638599177,1.657
-0.014476128652375703,1.658
-0.02333845356426122,1.659
-0.02537130442340844,1.66
-0.0219484954497934,1.661
-0.015863124286865524,1.662
-0.01012193902664577,1.663
-0.007006624603291585,1.664
-0.007384815203811539,1.665
-0.0104455922385077,1.666
-0.014256224643995011,1.667
-0.016891093487049,1.668
-0.017265361303007525,1.669
-0.015222486104964777,1.67
-0.011197603484598029,1.671
-0.005944382274729468,1.672
-0.00043455168963073363,1.673
0.004287109579238326,1.674
0.00741590500810777,1.675
0.008651144683163367,1.676
0.008168660743797646,1.677
0.006454525988520643,1.678
0.004255667753151831,1.679
0.0024698641232864115,1.68
0.0017373393842526625,1.681
0.002035187603613963,1.682
0.002703038270163215,1.683
0.0029484071815386644,1.684
0.002558057025833478,1.685
0.0022348038393696376,1.686
0.0031282805259065277,1.687
0.005955958627634113,1.688
0.010456531563790516,1.689
0.01549325506192746,1.69
0.019702834626784915,1.691
0.022160551233213886,1.692
0.02249522508788375,1.693
0.020632111649337974,1.694
0.016700900622896347,1.695
0.011133487616630225,1.696
0.004657965085561032,1.697
-0.0018948037008272172,1.698
-0.007855091295187343,1.699
-0.012857610772812307,1.7
-0.016728339144720106,1.701
-0.019261484432050117,1.702
-0.020196257606969897,1.703
-0.01950700894676134,1.704
-0.017781665780754307,1.705
-0.016274406498783683,1.706
-0.01647278452323886,1.707
-0.019418784846038383,1.708
-0.02501789956305374,1.709
-0.03156916052228324,1.71
-0.035990546898584386,1.711
-0.03486521960586648,1.712
-0.025699619624083604,1.713
-0.007910130393174262,1.714
0.016453697963568128,1.715
0.042601975560508334,1.716
0.06417029903492542,1.717
0.0753947685114992,1.718
0.07310825231474326,1.719
0.05767154272800593,1.72
0.03269110635123507,1.721
0.00380906597418581,1.722
-0.02297106532068489,1.723
-0.04293004886899154,1.724
-0.053627428034438325,1.725
-0.054755170105746646,1.726
-0.04726812181608404,1.727
-0.03285561244637389,1.728
-0.014092331036637627,1.729
0.005467189987814921,1.73
0.02192886089822048,1.731
0.03226773566474183,1.732
0.03536223537644646,1.733
0.032183647897878226,1.734
0.02509669545705088,1.735
0.016735001445615745,1.736
0.008979264277228546,1.737
0.0025467812115111685,1.738
-0.0027063294009580206,1.739
-0.007253065127163852,1.74
-0.011431999047822224,1.741
-0.015046450027486537,1.742
-0.01728299251572861,1.743
-0.0171318338352883,1.744
-0.01393719290059301,1.745
-0.007604053268648155,1.746
0.0014718072725332524,1.747
0.01231044856727248,1.748
0.023094801078761745,1.749
0.031272522857042954,1.75
0.03422192011230183,1.751
0.030148234576254426,1.752
0.01876659311732581,1.753
0.0014980993707541007,1.754
-0.01886276202366691,1.755
-0.03882927851261011,1.756
-0.05496105253475268,1.757
-0.06443742775673594,1.758
-0.06538930412427826,1.759
-0.05705726642361432,1.76
-0.0399692525458311,1.761
-0.016215094927066208,1.762
0.010461474397190524,1.763
0.035149548499443545,1.764
0.05292893140280296,1.765
0.060372248827402476,1.766
0.05674878122161772,1.767
0.04430779599047237,1.768
0.02743270798200634,1.769
0.01095060198730441,1.77
-0.0015992276294298582,1.771
-0.008775426309291014,1.772
-0.01092692792112418,1.773
-0.009416006252223972,1.774
-0.005967710096300913,1.775
-0.002230787461967397,1.776
0.0006152273153641783,1.777
0.0022086474792212558,1.778
0.002998406871081412,1.779
0.003561224752414296,1.78
0.0035714988565061466,1.781
0.0014797893418893452,1.782
-0.0045088373031946195,1.783
-0.014897857886645027,1.784
-0.028026731963168114,1.785
-0.04032203024569444,1.786
-0.047323764742709974,1.787
-0.0450902180668466,1.788
-0.03169959735378758,1.789
-0.00836334412819697,1.79
0.020391814547410392,1.791
0.047774512721324824,1.792
0.06690135900922278,1.793
0.07330523516830148,1.794
0.06647280912258297,1.795
0.04948738761508078,1.796
0.027082432604282,1.797
0.003567069525508896,1.798
-0.017978792289170344,1.799
-0.03528140584826597,1.8
-0.04640096158600239,1.801
-0.04991299884284128,1.802
-0.04542283161017543,1.803
-0.033932205991184135,1.804
-0.017894069773669263,1.805
-0.0008322868411561168,1.806
0.01347883686889922,1.807
0.021953896681060667,1.808
0.0229180116972397,1.809
0.016565171043692622,1.81
0.0051898449849478384,1.811
-0.007135758795482067,1.812
-0.015849900294557108,1.813
-0.017738516865276114,1.814
-0.012214539420781293,1.815
-0.001391487092395464,1.816
0.01082278528563493,1.817
0.020088727553666745,1.818
0.0230710427287897,1.819
0.018530065844938697,1.82
0.007576788228606098,1.821
-0.006989306238413243,1.822
-0.02176235922480788,1.823
-0.0336081188640196,1.824
-0.04001991424349563,1.825
-0.039151276684322785,1.826
-0.030118243446444558,1.827
-0.013779737629313778,1.828
0.00678633192820763,1.829
0.026963870261441567,1.83
0.042173890288331066,1.831
0.04943356204245934,1.832
0.048191238786589784,1.833
0.04013192894691169,1.834
0.028212028990382325,1.835
0.01551122062347897,1.836
0.004358283123741211,1.837
-0.003984355412058048,1.838
-0.009102207515446069,1.839
-0.011097769987170028,1.84
-0.010432339483992793,1.841
-0.007833545678046222,1.842
-0.004189889787667071,1.843
-0.0005241475175532242,1.844
0.001974155270971378,1.845
0.0020621194175831363,1.846
-0.0012063753632255425,1.847
-0.008084512672271697,1.848
-0.01790175839179579,1.849
-0.029026198453815398,1.85
-0.03895337923706173,1.851
-0.044563354726412104,1.852
-0.042865819915018886,1.853
-0.032444680567111896,1.854
-0.014928895575203266,1.855
0.004783127254725462,1.856
0.020085343923367128,1.857
0.025325119269807406,1.858
0.0183326214732246,1.859
0.0017505325997086078,1.86
-0.01740220170833136,1.861
-0.030043524996791034,1.862
-0.028751056491392552,1.863
-0.011222276324871766,1.864
0.01863698241815714,1.865
0.05245577788505569,1.866
0.0806864601677098,1.867
0.09589801628271495,1.868
0.09488614322164197,1.869
0.07897078578139873,1.87
0.05266938383899537,1.871
0.021630379676776255,1.872
-0.009074872052618815,1.873
-0.035695189954564895,1.874
-0.055731817788379136,1.875
-0.06760974926831113,1.876
-0.07059713029585152,1.877
-0.06506407087451033,1.878
-0.052732789540060845,1.879
-0.036606706838562694,1.88
-0.020465116841946712,1.881
-0.007908724592805122,1.882
-0.0011958994831155858,1.883
-0.0003842651477623881,1.884
-0.0032865049877596887,1.885
-0.006376090512129375,1.886
-0.00630933042570745,1.887
-0.0014571570089966428,1.888
0.007330849683467446,1.889
0.017227564658518577,1.89
0.024827142883367858,1.891
0.027640776803259947,1.892
0.025099187440840273,1.893
0.018653282621376548,1.894
0.010924611907211557,1.895
0.00444554999744151,1.896
0.000761715152273803,1.897
0.0003549227924375287,1.898
0.003121805578883725,1.899
0.00860690410975442,1.9
0.015659116658978678,1.901
0.022172899217042085,1.902
0.02558575858803456,1.903
0.023826222805877022,1.904
0.01594976250926962,1.905
0.002287971734118643,1.906
-0.015503904933621748,1.907
-0.03442989355150213,1.908
-0.05053116633665279,1.909
-0.05977670043444132,1.91
-0.05925360577746132,1.911
-0.048306261789632605,1.912
-0.02900267389369799,1.913
-0.005520007405381505,1.914
0.01718499644612811,1.915
0.03480611302216369,1.916
0.04483993556700065,1.917
0.04708291537598561,1.918
0.04319223426424013,1.919
0.03560191904844921,1.92
0.026497117181513614,1.921
0.01727808480259574,1.922
0.008482120846766653,1.923
4.39126289885939e-05,1.924
-0.008176569320428997,1.925
-0.015902190357438062,1.926
-0.022412474578897765,1.927
-0.026928152941797914,1.928
-0.028860028943956412,1.929
-0.027673620048878175,1.93
-0.02279145615264752,1.931
-0.013984694985975354,1.932
-0.002014070957693963,1.933
0.01111968305452231,1.934
0.022567473283653706,1.935
0.029438144919181994,1.936
0.029688690880209957,1.937
0.02281231881374983,1.938
0.01012764479896566,1.939
-0.005385578894846555,1.94
-0.019674166922188905,1.941
-0.028641548006481388,1.942
-0.029540398157410757,1.943
-0.0221883751926532,1.944
-0.009272255613716146,1.945
0.004542932899652405,1.946
0.014361727339507734,1.947
0.016866133425340633,1.948
0.011409454637685943,1.949
0.00011917901234985534,1.95
-0.012925845173313327,1.951
-0.023133460555083224,1.952
-0.026870708150179577,1.953
-0.022527463123531145,1.954
-0.010976698185194866,1.955
0.00471007427602713,1.956
0.020265648935696698,1.957
0.03161244954094851,1.958
0.03611210191994374,1.959
0.03331205890629348,1.96
0.025036999871689534,1.961
0.014726494154938579,1.962
0.0061513542259411715,1.963
0.0019954479979751734,1.964
0.0029112407274440233,1.965
0.0074867153003977975,1.966
0.013082068291385222,1.967
0.016967056607112636,1.968
0.017185044800396003,1.969
0.013007858631076922,1.97
0.00500258813266901,1.971
-0.0053313532962806515,1.972
-0.016157973087806345,1.973
-0.02578089610208734,1.974
-0.03288282997642597,1.975
-0.03659841743006979,1.976
-0.03651743853810362,1.977
-0.03270800410198931,1.978
-0.025765402854126332,1.979
-0.016847503627609426,1.98
-0.007732841140932873,1.981
-0.0008382707874408099,1.982
0.001200233342042931,1.983
-0.0033368973923960554,1.984
-0.013904981233578589,1.985
-0.027151785250780058,1.986
-0.03772373996746589,1.987
-0.03998436267254956,1.988
-0.029888184343604487,1.989
-0.00666783034064428,1.99
0.026151908069356366,1.991
0.061239466735864126,1.992
0.08952073289247467,1.993
0.10304978273488513,1.994
0.09774126927767825,1.995
0.07486689575975647,1.996
0.04053981436953919,1.997
0.0035554457627602985,1.998
-0.02728809807553916,1.999
-0.04559631296844703,2.0
-0.04911323500329543,2.001
-0.04015669675609968,2.002
-0.024388733739039315,2.003
-0.008596341291128436,2.004
0.0015269498799663538,2.005
0.0030313631296178985,2.006
-0.0036044331816653175,2.007
-0.014954794031916973,2.008
-0.026132334162077685,2.009
-0.03279793792617079,2.01
-0.03283777190030141,2.011
-0.026857128008610263,2.012
-0.01733097119704602,2.013
-0.007031419394261328,2.014
0.002300456989779139,2.015
0.010371154145063257,2.016
0.017883992174668288,2.017
0.025664125130581233,2.018
0.03379839824178765,2.019
0.04116996756255044,2.02
0.045576196855526926,2.021
0.04435493461047231,2.022
0.035337855200226115,2.023
0.017870914486710646,2.024
-0.006387975209373165,2.025
-0.033179281824934646,2.026
-0.05634288760977878,2.027
-0.06972311935792917,2.028
-0.0694876260992901,2.029
-0.05563927403668098,2.03
-0.032116895775643056,2.031
-0.005603099902165813,2.032
0.01651623590507853,2.033
0.02846211816806752,2.034
0.027987505080128004,2.035
0.017222039401203544,2.036
0.0018410942921857415,2.037
-0.011299135016222067,2.038
-0.016800193863228997,2.039
-0.012316004424796136,2.04
0.0011802912413764418,2.041
0.020110800841480547,2.042
0.039559620049494516,2.043
0.05463909406813146,2.044
0.0617080641242384,2.045
0.05927770744830627,2.046
0.048237186664142215,2.047
0.03127675528386477,2.048
0.01193036105182912,2.049
-0.006331591263883907,2.05
-0.02080986610902018,2.051
-0.03000238254571714,2.052
-0.033684783868691066,2.053
-0.03268339276545176,2.054
-0.02850756576177939,2.055
-0.022993567151197616,2.056
-0.01792534200909961,2.057
-0.0145948179271035,2.058
-0.013485035823352849,2.059
-0.014296626893544962,2.06
-0.016262476336440696,2.061
-0.018478716944880895,2.062
-0.02010367607098781,2.063
-0.020480080259307653,2.064
-0.019243678471229347,2.065
-0.016398494949622113,2.066
-0.012301104205271937,2.067
-0.007487796642995781,2.068
-0.0023526401368830848,2.069
0.003106101545377725,2.07
0.009181965536706607,2.071
0.01604428522073277,2.072
0.02340698447037815,2.073
0.030502897937104517,2.074
0.036237389888633884,2.075
0.0394274893782212,2.076
0.03913755714412149,2.077
0.03501844235307369,2.078
0.027506218747515812,2.079
0.017794293188133165,2.08
0.007523925760012852,2.081
-0.0017579893592456373,2.082
-0.009123239464376027,2.083
-0.014469457913446417,2.084
-0.01828277729482034,2.085
-0.021105438137806423,2.086
-0.02309238718405624,2.087
-0.023920154200258132,2.088
-0.02294110699752321,2.089
-0.019393908408232786,2.09
-0.012705686409805725,2.091
-0.0029584319270705445,2.092
0.008668783490529942,2.093
0.01980305653597001,2.094
0.027338483190664103,2.095
0.028438341550327526,2.096
0.021700569061204864,2.097
0.007966757369405412,2.098
-0.009551724842431091,2.099
-0.02601624276912092,2.1
-0.03648009060205001,2.101
-0.03761149069186544,2.102
-0.02890934486269363,2.103
-0.012916207072464892,2.104
0.005620885018767673,2.105
0.021188852888896346,2.106
0.029081803264192994,2.107
0.026782236519123266,2.108
0.0147039376876366,2.109
-0.003984052162133624,2.11
-0.024278065038021844,2.111
-0.04062474673667987,2.112
-0.04831601099053419,2.113
-0.04480837278195005,2.114
-0.030533723840326578,2.115
-0.008705169442069838,2.116
0.015853250419308587,2.117
0.038247762389974155,2.118
0.05474295096673524,2.119
0.06329621449807751,2.12
0.06341593975911562,2.121
0.05565918969766693,2.122
0.041144840195166704,2.123
0.02132874850893905,2.124
-0.0018526507873495223,2.125
-0.025552148220518392,2.126
-0.04571371542880925,2.127
-0.057535609737099196,2.128
-0.05698305012535699,2.129
-0.04271315932272078,2.13
-0.017170139196901198,2.131
0.013825328466387043,2.132
0.0427184750803557,2.133
0.06240643573548879,2.134
0.06823704165499354,2.135
0.05920019503243977,2.136
0.037912931702198956,2.137
0.00947163462745043,2.138
-0.0201455175635307,2.139
-0.04537757007415284,2.14
-0.06191600746213518,2.141
-0.06742518628894449,2.142
-0.06223168052012042,2.143
-0.04933757110914125,2.144
-0.03328400220322699,2.145
-0.018393731985224558,2.146
-0.007302211571302001,2.147
-0.0003785533670326466,2.148
0.0038190487979293283,2.149
0.007393707691094633,2.15
0.011793947741817154,2.151
0.01687464368468708,2.152
0.020853369206050826,2.153
0.021254409516579,2.154
0.016358767891663406,2.155
0.006457855943088826,2.156
-0.005708088894535862,2.157
-0.015597298526368018,2.158
-0.018435470854798724,2.159
-0.011270923561834501,2.16
0.005343045236779375,2.161
0.027127531390627527,2.162
0.04759007453194852,2.163
0.060434398950027085,2.164
0.06178848151069557,2.165
0.051436988031698876,2.166
0.032579039263638636,2.167
0.010323569736598917,2.168
-0.010142599089937724,2.169
-0.024939844370610694,2.17
-0.03235866979617928,2.171
-0.03319615071121933,2.172
-0.030295181418810723,2.173
-0.02728659231742801,2.174
-0.02700525118242536,2.175
-0.030230827284118245,2.176
-0.03532219372031881,2.177
-0.038890563873461535,2.178
-0.03712516774949742,2.179
-0.027310307426424704,2.18
-0.009189815741785299,2.181
0.014424945126194355,2.182
0.038345077130112024,2.183
0.05666643009229125,2.184
0.06460185632068942,2.185
0.05994472346445735,2.186
0.043743687980713306,2.187
0.019925480546967078,2.188
-0.0058785753517526145,2.189
-0.02779289770613941,2.19
-0.04114321505875617,2.191
-0.04364772155012185,2.192
-0.035903854206837185,2.193
-0.020917779588554748,2.194
-0.0030286499806427398,2.195
0.01326641815284238,2.196
0.024355398806726075,2.197
0.02826870485043133,2.198
0.02495875466474283,2.199
0.016034705609461523,2.2
0.0040797126007281505,2.201
-0.008205098217335513,2.202
-0.018734616514402457,2.203
-0.026410255144313798,2.204
-0.031034409392243202,2.205
-0.032814905025653075,2.206
-0.03173398176877374,2.207
-0.027268240049950005,2.208
-0.018789035073954304,2.209
-0.006419669788656661,2.21
0.008328349861725677,2.211
0.022655555154510145,2.212
0.03329759643761154,2.213
0.03764384359799712,2.214
0.03463153955229492,2.215
0.025131618881474537,2.216
0.011738989005068727,2.217
-0.002012989014366883,2.218
-0.012701023702619534,2.219
-0.01786330374092044,2.22
-0.016479903354772233,2.221
-0.00915045957339675,2.222
0.002068795247078418,2.223
0.014248829876249404,2.224
0.024369620472277653,2.225
0.02994717360906106,2.226
0.02950019962453792,2.227
0.022965872968535247,2.228
0.011838768972025475,2.229
-0.0012306700991791368,2.23
-0.013254102423180217,2.231
-0.021800235964209613,2.232
-0.025682078489981146,2.233
-0.025167367030422792,2.234
-0.021562997176614952,2.235
-0.01641737578414301,2.236
-0.010894013860256995,2.237
-0.005685493683890185,2.238
-0.0012784437924686237,2.239
0.0018742718592829857,2.24
0.003425692647850219,2.241
0.003301740327891453,2.242
0.0017828754804180187,2.243
-0.0005649793180292463,2.244
-0.0030552858976453747,2.245
-0.005068931207741434,2.246
-0.006184164381432789,2.247
-0.006190152134916637,2.248
-0.005057772209802245,2.249
-0.0029361647102551696,2.25
-0.0001234422817604737,2.251
0.002992408843376986,2.252
0.005964222614634694,2.253
0.008359886355285362,2.254
0.009942955773337946,2.255
0.010747170192936728,2.256
0.010913264930730839,2.257
0.010582478583798073,2.258
0.009992096828000643,2.259
0.00943724464922863,2.26
0.008986035915511328,2.261
0.00831541894184679,2.262
0.006903989758142237,2.263
0.004442822907572718,2.264
0.0011491632663685502,2.265
-0.00231456800230983,2.266
-0.005287595205115061,2.267
-0.00752572673866451,2.268
-0.009295489517430956,2.269
-0.01116063048968011,2.27
-0.01354421247721409,2.271
-0.01626400911782266,2.272
-0.018412030845883453,2.273
-0.018754065288683598,2.274
-0.016376070318957634,2.275
-0.011164689363751519,2.276
-0.003927786449589195,2.277
0.0038521488184610035,2.278
0.010534721793781466,2.279
0.014929130990257404,2.28
0.016790518375848263,2.281
0.016956237479758204,2.282
0.01693684521840051,2.283
0.01812727687019786,2.284
0.021084682107455784,2.285
0.02520661886618863,2.286
0.028889862678205938,2.287
0.030056458731493627,2.288
0.02674341840206214,2.289
0.017503857152370687,2.29
0.0017115731933540924,2.291
-0.020026212165024274,2.292
-0.04543776649632607,2.293
-0.07052698119096143,2.294
-0.09017586315563177,2.295
-0.09929128522429591,2.296
-0.09423169459831018,2.297
-0.07425127503770827,2.298
-0.042243671932344726,2.299
-0.003955889353279979,2.3
0.03408311144016185,2.301
0.06664093885457983,2.302
0.09074500909426066,2.303
0.1053648452255169,2.304
0.11049232785018384,2.305
0.10636439826611511,2.306
0.09320542567010288,2.307
0.07156266664041264,2.308
0.04285600678471968,2.309
0.009550488738327725,2.31
-0.025090332223848405,2.311
-0.057260359340107175,2.312
-0.0828654624013493,2.313
-0.09817983308789557,2.314
-0.10088847112953304,2.315
-0.09084694291792103,2.316
-0.0700757104405879,2.317
-0.04233155542481291,2.318
-0.012650075573703633,2.319
0.01350986446962089,2.32
0.03176194222684882,2.321
0.040188620764916604,2.322
0.03975138995499575,2.323
0.03359525224472423,2.324
0.025715166449462416,2.325
0.019516279415856392,2.326
0.01671687043270829,2.327
0.017003440600249765,2.328
0.01859430545367735,2.329
0.019390110005169433,2.33
0.018039952616757393,2.331
0.014387143321601889,2.332
0.009273243380870093,2.333
0.003999829297865614,2.334
-0.00025743373086392564,2.335
-0.0028868790998150358,2.336
-0.004023261855041719,2.337
-0.004432411697508657,2.338
-0.005159877323095573,2.339
-0.007121311265406957,2.34
-0.010809643119369721,2.341
-0.016135665151151588,2.342
-0.022357390839371712,2.343
-0.028177567302659346,2.344
-0.03210205788603443,2.345
-0.03295200200192062,2.346
-0.03020991580881654,2.347
-0.023981761268806745,2.348
-0.014772022482028779,2.349
-0.003412980451002041,2.35
0.0088165242020492,2.351
0.020092361343862695,2.352
0.02819086667590251,2.353
0.030984300614416406,2.354
0.02714565940246283,2.355
0.01679396212429195,2.356
0.0018473387984556105,2.357
-0.014176882719325158,2.358
-0.02710083509593397,2.359
-0.033450112339082634,2.36
-0.03148395592316539,2.361
-0.021471609798732125,2.362
-0.0053920949497143445,2.363
0.013661613315216141,2.364
0.03217353729434963,2.365
0.04685393748160842,2.366
0.05523086450433846,2.367
0.05615522490183657,2.368
0.050076648484512556,2.369
0.038917277898477716,2.37
0.02546801293990601,2.371
0.012454641764526308,2.372
0.0016955501338035588,2.373
-0.006194119616173951,2.374
-0.01149120175089088,2.375
-0.0148267640300391,2.376
-0.016848744850475265,2.377
-0.01817978000287477,2.378
-0.01944214834662266,2.379
-0.02115782453491293,2.38
-0.0235465500201905,2.381
-0.026356750224344416,2.382
-0.028875487671022698,2.383
-0.030175304312562715,2.384
-0.0295294258632231,2.385
-0.0268004627664165,2.386
-0.02256685005160024,2.387
-0.017981286634650435,2.388
-0.014489841582900636,2.389
-0.013306185516705146,2.39
-0.014586130891733239,2.391
-0.01680928630963187,2.392
-0.017085860905429948,2.393
-0.012458577832839492,2.394
-0.001439718681394377,2.395
0.015062942406039352,2.396
0.03378972821664524,2.397
0.050172763361576944,2.398
0.0600552208998204,2.399
0.06125512693371788,2.4
0.05420421623747035,2.401
0.04147171683737079,2.402
0.026510145085806357,2.403
0.012351617031606607,2.404
0.0009239272855422967,2.405
-0.007004862454831966,2.406
-0.011661296530932083,2.407
-0.013991157644784192,2.408
-0.015173763865723824,2.409
-0.016064464163246285,2.41
-0.01683226067319596,2.411
-0.01696988614793826,2.412
-0.015703674409781276,2.413
-0.012570355856318702,2.414
-0.007778542513347456,2.415
-0.002164243705452784,2.416
0.0031486397099665876,2.417
0.007150526070819634,2.418
0.009235412195133932,2.419
0.009294795129788376,2.42
0.007577504320987471,2.421
0.004346519660574441,2.422
-0.0004560113268233482,2.423
-0.007226866051694587,2.424
-0.016283926501202726,2.425
-0.027196801461757465,2.426
-0.03827267223222212,2.427
-0.046656712819400994,2.428
-0.049181577690697934,2.429
-0.04355916418751727,2.43
-0.02931572672833729,2.431
-0.008126155203128038,2.432
0.016498374464498883,2.433
0.04006771712830406,2.434
0.058291785192432846,2.435
0.06818136837322845,2.436
0.06864840290322295,2.437
0.06048889997909351,2.438
0.045973921144344634,2.439
0.028262039310776234,2.44
0.010662136024784427,2.441
-0.004121907444350071,2.442
-0.014483736456500838,2.443
-0.020038002940342362,2.444
-0.02146260484550964,2.445
-0.020163475602672606,2.446
-0.017831959685488095,2.447
-0.015994650391844546,2.448
-0.015719093169298343,2.449
-0.017555076771626526,2.45
-0.021595656875615113,2.451
-0.02748694806607932,2.452
-0.03441805001735127,2.453
-0.041264759533233185,2.454
-0.04678959780854633,2.455
-0.049599613152089994,2.456
-0.0479454254169015,2.457
-0.03984762512333599,2.458
-0.023872164952405607,2.459
-0.0002563064117393057,2.46
0.028427807448920688,2.461
0.057614468179790594,2.462
0.08191585506954249,2.463
0.09664345137424053,2.464
0.09918749159896847,2.465
0.08970722476792593,2.466
0.07080887477221239,2.467
0.04647721995206604,2.468
0.020860760474070393,2.469
-0.0026334692464199203,2.47
-0.021757241439011525,2.471
-0.0354289414663988,2.472
-0.043518657220199014,2.473
-0.04655664733314642,2.474
-0.04547893653437174,2.475
-0.04147254307405461,2.476
-0.03588162420571997,2.477
-0.030053956194398292,2.478
-0.025054560486225202,2.479
-0.0213606555865221,2.48
-0.018755415785972552,2.481
-0.016485901537796634,2.482
-0.013565149690389591,2.483
-0.00913105478852066,2.484
-0.0028213808166403695,2.485
0.004995334752306287,2.486
0.013296228341682108,2.487
0.020717856042487656,2.488
0.02594956633685022,2.489
0.02815947164973345,2.49
0.02731377980501364,2.491
0.02410384315948562,2.492
0.019471762286939167,2.493
0.014134077368281647,2.494
0.008434421640661034,2.495
0.00249770568996055,2.496
-0.003516917450258417,2.497
-0.00925206617161093,2.498
-0.014143043386166875,2.499
-0.01749870407969439,2.5
-0.0186251250860722,2.501
-0.017034882995222673,2.502
-0.012734953673357263,2.503
-0.006442310077825853,2.504
0.0004143103387635671,2.505
0.0059317572339363635,2.506
0.008191989948761714,2.507
0.005873199262724486,2.508
-0.0011741878997414078,2.509
-0.011590362948258595,2.51
-0.022535293397263116,2.511
-0.03019254666947237,2.512
-0.03078817870478104,2.513
-0.02194770724385578,2.514
-0.003921350190044649,2.515
0.019975458715875093,2.516
0.044091297457631046,2.517
0.06213525119573135,2.518
0.06919634379297142,2.519
0.06331526415594299,2.52
0.046087870367441254,2.521
0.022099421361445565,2.522
-0.0027650308726415275,2.523
-0.02343356072064342,2.524
-0.03699796993046748,2.525
-0.042846144019895,2.526
-0.04208277325171564,2.527
-0.03672024662928658,2.528
-0.028895717463344787,2.529
-0.020425556961924354,2.53
-0.012726578466716439,2.531
-0.006797602393173114,2.532
-0.003113790872168838,2.533
-0.0015845691038772318,2.534
-0.001711649512039937,2.535
-0.0028419644875135905,2.536
-0.00432511276455886,2.537
-0.005509294471496455,2.538
-0.005631440654218702,2.539
-0.003811930789588208,2.54
0.0006279374239153034,2.541
0.007693626339682949,2.542
0.016502540198834136,2.543
0.02545173663101443,2.544
0.03258983825247949,2.545
0.036094275919912884,2.546
0.034878940047715364,2.547
0.02911701371962087,2.548
0.020269368536049798,2.549
0.010500511672706925,2.55
0.0017513658942379176,2.551
-0.005033062565920596,2.552
-0.010045932558107016,2.553
-0.014129598501559445,2.554
-0.018101127699941606,2.555
-0.022255315913755493,2.556
-0.026148537599069037,2.557
-0.02870547705583221,2.558
-0.028653765642170977,2.559
-0.02513517509532417,2.56
-0.018214726902143517,2.561
-0.009013421779843758,2.562
0.0006337710608867947,2.563
0.008810674758707861,2.564
0.014132016795461826,2.565
0.016123544983051116,2.566
0.015287890538065806,2.567
0.012829959907486721,2.568
0.010083331721587659,2.569
0.007862806921725174,2.57
0.00616183147243588,2.571
0.004440263457716982,2.572
0.002221429422203799,2.573
-0.0004989818711354856,2.574
-0.003221857033729346,2.575
-0.005186185925709826,2.576
-0.00574027914122789,2.577
-0.004675296468536621,2.578
-0.0023500942598382465,2.579
0.0004194542620416399,2.58
0.002631009715619925,2.581
0.003427139893406481,2.582
0.0023764442530430662,2.583
-0.00034290308173854115,2.584
-0.003906955536331396,2.585
-0.007076920802182044,2.586
-0.008692980179579647,2.587
-0.008161374959735446,2.588
-0.005605812869614433,2.589
-0.0016599920030259448,2.59
0.002806774556840046,2.591
0.006831570585779154,2.592
0.009466118821930042,2.593
0.010028093771240943,2.594
0.008478640227692683,2.595
0.005653670201318411,2.596
0.0030355535012072743,2.597
0.0020707212620537934,2.598
0.0034385954413315247,2.599
0.006705962116613428,2.6
0.010480258697481077,2.601
0.01291176666554293,2.602
0.012352473013756103,2.603
0.007986161313762343,2.604
0.00022411997082555572,2.605
-0.009283957877743701,2.606
-0.018082104672699162,2.607
-0.023714252164138305,2.608
-0.024599222319128512,2.609
-0.020579305697585325,2.61
-0.012952912732131757,2.611
-0.0040478956791996585,2.612
0.003478556342498519,2.613
0.007416746342681913,2.614
0.006673495360020348,2.615
0.0016401758749167738,2.616
-0.005863638659260116,2.617
-0.013127886597733451,2.618
-0.017502923345006607,2.619
-0.017330862942915963,2.62
-0.012292298734617903,2.621
-0.0031605328494438614,2.622
0.008525813632825818,2.623
0.02065821341095293,2.624
0.030857728968482975,2.625
0.036990620467978026,2.626
0.0377559288591932,2.627
0.03316381675125299,2.628
0.024646210227937625,2.629
0.014530852871432387,2.63
0.005022860453206769,2.631
-0.0026754434911417423,2.632
-0.008534020597667571,2.633
-0.01318390261000324,2.634
-0.01728863973878393,2.635
-0.021205727979181604,2.636
-0.024871250973933896,2.637
-0.027794917601872273,2.638
-0.029178697926193622,2.639
-0.028122754186307067,2.64
-0.023889760046288715,2.641
-0.01623337181650698,2.642
-0.005698821356745556,2.643
0.006301796028607102,2.644
0.0177524847938812,2.645
0.026534240274185408,2.646
0.03098625011833822,2.647
0.030365882719782262,2.648
0.02508139969733266,2.649
0.016646991050537435,2.65
0.007262596566528177,2.651
-0.0009801265148720636,2.652
-0.006820989498997481,2.653
-0.009994229034799492,2.654
-0.01091380578153465,2.655
-0.010272538457618404,2.656
-0.008762824137249565,2.657
-0.006938815413830239,2.658
-0.005174221755268272,2.659
-0.003675041683338628,2.66
-0.002517629879581384,2.661
-0.0016703871555024086,2.662
-0.0010121027736488392,2.663
-0.0004043899310999334,2.664
0.00018939642721804188,2.665
0.0006354251590339577,2.666
0.000710130366975342,2.667
0.0002919150248109762,2.668
-0.000524655939612998,2.669
-0.0014983289054751095,2.67
-0.0023742281162693656,2.671
-0.0029470103331781915,2.672
-0.0030906575649853724,2.673
-0.0027945466134881546,2.674
-0.0021421647607755,2.675
-0.0012365834977889375,2.676
-0.00015899558998409935,2.677
0.0010461222345539499,2.678
0.002400840576872265,2.679
0.003948302428450697,2.68
0.005581742444263458,2.681
0.006960629564027011,2.682
0.007697168744925076,2.683
0.007613100358465243,2.684
0.006776052867388041,2.685
0.005359595167228225,2.686
0.0035464883081533036,2.687
0.0015490664456210962,2.688
-0.000337702877351814,2.689
-0.001767007717226246,2.69
-0.0024733858113427337,2.691
-0.0023985172772061684,2.692
-0.0016987346357955511,2.693
-0.0006468398408475408,2.694
0.000466179217860655,2.695
0.001363159996867686,2.696
0.0017816833437917776,2.697
0.0015169395420851527,2.698
0.0005077253404760121,2.699
-0.0011068874457843508,2.7
-0.0030082213144224184,2.701
-0.004789583950004925,2.702
-0.006074807761876557,2.703
-0.006603331271021647,2.704
-0.006260484043250684,2.705
-0.0050861800263855275,2.706
-0.0032842634768947975,2.707
-0.0012036453144404823,2.708
0.0007345369408995646,2.709
0.0021567796297217393,2.71
0.0028668445913263628,2.711
0.0028887535011724104,2.712
0.002380839488039209,2.713
0.0015309818682301714,2.714
0.000513716446610273,2.715
-0.000524058508326418,2.716
-0.0014737478101369316,2.717
-0.0022599057902987635,2.718
-0.0028059570249086944,2.719
-0.0030027785543910233,2.72
-0.0027282194091741707,2.721
-0.0018990808900494077,2.722
-0.0005172900922842502,2.723
0.0013017149979184799,2.724
0.003335920105304785,2.725
0.005308973953318121,2.726
0.006956623686576344,2.727
0.00806641374156144,2.728
0.008493412442234175,2.729
0.008173447203203706,2.73
0.0071379848822356665,2.731
0.00552414660587001,2.732
0.003552519687603734,2.733
0.0014538976892188903,2.734
-0.0006221688367761026,2.735
-0.002667687460573135,2.736
-0.004813229905329214,2.737
-0.00725335846855548,2.738
-0.010115323065251841,2.739
-0.013282331654906328,2.74
-0.01623666978133243,2.741
-0.01808421148817565,2.742
-0.017824431821505986,2.743
-0.014751889131839453,2.744
-0.008857033893319648,2.745
-0.0010186534700520737,2.746
0.007243494920352513,2.747
0.014329187585318832,2.748
0.01903876876859171,2.749
0.020787857866458145,2.75
0.01962117639608268,2.751
0.016119097870450832,2.752
0.011237465535196299,2.753
0.0060759317257456395,2.754
0.001616669309669362,2.755
-0.0014532011379082598,2.756
-0.0028474282831745306,2.757
-0.0027830122944877086,2.758
-0.0019352653510880378,2.759
-0.0011066877976179021,2.76
-0.0008068157449650673,2.761
-0.0010634062625915314,2.762
-0.0015351106491419198,2.763
-0.0017728018553817724,2.764
-0.00148257062515748,2.765
-0.0007004681541961836,2.766
0.0001965472032172399,2.767
0.0006672540902143115,2.768
0.0002869221460841062,2.769
-0.001039475625619037,2.77
-0.0030767111252134947,2.771
-0.0054456896031669045,2.772
-0.007805248755126551,2.773
-0.009876725863322923,2.774
-0.011369420357078813,2.775
-0.011956636703781491,2.776
-0.011331480308754313,2.777
-0.009295245175173718,2.778
-0.005857984299212098,2.779
-0.001319948417718948,2.78
0.0037209708798555618,2.781
0.008462773660284788,2.782
0.012076104604743303,2.783
0.013929465802783562,2.784
0.013800866339572563,2.785
0.011963661648693719,2.786
0.009068376921959588,2.787
0.0058791898890463165,2.788
0.0030144973089046728,2.789
0.0008070519353393998,2.79
-0.0006994442481559457,2.791
-0.0016921321501764716,2.792
-0.0025230884654505697,2.793
-0.0035440017668158397,2.794
-0.004802872641590332,2.795
-0.005903507389355701,2.796
-0.006305542104828981,2.797
-0.005761088675475067,2.798
-0.004398884579155509,2.799
-0.0025079998013613656,2.8
-0.00037588624476803296,2.801
0.0017239616639745893,2.802
0.003511125556689352,2.803
0.004723137561863994,2.804
0.005167945014806826,2.805
0.004758066727105966,2.806
0.0035314862329410683,2.807
0.0016859133189912707,2.808
-0.0004138279392126293,2.809
-0.0023291286216485757,2.81
-0.0036957610611386385,2.811
-0.004303839687491513,2.812
-0.004094821314987151,2.813
-0.0031373040021171607,2.814
-0.001626256352420063,2.815
9.813601535969477e-05,2.816
0.0016109498170000039,2.817
0.002588897507524166,2.818
0.0029697137503850806,2.819
0.0029315745613546942,2.82
0.0027299052222376843,2.821
0.0025291600606933734,2.822
0.0023304091403593503,2.823
0.0020205130819925332,2.824
0.0014908447468856092,2.825
0.0007191240533870375,2.826
-0.00023640620155296693,2.827
-0.0012760397665717957,2.828
-0.0022776443189116325,2.829
-0.003094561629438896,2.83
-0.0035476524501781193,2.831
-0.003441274097706051,2.832
-0.0026458333653043304,2.833
-0.0012331769151985833,2.834
0.00046666283931810445,2.835
0.0019908847017593243,2.836
0.0029520114459477033,2.837
0.003164525070269194,2.838
0.002662085732457815,2.839
0.0016472076890004855,2.84
0.00038140243638147195,2.841
-0.0009283335281636692,2.842
-0.0021381390953752978,2.843
-0.0030930235605121756,2.844
-0.003617686339293311,2.845
-0.0036179358979930095,2.846
-0.003175352898887828,2.847
-0.0025109952268172865,2.848
-0.0018206828034010528,2.849
-0.0011387062094632128,2.85
-0.00039804959190115313,2.851
0.00040726401474302045,2.852
0.0011928289149191955,2.853
0.0018548064561012254,2.854
0.0023038510714497636,2.855
0.0025065176058783967,2.856
0.0025321606480314023,2.857
0.0025147957806649877,2.858
0.002568801098322286,2.859
0.002743960853928233,2.86
0.003016243086196786,2.861
0.003291200613970332,2.862
0.0034353426241338944,2.863
0.0033340678540141676,2.864
0.0029189873241026003,2.865
0.0021469921131832526,2.866
0.0010031560620058202,2.867
-0.0004517332559408662,2.868
-0.002072337958275314,2.869
-0.0036809160889222253,2.87
-0.005089242005787537,2.871
-0.006075878852641636,2.872
-0.006415632973865018,2.873
-0.005969372094709838,2.874
-0.004739231592814337,2.875
-0.0028620512251575116,2.876
-0.0005957803345609052,2.877
0.0017172770375068866,2.878
0.0037597642130113387,2.879
0.005316535448279153,2.88
0.006203623943287374,2.881
0.006178907930515445,2.882
0.005031492922429658,2.883
0.002771416883575062,2.884
-0.00030801636475863696,2.885
-0.0036953643126917666,2.886
-0.006719131388600536,2.887
-0.008629168246290978,2.888
-0.008780769218612608,2.889
-0.006862328303569851,2.89
-0.003077868308376895,2.891
0.0017615444659172812,2.892
0.00636116655796262,2.893
0.009382908462468762,2.894
0.009992389434764933,2.895
0.008145897859080917,2.896
0.0045193097793897975,2.897
0.00022092255601186252,2.898
-0.0035929739210224785,2.899
-0.0060810640152292915,2.9
-0.006881148973032104,2.901
-0.006043061382046951,2.902
-0.003920065407201185,2.903
-0.0010800779636149544,2.904
0.0019145062208237237,2.905
0.004742726108478299,2.906
0.007246696598867411,2.907
0.009126172098595047,2.908
0.009849295531228949,2.909
0.008942607908434602,2.91
0.006342792324692851,2.911
0.0024483878724359262,2.912
-0.00208330405365062,2.913
-0.00655154977833652,2.914
-0.010374330821665721,2.915
-0.013172541434337782,2.916
-0.01469976256016317,2.917
-0.014713343237533328,2.918
-0.012993213583079075,2.919
-0.009521933685027576,2.92
-0.0046521207228413025,2.921
0.0008867765731913381,2.922
0.006149289041980622,2.923
0.01021948522447192,2.924
0.012491702671597889,2.925
0.012893520391128723,2.926
0.011876960902022756,2.927
0.010159392159415932,2.928
0.008385318018052102,2.929
0.00687179307254376,2.93
0.005537118002515817,2.931
0.0040404308638235,2.932
0.0020557881027878267,2.933
-0.0004954517189950929,2.934
-0.0034217992572445825,2.935
-0.0064007895725936605,2.936
-0.00907846405447656,2.937
-0.011053206842131595,2.938
-0.011848641564859985,2.939
-0.010990775944906099,2.94
-0.008199034662599768,2.941
-0.003637569934712332,2.942
0.0018961233379427213,2.943
0.0070675753092130245,2.944
0.01048211114099702,2.945
0.011229051548256442,2.946
0.009072814083928928,2.947
0.00436860863298156,2.948
-0.001973816121044031,2.949
-0.008530147659933053,2.95
-0.013622254424689945,2.951
-0.01576304329766319,2.952
-0.014090653329358709,2.953
-0.008682537143030078,2.954
-0.0006881258436015715,2.955
0.007904869161167173,2.956
0.014951596000915559,2.957
0.018906512135993557,2.958
0.019165593434737383,2.959
0.015961178727447765,2.96
0.010101275319738737,2.961
0.002745256558043604,2.962
-0.00476237428241243,2.963
-0.011062436091977395,2.964
-0.015007703192971329,2.965
-0.01590689897646091,2.966
-0.013694216147297027,2.967
-0.008957176211853296,2.968
-0.002804497902944823,2.969
0.0033616470206264044,2.97
0.008098091322219196,2.971
0.010269250183707364,2.972
0.009477959545866195,2.973
0.006251095684688131,2.974
0.001762426170455759,2.975
-0.0026543197569606405,2.976
-0.005851828445410321,2.977
-0.007041580028581364,2.978
-0.005945740943869997,2.979
-0.002913071386428832,2.98
0.001212238677458097,2.981
0.005463264146133299,2.982
0.009031222729197583,2.983
0.011294421097799033,2.984
0.01178931619550875,2.985
0.01029123908321975,2.986
0.006964383944016913,2.987
0.002423188377411142,2.988
-0.0024054055149155358,2.989
-0.006528625380385021,2.99
-0.009114749820678246,2.991
-0.009722770577704947,2.992
-0.008541666009620925,2.993
-0.0064448248116531544,2.994
-0.004650554268300338,2.995
-0.004126482246371196,2.996
-0.005147522382904484,2.997
-0.007235967390054698,2.998
-0.00937844890819984,2.999
-0.01033391721491553,3.0
-0.008999243042575602,3.001
-0.004854735038810541,3.002
0.0016854698902755254,3.003
0.009293320122756344,3.004
0.016146404229280004,3.005
0.020532453948823186,3.006
0.021389556089941565,3.007
0.018545118323115478,3.008
0.012597160907669614,3.009
0.0047083124572296665,3.01
-0.0035186337874372657,3.011
-0.010320204169520607,3.012
-0.014326833692224011,3.013
-0.015044368558940018,3.014
-0.012894910028316834,3.015
-0.008887491150900121,3.016
-0.004246645118937812,3.017
-0.00012785205423318754,3.018
0.0026484822197307446,3.019
0.0037946754302836867,3.02
0.0035404674601455174,3.021
0.00243743317008382,3.022
0.0011505754114775383,3.023
0.0002776414859919363,3.024
0.00015586130379546752,3.025
0.0007331950377713729,3.026
0.0016319813131920593,3.027
0.0023673522020441844,3.028
0.0025632151907656617,3.029
0.0021155438575811572,3.03
0.0012636144212561688,3.031
0.00044241480517321263,3.032
-3.216373568025483e-05,3.033
-0.00018397605361166405,3.034
-0.00031478937494634513,3.035
-0.0006821205045025153,3.036
-0.0011827706874235496,3.037
-0.0013640276155130265,3.038
-0.0007475270238507027,3.039
0.0008394301890430783,3.04
0.003116539283277544,3.041
0.005389265643504247,3.042
0.006775849073452434,3.043
0.006608672364102235,3.044
0.004794249009649662,3.045
0.001841580362352875,3.046
-0.001441618332554786,3.047
-0.0043109794188506715,3.048
-0.006285238649983636,3.049
-0.0071605541317918695,3.05
-0.00693498306236007,3.051
-0.00574110923979175,3.052
-0.0038199432495926344,3.053
-0.001518114552619249,3.054
0.0007097357018019676,3.055
0.0023026588994263255,3.056
0.0026465426420483286,3.057
0.0012739705596408425,3.058
-0.00181289186570446,3.059
-0.005943660128536883,3.06
-0.009898960610894686,3.061
-0.012277820318303842,3.062
-0.011960864466948226,3.063
-0.008548862281194081,3.064
-0.0026393965504132055,3.065
0.004227091678103219,3.066
0.010106960720224736,3.067
0.01353128307683289,3.068
0.014135268768384956,3.069
0.012611918797215755,3.07
0.010201249247406207,3.071
0.00814193882629316,3.072
0.007262001284754621,3.073
0.007716308444113587,3.074
0.008900885150749547,3.075
0.00964057005552639,3.076
0.008703404357534248,3.077
0.0054092331779829,3.078
-0.00011268437110932585,3.079
-0.0071203200738613305,3.08
-0.01456450476397943,3.081
-0.021256189203470516,3.082
-0.02594621963002533,3.083
-0.02745193363972595,3.084
-0.024912926853773176,3.085
-0.0181297934906439,3.086
-0.007809788039740816,3.087
0.004426530736558089,3.088
0.01628410869168027,3.089
0.025276181678290266,3.09
0.029475648030301116,3.091
0.028277678936697397,3.092
0.02261230095522036,3.093
0.014389861878572302,3.094
0.005646107595761406,3.095
-0.002053570399663303,3.096
-0.007815421369281345,3.097
-0.011360111133919843,3.098
-0.01286316189969344,3.099
-0.01278990276896942,3.1
-0.011745062329289119,3.101
-0.010323915480979728,3.102
-0.008972188226568038,3.103
-0.007873952663696391,3.104
-0.006896952605084088,3.105
-0.005656202351802976,3.106
-0.0037128271037207556,3.107
-0.0008112565269038752,3.108
0.0029510985772987514,3.109
0.007054943435057092,3.11
0.010645625913451086,3.111
0.012834357687897573,3.112
0.013085808889256706,3.113
0.01141725928579785,3.114
0.008289805249957118,3.115
0.00434060324408096,3.116
0.00017251432941893066,3.117
-0.0037167502579922265,3.118
-0.006919328794636907,3.119
-0.009101302790637368,3.12
-0.010013190021922538,3.121
-0.009501347765776432,3.122
-0.007532951798482012,3.123
-0.004269042020283419,3.124
-0.0001595958066148765,3.125
0.004007623940932412,3.126
0.007213108870219855,3.127
0.008562187187250173,3.128
0.007742066356301838,3.129
0.005201707930115433,3.13
0.001889592035656881,3.131
-0.0012067570582002677,3.132
-0.0034087527409121573,3.133
-0.004478806155659275,3.134
-0.004561143927857879,3.135
-0.004002700867246276,3.136
-0.0031546671929276117,3.137
-0.0022175758081045,3.138
-0.0011737719262351796,3.139
0.00015000380666286273,3.14
0.001933838385601352,3.141
0.004197374196468581,3.142
0.006653672668370617,3.143
0.008709210042955953,3.144
0.009691219694902853,3.145
0.009136745858851941,3.146
0.006921803296560375,3.147
0.0032445158758360043,3.148
-0.0013815722774735584,3.149
-0.006131695469662361,3.15
-0.010012401306930008,3.151
-0.012145254644526827,3.152
-0.012047198596679907,3.153
-0.00977450502106493,3.154
-0.005882634165819764,3.155
-0.001278168639634321,3.156
0.002925481428002032,3.157
0.005595472902449915,3.158
0.005929133163240176,3.159
0.003859629497991391,3.16
0.0002170931572984916,3.161
-0.0035266049891727754,3.162
-0.0058374498251212974,3.163
-0.005766206498374577,3.164
-0.00335239554358749,3.165
0.0004348057841940912,3.166
0.004179236351431612,3.167
0.006633104967874233,3.168
0.007145708460579169,3.169
0.005756292599228644,3.17
0.0030025338793778496,3.171
-0.0003679523429682774,3.172
-0.0036052989084447104,3.173
-0.006051805163050053,3.174
-0.007194630512032318,3.175
-0.006727120619455261,3.176
-0.004606508412288241,3.177
-0.0010825354947331496,3.178
0.003300908374770546,3.179
0.007732456927458765,3.18
0.011247562679947948,3.181
0.012998728672786139,3.182
0.01258637929676036,3.183
0.010202615986730322,3.184
0.006479888345194952,3.185
0.0022004633154657405,3.186
-0.0019292090137162502,3.187
-0.005382685197401529,3.188
-0.007846379029531026,3.189
-0.009199999211499272,3.19
-0.009439061868811377,3.191
-0.008606602111281511,3.192
-0.006803834975508309,3.193
-0.004257376501316523,3.194
-0.0013778621773605083,3.195
0.0012627162148154771,3.196
0.003083117935296474,3.197
0.0037299361006321104,3.198
0.0032549905455370553,3.199
0.0020869951997499695,3.2
0.0008067851955565401,3.201
-0.00011321426682245916,3.202
-0.0004581468920737393,3.203
-0.0002644292735826181,3.204
0.0002704447006346456,3.205
0.0008535161512494872,3.206
0.0011344514689759788,3.207
0.0007823936738481516,3.208
-0.00039407684300137144,3.209
-0.0023387577358457397,3.21
-0.004707910141498485,3.211
-0.006930327132296955,3.212
-0.008354026773009945,3.213
-0.008416960163330711,3.214
-0.006779310882778938,3.215
-0.0034178950582553465,3.216
0.0012924952681530174,3.217
0.006547132700392148,3.218
0.011217580993837895,3.219
0.014163094433726969,3.22
0.014679478328961382,3.221
0.012809798977861294,3.222
0.009259034613973344,3.223
0.005004404561050946,3.224
0.000923489445057816,3.225
-0.002376341610603264,3.226
-0.004557892398610849,3.227
-0.005499791982750369,3.228
-0.0052747181075886215,3.229
-0.0041484657267868395,3.23
-0.0025321355230846563,3.231
-0.0008690699553327695,3.232
0.0004919069157426287,3.233
0.001369910714121299,3.234
0.0017420968133992063,3.235
0.0016868788117971945,3.236
0.0013350415534457245,3.237
0.0008373061263646698,3.238
0.0003203587226924873,3.239
-0.00019238168052249517,3.24
-0.0008549989072985931,3.241
-0.0019620206504169847,3.242
-0.0037424765185041396,3.243
-0.006096822262763817,3.244
-0.008526726255219401,3.245
-0.010361979498243423,3.246
-0.011080706119529613,3.247
-0.010496861592198982,3.248
-0.008780701004892116,3.249
-0.006344062796200735,3.25
-0.0036212489436977828,3.251
-0.0008578293688591334,3.252
