VaMe,time
-0.004919150385662507,0.001
-0.003295072227520809,0.002
-0.0016747400657983007,0.003
-5.9618720903802146e-05,0.004
0.0015488754962794911,0.005
0.0031493883998316577,0.006
0.00474063687110631,0.007
0.006321413750323683,0.008
0.0078905901223702,0.009
0.009447116503486348,0.01
0.010990023689687626,0.011
0.012518422743085117,0.012
0.014031502245142597,0.013
0.015528520110436797,0.014
0.017008787416974824,0.015
0.018471646338480543,0.016
0.019916454800804423,0.017
0.021342592223639423,0.018
0.02274948442705066,0.019
0.0241366320354065,0.02
0.025503629809128223,0.021
0.026850172437875453,0.022
0.028176046413046572,0.023
0.029481109222709384,0.024
0.030765259665214078,0.025
0.03202841124476175,0.026
0.033270487061339435,0.027
0.03449144172330914,0.028
0.03569129444056196,0.029
0.03687015451899395,0.03
0.03802823048449343,0.031
0.03916582006882087,0.032
0.04028328106227978,0.033
0.041380993711224494,0.034
0.04245934214656929,0.035
0.04351873231511415,0.036
0.044559628487884605,0.037
0.045582580649398206,0.038
0.04658823296925803,0.039
0.047577315465740955,0.04
0.04855062353692981,0.041
0.049508990213304405,0.042
0.050453256058692754,0.043
0.05138424529970665,0.044
0.052302759233446745,0.045
0.05320958868883992,0.046
0.054105534335671446,0.047
0.054991423240240755,0.048
0.05586811701853632,0.049
0.05673651043958632,0.05
0.05759752070617702,0.051
0.05845206946638824,0.052
0.059301061511210375,0.053
0.06014536536873105,0.054
0.060985800707840904,0.055
0.061823135162959786,0.056
0.06265808951234135,0.057
0.06349134662545568,0.058
0.06432355779432287,0.059
0.06515534116577357,0.06
0.06598727427414146,0.061
0.06681989323450638,0.062
0.0676537083525783,0.063
0.06848922986693752,0.064
0.06932699109374436,0.065
0.07016756195975565,0.066
0.07101155056644512,0.067
0.07185959256566085,0.068
0.0727123302407708,0.069
0.07357038617168243,0.07
0.07443434145253482,0.071
0.07530472945696648,0.072
0.07618204568823739,0.073
0.0770667630182075,0.074
0.07795934297160906,0.075
0.07886024050926542,0.076
0.079769902629407,0.077
0.08068876178922867,0.078
0.0816172259091817,0.079
0.08255566725615741,0.08
0.0835044124715118,0.081
0.08446373528701562,0.082
0.08543385222977885,0.083
0.08641492017925761,0.084
0.08740703333822762,0.085
0.0884102181793181,0.086
0.0894244304589905,0.087
0.0904495619219441,0.088
0.09148545791580566,0.089
0.09253193815968234,0.09
0.0935888116492547,0.091
0.09465588068003775,0.092
0.09573293305349322,0.093
0.09681972474989498,0.094
0.09791595802312347,0.095
0.09902126275855191,0.096
0.10013518873443689,0.097
0.10125720860752928,0.098
0.1023867235598958,0.099
0.10352306519956667,0.1
0.10466549308356855,0.101
0.1058131897912048,0.102
0.10696525599197806,0.103
0.10812070815084779,0.104
0.10927848118701958,0.105
0.11043743734359222,0.106
0.11159638075319105,0.107
0.11275407513481135,0.108
0.11390926040073393,0.109
0.11506066315530111,0.11
0.11620699624458336,0.111
0.11734694369672569,0.112
0.11847913506744462,0.113
0.11960212924023816,0.114
0.12071442885199449,0.115
0.12181452163084484,0.116
0.12290092676195764,0.117
0.12397222970845624,0.118
0.1250270986483629,0.119
0.1260642803352439,0.12
0.127082576517308,0.121
0.12808080509552985,0.122
0.12905775333420413,0.123
0.13001213780943205,0.124
0.1309425919297595,0.125
0.1318476888644507,0.126
0.13272598567694713,0.127
0.13357607189276036,0.128
0.1343966150612598,0.129
0.13518639762186885,0.13
0.13594433674321477,0.131
0.13666947824251854,0.132
0.1373609579256414,0.133
0.13801793730980655,0.134
0.1386395521116451,0.135
0.13922492188629515,0.136
0.13977322151754715,0.137
0.14028376523705785,0.138
0.14075605877511183,0.139
0.14118980457364771,0.14
0.14158486229624315,0.141
0.14194117463925696,0.142
0.14225868255962992,0.143
0.14253727636706953,0.144
0.142776816860757,0.145
0.14297720743874623,0.146
0.14313847315440495,0.147
0.14326082047975178,0.148
0.14334466649344674,0.149
0.14339062910430153,0.15
0.14339947325747618,0.151
0.14337202537972446,0.152
0.14330910601796684,0.153
0.14321153886645602,0.154
0.1430802328559824,0.155
0.14291627502191678,0.156
0.1427209817854736,0.157
0.14249589388910258,0.158
0.14224272226466056,0.159
0.1419632622855657,0.16
0.14165930297999063,0.161
0.14133256570670905,0.162
0.14098469146902648,0.163
0.14061725879593862,0.164
0.14023180056488146,0.165
0.1398298072179732,0.166
0.13941272065557267,0.167
0.1389819260424971,0.168
0.1385387469239107,0.169
0.13808444657673954,0.17
0.13762023607615476,0.171
0.13714728754176506,0.172
0.1366667496014077,0.173
0.1361797612812424,0.174
0.13568746025851341,0.175
0.13519098164476065,0.176
0.13469144416222964,0.177
0.1341899227899537,0.178
0.13368741804221201,0.179
0.13318484771356656,0.18
0.13268307632104445,0.181
0.13218296419177072,0.182
0.13168540780755703,0.183
0.13119135725581688,0.184
0.13070180761800448,0.185
0.13021776646676636,0.186
0.12974020789516524,0.187
0.12927003613904503,0.188
0.1288080809263397,0.189
0.1283551203114287,0.19
0.12791190515896556,0.191
0.1274791660612572,0.192
0.1270575989595847,0.193
0.12664783746407526,0.194
0.12625043228410893,0.195
0.12586585571217598,0.196
0.12549452509729514,0.197
0.1251368244117086,0.198
0.1247931113925662,0.199
0.12446370964103712,0.2
0.124148889778185,0.201
0.12384884588985624,0.202
0.12356367679972341,0.203
0.12329338158506606,0.204
0.12303786948379043,0.205
0.1227969753250007,0.206
0.12257047351489116,0.207
0.12235808965559462,0.208
0.12215951104452942,0.209
0.12197439703493242,0.21
0.12180238931318998,0.211
0.12164312043754413,0.212
0.12149621687930649,0.213
0.12136129135337372,0.214
0.12123792102654468,0.215
0.12112562124181557,0.216
0.12102384218820436,0.217
0.12093200522691895,0.218
0.12084956069515385,0.219
0.12077603716859497,0.22
0.12071106580510113,0.221
0.12065437509663046,0.222
0.1206057580617794,0.223
0.12056501971814616,0.224
0.12053192376356396,0.225
0.1205061701723252,0.226
0.12048741929756902,0.227
0.1204753410702935,0.228
0.12046965984600065,0.229
0.12047018197413381,0.23
0.12047680123021748,0.231
0.12048947847468193,0.232
0.12050819645894284,0.233
0.12053290761344804,0.234
0.12056351294843239,0.235
0.12059989069158909,0.236
0.12064194484992424,0.237
0.12068963343575716,0.238
0.12074296109625994,0.239
0.12080194058961792,0.24
0.12086654617601245,0.241
0.12093669531117661,0.242
0.12101227044130819,0.243
0.12109315122020965,0.244
0.12117922418471637,0.245
0.12127036163946199,0.246
0.12136638513169297,0.247
0.12146704782173788,0.248
0.12157205644353274,0.249
0.12168111298073302,0.25
0.1217939455541386,0.251
0.12191031712634823,0.252
0.12203001216424018,0.253
0.12215280361502842,0.254
0.12227841313606118,0.255
0.12240649622459024,0.256
0.12253667378235619,0.257
0.12266859150278422,0.258
0.12280197321123028,0.259
0.12293664877410035,0.26
0.1230725483139177,0.261
0.12320966043280786,0.262
0.12334797047982493,0.263
0.12348742355102399,0.264
0.12362794625875957,0.265
0.12376950566664388,0.266
0.1239121595943718,0.267
0.12405607554614714,0.268
0.12420151667807629,0.269
0.12434880026620837,0.27
0.1244982408939401,0.271
0.12465010382011456,0.272
0.1248045974424851,0.273
0.12496190730051653,0.274
0.12512224480100265,0.275
0.12528588573972058,0.276
0.12545318932294036,0.277
0.1256245948860309,0.278
0.12580059513011074,0.279
0.12598168918277014,0.28
0.1261683341580445,0.281
0.12636092988323347,0.282
0.126559851117377,0.283
0.1267654986368687,0.284
0.12697833250055685,0.285
0.12719887290659365,0.286
0.1274276697018462,0.287
0.12766525281617574,0.288
0.1279120905547111,0.289
0.1281685803328037,0.29
0.1284350657885405,0.291
0.12871185072032437,0.292
0.1289991901019018,0.293
0.12929726514744594,0.294
0.1296061701280177,0.295
0.12992592776806908,0.296
0.13025651668459715,0.297
0.13059788632828379,0.298
0.13094995252943317,0.299
0.1313125782291162,0.3
0.13168554752252654,0.301
0.13206854509767693,0.302
0.13246115269648978,0.303
0.1328628638680299,0.304
0.13327310858867747,0.305
0.13369128057231797,0.306
0.13411676415000492,0.307
0.13454895686437898,0.308
0.13498728163951168,0.309
0.13543118199606155,0.31
0.13588009585314326,0.311
0.1363334151564715,0.312
0.13679046052413754,0.313
0.1372504981973745,0.314
0.1377127889405707,0.315
0.13817663508748715,0.316
0.1386414037727893,0.317
0.13910652156034367,0.318
0.13957144409609992,0.319
0.14003560828405062,0.32
0.1404983825257219,0.321
0.14095904276924873,0.322
0.14141679039283772,0.323
0.14187079544193396,0.324
0.14232024115144035,0.325
0.1427643609776696,0.326
0.14320246619108257,0.327
0.14363396064647152,0.328
0.14405833782240812,0.329
0.1444751545861058,0.33
0.1448839808878874,0.331
0.14528434678056215,0.332
0.1456757327803542,0.333
0.14605762547796713,0.334
0.14642960435366942,0.335
0.14679141304957197,0.336
0.14714299374443424,0.337
0.1474844804023742,0.338
0.14781615403495588,0.339
0.14813836957168194,0.34
0.14845147350550134,0.341
0.14875574469085479,0.342
0.149051383046634,0.343
0.14933853443494416,0.344
0.14961731858299765,0.345
0.14988784136104355,0.346
0.15015019170731217,0.347
0.15040442934511078,0.348
0.15065056950653474,0.349
0.15088856972223613,0.35
0.15111832164416142,0.351
0.1513396484345912,0.352
0.15155230616078957,0.353
0.15175598631835885,0.354
0.1519503161289494,0.355
0.15213485344339867,0.356
0.1523090737936592,0.357
0.1524723510695149,0.358
0.1526239427530762,0.359
0.1527629941371244,0.36
0.15288856255652555,0.361
0.15299964841555758,0.362
0.15309522110239027,0.363
0.1531742353248746,0.364
0.1532356363892913,0.365
0.1532783529880081,0.366
0.15330127568551905,0.367
0.15330322493519102,0.368
0.15328292987601355,0.369
0.153239046377443,0.37
0.15317021796715777,0.371
0.15307515452071568,0.372
0.15295270029853117,0.373
0.15280187113588245,0.374
0.15262184595451733,0.375
0.15241190548286093,0.376
0.15217134523038545,0.377
0.15189944078684392,0.378
0.15159551588377812,0.379
0.15125906262393998,0.38
0.15088983265856765,0.381
0.15048786630688596,0.382
0.15005346234273836,0.383
0.14958710319811785,0.384
0.14908935464349252,0.385
0.14856076810541172,0.386
0.14800183072988338,0.387
0.14741298912740441,0.388
0.14679471907981056,0.389
0.1461475978270563,0.39
0.14547235882722886,0.391
0.14476992128515623,0.392
0.14404138701898966,0.393
0.14328799960545516,0.394
0.14251106980328038,0.395
0.14171189770011652,0.396
0.14089174608815677,0.397
0.1400518848239204,0.398
0.13919366019421536,0.399
0.1383185365013938,0.4
0.1374280954070381,0.401
0.136524001300914,0.402
0.13560794621852773,0.403
0.13468158996851276,0.404
0.13374651433936588,0.405
0.13280420776297155,0.406
0.13185607880171585,0.407
0.13090348047065345,0.408
0.12994773220038044,0.409
0.12899013793707684,0.41
0.12803200150421765,0.411
0.12707463811326056,0.412
0.12611937908011125,0.413
0.1251675661812039,0.414
0.12422053293500454,0.415
0.12327957408000012,0.416
0.12234591609758944,0.417
0.12142071128139566,0.418
0.1205050628028852,0.419
0.11960006142967837,0.42
0.11870681148407349,0.421
0.11782643816012625,0.422
0.11696007750843236,0.423
0.11610885381999941,0.424
0.11527385083595079,0.425
0.1144560834054099,0.426
0.11365647637649348,0.427
0.11287585592453318,0.428
0.11211495176085748,0.429
0.11137440267142042,0.43
0.1106547601364444,0.431
0.10995648994283568,0.432
0.10927997320128298,0.433
0.10862550765745978,0.434
0.10799330968747037,0.435
0.10738351702675436,0.436
0.10679619215573921,0.437
0.10623132631633504,0.438
0.10568884421038958,0.439
0.10516860927478068,0.44
0.10467042879062374,0.441
0.1041940570259708,0.442
0.10373919371336983,0.443
0.10330547553791042,0.444
0.1028924640046609,0.445
0.10249964237362821,0.446
0.10212643090255494,0.447
0.10177221331841722,0.448
0.10143636127013152,0.449
0.1011182495422744,0.45
0.10081725934960419,0.451
0.10053276900455907,0.452
0.1002641331690946,0.453
0.10001065692837918,0.454
0.09977158017375838,0.455
0.09954608627983551,0.456
0.09933333128996111,0.457
0.09913247850399458,0.458
0.09894272753226921,0.459
0.09876333226404539,0.46
0.0985936034857974,0.461
0.09843289281067358,0.462
0.09828055898996879,0.463
0.09813593298193223,0.464
0.09799831337133548,0.465
0.09786700587282077,0.466
0.09774138300706783,0.467
0.09762093186187641,0.468
0.09750527473516467,0.469
0.09739415913147928,0.47
0.09728741888338235,0.471
0.09718491736389906,0.472
0.09708650122759614,0.473
0.09699199736159625,0.474
0.09690125453105876,0.475
0.09681419842696266,0.476
0.09673087154533846,0.477
0.09665144668867565,0.478
0.09657621068547585,0.479
0.09650551836835437,0.48
0.09643973261502711,0.481
0.09637919173847342,0.482
0.09632423155800932,0.483
0.0962752354432151,0.484
0.09623266736892551,0.485
0.09619706894190315,0.486
0.0961690226547055,0.487
0.09614910008635613,0.488
0.09613783141307844,0.489
0.09613571615100072,0.49
0.0961432514939973,0.491
0.09616094464473544,0.492
0.0961892990088185,0.493
0.09622878464138028,0.494
0.0962798164659731,0.495
0.09634275670903526,0.496
0.09641793049592257,0.497
0.09650563232409054,0.498
0.09660611546450024,0.499
0.09671957510839806,0.5
0.09684614424742001,0.501
0.09698590840664027,0.502
0.09713892493526853,0.503
0.09730523067278837,0.504
0.09748483287520339,0.505
0.09767768926004519,0.506
0.0978836943716824,0.507
0.09810268746359588,0.508
0.09833447696070365,0.509
0.09857886467076529,0.51
0.09883565907250828,0.511
0.09910467502646757,0.512
0.09938572063176217,0.513
0.09967857386050376,0.514
0.09998295608463932,0.515
0.10029851600776556,0.516
0.10062483207716184,0.517
0.10096142456546804,0.518
0.10130776301518357,0.519
0.10166326323647813,0.52
0.10202727566616948,0.521
0.10239907185305645,0.522
0.1027778375965412,0.523
0.1031626733485049,0.524
0.10355259507825908,0.525
0.10394653798382993,0.526
0.10434337606996667,0.527
0.10474196269108028,0.528
0.10514118340247469,0.529
0.10554000746076315,0.53
0.10593752390755971,0.531
0.10633294901498531,0.532
0.1067255961054197,0.533
0.10711481720442186,0.534
0.10749996092873333,0.535
0.10788039379510299,0.536
0.1082555770069086,0.537
0.10862514753544326,0.538
0.10898896451510547,0.539
0.10934710983460111,0.54
0.10969984769726897,0.541
0.11004755619488638,0.542
0.11039064841910913,0.543
0.11072950609241734,0.544
0.11106444956088699,0.545
0.11139574640552546,0.546
0.1117236344319897,0.547
0.11204833816179145,0.548
0.11237007659391553,0.549
0.11268906682487556,0.55
0.1130055268442463,0.551
0.11331967900647216,0.552
0.11363175379949744,0.553
0.11394199195917332,0.554
0.11425064199869558,0.555
0.1145579500725461,0.556
0.11486413993737116,0.557
0.11516938545689946,0.558
0.11547378893993039,0.559
0.11577738239162087,0.56
0.1160801524171171,0.561
0.11638207185815036,0.562
0.11668312284454918,0.563
0.11698330594087022,0.564
0.11728263529275058,0.565
0.1175811218084586,0.566
0.117878747861707,0.567
0.11817543812069486,0.568
0.11847103467572315,0.569
0.11876528832949997,0.57
0.11905787094662125,0.571
0.11934840095495945,0.572
0.11963647259528913,0.573
0.11992168540246677,0.574
0.12020367168183269,0.575
0.12048211788052468,0.576
0.12075677442857236,0.577
0.12102744842412419,0.578
0.12129397502430672,0.579
0.12155617332191965,0.58
0.12181381410484785,0.581
0.12206663087630862,0.582
0.12231437181376029,0.583
0.12255686062113819,0.584
0.12279404004828892,0.585
0.12302598894057987,0.586
0.12325291237176968,0.587
0.12347510878497972,0.588
0.12369292119516763,0.589
0.12390668118281979,0.59
0.12411665953898245,0.591
0.12432304372584707,0.592
0.12452594981651312,0.593
0.12472545234346721,0.594
0.12492161296884316,0.595
0.1251145021754551,0.596
0.12530421345750817,0.597
0.1254908686381825,0.598
0.12567461255113227,0.599
0.1258555956958397,0.6
0.12603394473468627,0.601
0.12620972719475318,0.602
0.1263829287628517,0.603
0.12655345866822224,0.604
0.12672117472389435,0.605
0.12688590584164128,0.606
0.12704745815647323,0.607
0.12720560161674946,0.608
0.12736004364811127,0.609
0.12751041083862266,0.61
0.1276562589027157,0.611
0.12779710602758892,0.612
0.12793246658502044,0.613
0.12806186747089277,0.614
0.12818483975326989,0.615
0.12830088817430993,0.616
0.12840945971139453,0.617
0.12850994341369695,0.618
0.12860170905507698,0.619
0.1286841570312434,0.62
0.1287567503874368,0.621
0.1288190193257107,0.622
0.12887054059372666,0.623
0.12891089833764943,0.624
0.12893963757743923,0.625
0.12895623051233795,0.626
0.12896007643814292,0.627
0.12895053545994553,0.628
0.12892697634587907,0.629
0.12888882030208815,0.63
0.1288355706878331,0.631
0.12876682076191998,0.632
0.12868223246046645,0.633
0.12858148804560293,0.634
0.12846424148466065,0.635
0.12833011372354053,0.636
0.12817874323457892,0.637
0.1280098522683365,0.638
0.1278232860706783,0.639
0.12761901183661295,0.64
0.12739708354021806,0.641
0.12715758598965238,0.642
0.12690057474984892,0.643
0.12662603048358534,0.644
0.12633384122644434,0.645
0.12602380884144126,0.646
0.1256956636325895,0.647
0.12534907833046377,0.648
0.12498368431508255,0.649
0.12459909519253322,0.65
0.12419493968348684,0.651
0.12377090173670627,0.652
0.12332676178127745,0.653
0.12286242990693023,0.654
0.12237796020292849,0.655
0.12187353625714603,0.656
0.12134942162444343,0.657
0.12080589095108285,0.658
0.12024319600367726,0.659
0.11966160931018487,0.66
0.11906151802881168,0.661
0.11844351019090622,0.662
0.11780842225967138,0.663
0.11715734090473347,0.664
0.11649156230811596,0.665
0.11581252006907983,0.666
0.11512169898655518,0.667
0.11442056183902914,0.668
0.11371051966781025,0.669
0.11299294923727878,0.67
0.11226922737614518,0.671
0.11154075478380657,0.672
0.11080896420063957,0.673
0.11007531674779825,0.674
0.10934128995077598,0.675
0.10860836029697846,0.676
0.10787798261328226,0.677
0.10715156832752604,0.678
0.10643046477293194,0.679
0.10571593789803305,0.68
0.10500916076228578,0.681
0.10431120969193709,0.682
0.10362306865439765,0.683
0.10294564031294713,0.684
0.10227975996163487,0.685
0.1016262071371168,0.686
0.1009857099325509,0.687
0.10035893888792187,0.688
0.09974649414548685,0.689
0.09914890020365578,0.69
0.09856661918828466,0.691
0.09800007509987431,0.692
0.09744967444742607,0.693
0.0969158163070465,0.694
0.09639889093159767,0.695
0.09589926843669508,0.696
0.0954172807021394,0.697
0.0949532011331648,0.698
0.09450722901330237,0.699
0.09407948389931362,0.7
0.09367000791589938,0.701
0.09327876802579836,0.702
0.09290565387411952,0.703
0.0925504743321015,0.704
0.09221295838355509,0.705
0.09189276111515234,0.706
0.09158946993013839,0.707
0.09130260622065395,0.708
0.09103162150784092,0.709
0.09077589178256901,0.71
0.09053471717139477,0.711
0.09030733029733526,0.712
0.0900929090789833,0.713
0.08989058838731324,0.714
0.08969946874421227,0.715
0.08951862273121941,0.716
0.08934710068753865,0.717
0.08918393755715857,0.718
0.0890281620163108,0.719
0.08887880714364825,0.72
0.0887349192773094,0.721
0.08859555928846712,0.722
0.08845978950585111,0.723
0.08832664911271039,0.724
0.08819514355767383,0.725
0.08806427470433793,0.726
0.08793310382681344,0.727
0.0878008158554713,0.728
0.08766676059659285,0.729
0.08753045968995783,0.73
0.0873915768348544,0.731
0.08724985766473996,0.732
0.08710506384056407,0.733
0.0869569450049845,0.734
0.0868052685432285,0.735
0.08664987454469365,0.736
0.0864907132494629,0.737
0.08632784891795885,0.738
0.08616143072887664,0.739
0.08599164161811336,0.74
0.08581865278621108,0.741
0.08564261320683328,0.742
0.08546367175064891,0.743
0.08528200055018578,0.744
0.08509779672560062,0.745
0.08491126200139945,0.746
0.08472257182331941,0.747
0.08453185113330929,0.748
0.08433916905523355,0.749
0.08414454785502119,0.75
0.0839479722468543,0.751
0.08374939158671259,0.752
0.08354871561571608,0.753
0.08334580656646128,0.754
0.0831404699313921,0.755
0.08293244554172031,0.756
0.08272140103000941,0.757
0.08250693042007234,0.758
0.08228855835361193,0.759
0.08206574660130257,0.76
0.08183789836011886,0.761
0.08160435755702261,0.762
0.08136440617641294,0.763
0.08111727092091861,0.764
0.08086214834203224,0.765
0.08059824412442243,0.766
0.08032481428137647,0.767
0.08004119674957252,0.768
0.07974682334893798,0.769
0.07944120403028267,0.77
0.07912388720907364,0.771
0.07879442719331628,0.772
0.07845239893484522,0.773
0.0780974616455498,0.774
0.07772943196290645,0.775
0.07734833055062254,0.776
0.07695438914631388,0.777
0.07654801981925723,0.778
0.07612975618910653,0.779
0.07570018331429731,0.78
0.07525988130175135,0.781
0.07480940544849768,0.782
0.07434930040319918,0.783
0.07388012327410756,0.784
0.07340245764765198,0.785
0.07291691758025026,0.786
0.07242414622104001,0.787
0.07192481263558023,0.788
0.07141960874109156,0.789
0.07090924660304038,0.79
0.07039445509195753,0.791
0.06987597428738279,0.792
0.06935454611770528,0.793
0.06883090048129628,0.794
0.06830573797639888,0.795
0.06777971468589149,0.796
0.06725343737586127,0.797
0.0667274711424717,0.798
0.06620235199287301,0.799
0.06567859692878734,0.8
0.06515670990129255,0.801
0.06463718447753886,0.802
0.064120503817363,0.803
0.06360713791123615,0.804
0.06309753746377839,0.805
0.0625921237642188,0.806
0.06209127694445668,0.807
0.061595330879220936,0.808
0.06110458081986491,0.809
0.06061929871272212,0.81
0.060139746737240866,0.811
0.05966618386545559,0.812
0.05919886354682361,0.813
0.058738022574576616,0.814
0.058283867028390286,0.815
0.05783656817198773,0.816
0.057396275339710645,0.817
0.056963137325627536,0.818
0.05653731978805951,0.819
0.05611901321819132,0.82
0.05570843080383867,0.821
0.055305797347840066,0.822
0.05491133174921906,0.823
0.05452522818690396,0.824
0.05414764522780768,0.825
0.053778709160624584,0.826
0.05341852720945356,0.827
0.05306720190676885,0.828
0.05272484217789675,0.829
0.05239157001672346,0.83
0.052067522031669373,0.831
0.05175284515869589,0.832
0.05144768621065506,0.833
0.05115217687201021,0.834
0.05086642058648475,0.835
0.05059048971843477,0.836
0.050324432795587216,0.837
0.05006828138473653,0.838
0.04982204805139041,0.839
0.04958571874285093,0.84
0.04935925171190976,0.841
0.049142588348820106,0.842
0.048935666274220496,0.843
0.04873842200338652,0.844
0.04855078156207292,0.845
0.04837265160039998,0.846
0.048203925628508074,0.847
0.04804450380902551,0.848
0.04789431128195272,0.849
0.04775330414288413,0.85
0.04762146213048334,0.851
0.04749877264569585,0.852
0.047385212441958466,0.853
0.04728073239546908,0.854
0.047185247954289224,0.855
0.047098634558984234,0.856
0.04702072588571556,0.857
0.0469513149667185,0.858
0.046890160649705546,0.859
0.04683699994620162,0.86
0.046791563037083594,0.861
0.04675358616780464,0.862
0.04672281817370174,0.863
0.046699017810760975,0.864
0.046681941640638776,0.865
0.046671328559982975,0.866
0.04666689391167811,0.867
0.04666833947165106,0.868
0.046675369546009905,0.869
0.04668770003618437,0.87
0.04670505569038592,0.871
0.046727157231077135,0.872
0.04675370597700375,0.873
0.04678437819804776,0.874
0.04681883390513014,0.875
0.046856730976357924,0.876
0.04689773355765173,0.877
0.0469415107427609,0.878
0.04698772592721094,0.879
0.04703602207432431,0.88
0.04708601452385377,0.881
0.04713729736709435,0.882
0.047189453801148355,0.883
0.04724205699501994,0.884
0.047294661258968945,0.885
0.04734679937761142,0.886
0.04739799895281937,0.887
0.047447809154030435,0.888
0.04749581950289178,0.889
0.047541659699040846,0.89
0.047584981217311105,0.891
0.04762543860260512,0.892
0.0476626952526087,0.893
0.04769645591625523,0.894
0.04772650296000829,0.895
0.04775271597488379,0.896
0.04777506985337065,0.897
0.04779361500684679,0.898
0.047808445765972124,0.899
0.047819665878930606,0.9
0.047827365393250484,0.901
0.047831620070674395,0.902
0.04783250867504461,0.903
0.04783013424460456,0.904
0.047824641068288945,0.905
0.047816225795729875,0.906
0.04780514239893093,0.907
0.04779170030569957,0.908
0.04777625500185213,0.909
0.04775919082149067,0.91
0.04774089798164219,0.911
0.0477217526285961,0.912
0.04770211255635613,0.913
0.04768233046081293,0.914
0.0476627720086906,0.915
0.047643826787029116,0.916
0.04762590980625269,0.917
0.047609456194857756,0.918
0.047594912298826855,0.919
0.04758272557850074,0.92
0.047573334363550795,0.921
0.04756715750234606,0.922
0.04756458445047148,0.923
0.047565968841476736,0.924
0.04757162905859881,0.925
0.047581855006143085,0.926
0.04759691670881088,0.927
0.04761707159280639,0.928
0.047642569681724554,0.929
0.047673656680002195,0.93
0.04771057474898897,0.931
0.047753560406540066,0.932
0.04780283872578971,0.933
0.047858613895203295,0.934
0.047921059860689716,0.935
0.047990317996306986,0.936
0.048066504238876824,0.937
0.04814971999841347,0.938
0.04824006038277652,0.939
0.04833761762456928,0.94
0.048442479893877684,0.941
0.04855472614082528,0.942
0.04867441785185829,0.943
0.048801589214062184,0.944
0.04893623925761521,0.945
0.04907833084786349,0.946
0.04922779761185692,0.947
0.04938455432434898,0.948
0.04954850551739387,0.949
0.04971954937082004,0.95
0.04989757536490286,0.951
0.0500824555317203,0.952
0.05027403360849409,0.953
0.050472121864564096,0.954
0.050676510968315484,0.955
0.05088698599771441,0.956
0.05110333807213263,0.957
0.05132536648697525,0.958
0.05155287060553014,0.959
0.051785634848230774,0.96
0.05202341675376041,0.961
0.05226594916454534,0.962
0.05251295712591525,0.963
0.05276418034513233,0.964
0.05301939302963563,0.965
0.05327841705902338,0.966
0.05354112549995189,0.967
0.053807433675150056,0.968
0.05407727725498602,0.969
0.05435058682730139,0.97
0.0546272810868918,0.971
0.05490729076349786,0.972
0.0551905973410761,0.973
0.05547726232927379,0.974
0.055767435267884705,0.975
0.05606133916619666,0.976
0.056359238131877876,0.977
0.056661399220041084,0.978
0.05696806720409394,0.979
0.05727946289683146,0.98
0.05759579496247595,0.981
0.05791726844429428,0.982
0.05824408337690907,0.983
0.05857642510373342,0.984
0.058914450134778376,0.985
0.05925827246375336,0.986
0.05960795530524336,0.987
0.05996350906482769,0.988
0.060324891357357205,0.989
0.060692005791448414,0.99
0.06106469994683538,0.991
0.06144276418054189,0.992
0.061825932710737566,0.993
0.06221388806600291,0.994
0.0626062692031391,0.995
0.0630026825130452,0.996
0.0634027137157001,0.997
0.0638059377178313,0.998
0.06421192334330969,0.999
0.06462023047082845,1.0
0.0650303986531382,1.001
0.0654419321706586,1.002
0.06585429477634885,1.003
0.06626692240568233,1.004
0.06667924532268679,1.005
0.06709070615871043,1.006
0.0675007681266773,1.007
0.06790891350419305,1.008
0.06831463454245043,1.009
0.06871741978941978,1.01
0.06911673847425898,1.011
0.06951202456968393,1.012
0.06990266293027972,1.013
0.07028798341884883,1.014
0.07066726796013464,1.015
0.07103976835758825,1.016
0.07140472952525588,1.017
0.07176141464679307,1.018
0.07210912915724783,1.019
0.07244723949142196,1.02
0.07277518258144744,1.021
0.07309246325688927,1.022
0.07339863845655922,1.023
0.07369328883393517,1.024
0.07397598485059208,1.025
0.07424626743724434,1.026
0.07450366148094341,1.027
0.07474771651465283,1.028
0.07497805451643477,1.029
0.07519441076570213,1.03
0.07539666064898978,1.031
0.07558482727415433,1.032
0.07575906717969283,1.033
0.07591963539154549,1.034
0.07606683501391687,1.035
0.07620096551748007,1.036
0.07632229636053688,1.037
0.0764310810270531,1.038
0.07652759466771897,1.039
0.07661217121629285,1.04
0.07668523135710342,1.041
0.07674730010305766,1.042
0.07679901198281047,1.043
0.07684110138269139,1.044
0.07687437627260409,1.045
0.07689967723957344,1.046
0.07691783667558823,1.047
0.07692966577148452,1.048
0.07693597971682957,1.049
0.07693763689134392,1.05
0.07693556275467854,1.051
0.076930748450228,1.052
0.07692422719888571,1.053
0.07691703729024746,1.054
0.07691018674202488,1.055
0.07690463664450832,1.056
0.07690130637433665,1.057
0.07690108608320913,1.058
0.07690484320632661,1.059
0.07691342144717123,1.06
0.0769276352643444,1.061
0.07694826227722845,1.062
0.0769760350076649,1.063
0.07701163243444673,1.064
0.07705567204098754,1.065
0.07710870505823614,1.066
0.07717121818600052,1.067
0.07724364156687728,1.068
0.07732635938772367,1.069
0.07741971957888827,1.07
0.07752404022125593,1.071
0.0776396107596429,1.072
0.07776668677720028,1.073
0.07790547904658422,1.074
0.07805614222114418,1.075
0.07821877175970103,1.076
0.07839341134388607,1.077
0.07858006296484284,1.078
0.07877869122514608,1.079
0.07898921936116367,1.08
0.0792115192426498,1.081
0.07944540180354673,1.082
0.07969061511006557,1.083
0.07994685021430914,1.084
0.08021374765449278,1.085
0.08049089809758014,1.086
0.0807778366783456,1.087
0.0810740385007564,1.088
0.08137892573084014,1.089
0.08169188805410693,1.09
0.08201230769162891,1.091
0.08233957859682017,1.092
0.08267311271192648,1.093
0.08301232908613475,1.094
0.0833566295425434,1.095
0.08370538009609997,1.096
0.08405791983449978,1.097
0.0844135955768507,1.098
0.08477180042957062,1.099
0.08513199808875467,1.1
0.08549372590890084,1.101
0.08585657596342619,1.102
0.08622015796146236,1.103
0.08658405833417775,1.104
0.0869478211395287,1.105
0.08731096275512779,1.106
0.08767300171546263,1.107
0.0880334797631926,1.108
0.08839196628019177,1.109
0.08874804730788989,1.11
0.08910130226408335,1.111
0.08945127528374025,1.112
0.08979745473050457,1.113
0.09013927230174099,1.114
0.09047611744132499,1.115
0.0908073525868923,1.116
0.0911323198651717,1.117
0.09145033743625168,1.118
0.09176068661738301,1.119
0.09206259394144586,1.12
0.09235521733258699,1.121
0.09263764395355828,1.122
0.09290889585550954,1.123
0.0931679326274574,1.124
0.0934136464554424,1.125
0.09364485596414665,1.126
0.09386030850385733,1.127
0.09405869200375694,1.128
0.09423864819019769,1.129
0.09439877881629659,1.13
0.09453764035679217,1.131
0.09465373114027928,1.132
0.09474549114734516,1.133
0.09481133469974821,1.134
0.09484971208648434,1.135
0.09485918078320851,1.136
0.09483846849848354,1.137
0.09478651138414661,1.138
0.09470245136114226,1.139
0.09458558217149934,1.14
0.0944352656104346,1.141
0.09425089358540245,1.142
0.09403195204864143,1.143
0.09377814323207263,1.144
0.09348948524937781,1.145
0.09316635092701715,1.146
0.09280944285772033,1.147
0.09241971657605043,1.148
0.09199827304023049,1.149
0.09154625345056222,1.15
0.09106478149705874,1.151
0.09055497068615513,1.152
0.09001796149642097,1.153
0.08945494767715112,1.154
0.08886718296651776,1.155
0.08825597521919938,1.156
0.08762267503432283,1.157
0.08696866430532503,1.158
0.0862953477268891,1.159
0.08560414778014655,1.16
0.08489650163854033,1.161
0.08417385725985721,1.162
0.08343766588518332,1.163
0.08268936914801535,1.164
0.08193038060414062,1.165
0.08116206569357794,1.166
0.08038573033971974,1.167
0.07960262535505924,1.168
0.07881396099413017,1.169
0.07802092122089743,1.17
0.07722467314818321,1.171
0.07642637151233439,1.172
0.07562715855127543,1.173
0.07482815937879647,1.174
0.07403047291926021,1.175
0.0732351589766337,1.176
0.07244322484821476,1.177
0.07165561890264993,1.178
0.07087323479141794,1.179
0.07009692004707598,1.18
0.06932748088485959,1.181
0.06856568044080913,1.182
0.06781223246025321,1.183
0.06706779691604502,1.184
0.06633298383388174,1.185
0.06560836371638937,1.186
0.06489447725694664,1.187
0.06419183904770027,1.188
0.06350093409917565,1.189
0.0628222090350183,1.19
0.06215606309717648,1.191
0.06150284519245132,1.192
0.060862857924938035,1.193
0.06023636305177875,1.194
0.0596235831331972,1.195
0.059024698434293296,1.196
0.05843984191451225,1.197
0.057869097605436584,1.198
0.057312504658384056,1.199
0.056770062782273666,1.2
0.05624173353666007,1.201
0.05572743699279501,1.202
0.05522704935894019,1.203
0.054740407516225456,1.204
0.054267319357232224,1.205
0.05380757359865692,1.206
0.05336094409439319,1.207
0.0529271865470349,1.208
0.0525060294717768,1.209
0.05209716787849869,1.21
0.05170026817430479,1.211
0.051314981706896814,1.212
0.05094095627858862,1.213
0.050577837808332034,1.214
0.050225261343943964,1.215
0.049882839431336035,1.216
0.049550161825242495,1.217
0.04922681211477714,1.218
0.04891239166670944,1.219
0.04860653830690324,1.22
0.04830893324221288,1.221
0.048019293557609546,1.222
0.04773735198425393,1.223
0.04746283667806875,1.224
0.047195470762026834,1.225
0.04693499648794431,1.226
0.046681206721959405,1.227
0.0464339649604235,1.228
0.04619320722032364,1.229
0.045958927110324115,1.23
0.04573114875869724,1.231
0.04550989674288068,1.232
0.04529517753105534,1.233
0.04508698101720214,1.234
0.04488529404514495,1.235
0.04469011200555853,1.236
0.044501442220240106,1.237
0.044319298883669464,1.238
0.044143691025969746,1.239
0.04397460779027368,1.24
0.043812009204795735,1.241
0.04365582690092532,1.242
0.04350596885287394,1.243
0.04336231960325795,1.244
0.04322473523810721,1.245
0.0430930403456414,1.246
0.04296703272565132,1.247
0.04284649255271606,1.248
0.04273118889831172,1.249
0.04262088004842005,1.25
0.04251530746844707,1.251
0.04241418691345536,1.252
0.04231720423768927,1.253
0.042224019981531524,1.254
0.04213427770513049,1.255
0.04204760911665777,1.256
0.04196363372459747,1.257
0.04188195347932341,1.258
0.041802144946839544,1.259
0.04172375543252415,1.26
0.04164630878997522,1.261
0.041569319538748685,1.262
0.041492309717329354,1.263
0.04141482417041938,1.264
0.04133644098653369,1.265
0.041256773630928535,1.266
0.04117546186092858,1.267
0.04109215361096757,1.268
0.04100649166701908,1.269
0.04091812196936149,1.27
0.040826723130172,1.271
0.04073203991192355,1.272
0.04063390499927578,1.273
0.040532242790520534,1.274
0.040427055541723544,1.275
0.04031839633235903,1.276
0.04020633679494566,1.277
0.04009094166870119,1.278
0.03997226107281968,1.279
0.03985033902672734,1.28
0.03972522594367115,1.281
0.03959698617677638,1.282
0.039465699881693024,1.283
0.039331461526666375,1.284
0.039194377322997985,1.285
0.039054563174128934,1.286
0.03891214369355061,1.287
0.03876725178901421,1.288
0.0386200275676421,1.289
0.038470615005131055,1.29
0.03831915490313234,1.291
0.03816577486426242,1.292
0.038010582621146594,1.293
0.03785367072091877,1.294
0.0376951323024388,1.295
0.03753507948637377,1.296
0.037373656571990474,1.297
0.03721104462756319,1.298
0.03704745704165496,1.299
0.03688312741063854,1.3
0.03671829255247514,1.301
0.03655317672965491,1.302
0.03638798661199631,1.303
0.03622292104794318,1.304
0.03605818872095997,1.305
0.03589402463639431,1.306
0.03573070120615547,1.307
0.035568532111672435,1.308
0.03540786768208288,1.309
0.035249081559647816,1.31
0.03509255201305981,1.311
0.03493864810222,1.312
0.034787730740955265,1.313
0.034640165932325814,1.314
0.034496337956956204,1.315
0.03435665438523024,1.316
0.03422154238735502,1.317
0.03409143922486718,1.318
0.03396678035108174,1.319
0.033847987877255084,1.32
0.03373546129714622,1.321
0.03362957180038182,1.322
0.03353066013034773,1.323
0.033439036125599175,1.324
0.03335497829681928,1.325
0.03327873340503324,1.326
0.033210516548126866,1.327
0.033150511995300634,1.328
0.033098874635983946,1.329
0.033055731346328186,1.33
0.03302118148743604,1.331
0.03299529625153632,1.332
0.032978117378009826,1.333
0.03296965669983516,1.334
0.03296989748332979,1.335
0.03297879647145639,1.336
0.0329962845826814,1.337
0.03302226587961393,1.338
0.03305661759128028,1.339
0.033099194454776014,1.34
0.03314983690497951,1.341
0.033208379737443124,1.342
0.03327465805127757,1.343
0.0333485081403432,1.344
0.03342976199721222,1.345
0.033518237814414556,1.346
0.03361373462003506,1.347
0.03371603707087209,1.348
0.033824925959303774,1.349
0.0339401860361439,1.35
0.03406160744429267,1.351
0.034188980944924445,1.352
0.03432208857241492,1.353
0.03446069362523725,1.354
0.034604536374986276,1.355
0.0347533386746578,1.356
0.03490681351113371,1.357
0.03506467411270029,1.358
0.03522664049010374,1.359
0.03539244274599507,1.36
0.035561820291406,1.361
0.035734515925543026,1.362
0.03591026557243128,1.363
0.03608879035326167,1.364
0.03626980037471955,1.365
0.036453010988984444,1.366
0.03663816197287194,1.367
0.03682503008430114,1.368
0.03701343120518062,1.369
0.03720321261318518,1.37
0.03739423845429976,1.371
0.03758637253734419,1.372
0.03777946262653303,1.373
0.03797333043011803,1.374
0.03816776983108985,1.375
0.03836255208489723,1.376
0.03855743496163294,1.377
0.038752174392458975,1.378
0.03894653824919908,1.379
0.03914032102085784,1.38
0.03933335686289017,1.381
0.03952552769637961,1.382
0.039716762999917575,1.383
0.03990702892052583,1.384
0.04009630790615321,1.385
0.040284578667935896,1.386
0.040471811880696235,1.387
0.04065798571400319,1.388
0.04084310829055592,1.389
0.0410272334849077,1.39
0.041210465857418874,1.391
0.04139295551102721,1.392
0.041574885051865594,1.393
0.04175645169938577,1.394
0.04193784778162067,1.395
0.042119243840485404,1.396
0.04230078016343881,1.397
0.04248256881569754,1.398
0.04266470095404447,1.399
0.04284725360693596,1.4
0.043030294435300695,1.401
0.04321388473400807,1.402
0.04339808065458028,1.403
0.04358293236996036,1.404
0.0437684806997575,1.405
0.043954750641131524,1.406
0.04414174280509183,1.407
0.0443294277023399,1.408
0.04451774823879945,1.409
0.044706628985877926,1.41
0.04489598522995184,1.411
0.04508572636154066,1.412
0.04527575217086311,1.413
0.045465943508608136,1.414
0.04565615177825658,1.415
0.04584619361460625,1.416
0.04603585293493352,1.417
0.04622488583360947,1.418
0.04641302376085799,1.419
0.04659997484025675,1.42
0.046785425255149754,1.421
0.04696904248475627,1.422
0.04715048135055691,1.423
0.047329392538494004,1.424
0.04750543183314124,1.425
0.047678267147910014,1.426
0.047847579926542504,1.427
0.04801305786973235,1.428
0.04817438044814351,1.429
0.04833120888511737,1.43
0.048483194498516305,1.431
0.04863000436765865,1.432
0.04877135006880494,1.433
0.048907007469993796,1.434
0.049036822930547695,1.435
0.04916070553063833,1.436
0.04927860746560089,1.437
0.04939049649020062,1.438
0.04949632821093142,1.439
0.049596031109015164,1.44
0.04968951008601561,1.441
0.049776658181451376,1.442
0.04985736356692664,1.443
0.04993150823824202,1.444
0.04999896015413399,1.445
0.05005956174917845,1.446
0.05011311884377694,1.447
0.050159393686122246,1.448
0.050198103235195454,1.449
0.050228923381168245,1.45
0.050251501772281736,1.451
0.050265479920306735,1.452
0.050270521034598115,1.453
0.05026633800666235,1.454
0.05025271495703491,1.455
0.05022951536127692,1.456
0.050196670992689374,1.457
0.05015415307476354,1.458
0.05010194483942568,1.459
0.05004004404273604,1.46
0.049968500066290215,1.461
0.04988745902233795,1.462
0.049797190443814365,1.463
0.04969808744209417,1.464
0.04959064376916694,1.465
0.04947541575885496,1.466
0.04935298025476378,1.467
0.04922390308960609,1.468
0.04908872916602307,1.469
0.04894798999708795,1.47
0.04880221396865049,1.471
0.04865193012060859,1.472
0.048497665406414175,1.473
0.04833993824496056,1.474
0.048179250852541274,1.475
0.04801608218260167,1.476
0.04785088253929731,1.477
0.04768407026829573,1.478
0.047516030501359996,1.479
0.04734711578504714,1.48
0.04717764849856525,1.481
0.0470079251019473,1.482
0.04683822224597636,1.483
0.046668804465494276,1.484
0.04649993254771977,1.485
0.04633187084728654,1.486
0.04616489109097853,1.487
0.04599927001120857,1.488
0.04583527925691822,1.489
0.0456731718201988,1.49
0.04551317734376021,1.491
0.04535551411827677,1.492
0.045200410077253124,1.493
0.0450481206720555,1.494
0.0448989384774207,1.495
0.04475319386870097,1.496
0.04461124739958877,1.497
0.0444734756287072,1.498
0.0443402530192448,1.499
0.044211934314313084,1.5
0.04408884400020002,1.501
0.043971276078333475,1.502
0.04385949937971559,1.503
0.04375376178252933,1.504
0.04365429114900086,1.505
0.043561293741464696,1.506
0.043474951266848486,1.507
0.04339541756701108,1.508
0.043322815757467756,1.509
0.04325723637976155,1.51
0.043198736918156205,1.511
0.04314734285575145,1.512
0.04310305027897315,1.513
0.043065829825973366,1.514
0.04303563148685844,1.515
0.04301238944591772,1.516
0.042996025898571606,1.517
0.04298645264935185,1.518
0.04298356933467627,1.519
0.04298725740585986,1.52
0.042997371903397565,1.521
0.04301373840106191,1.522
0.04303616064878927,1.523
0.04306443458575975,1.524
0.04309836057041881,1.525
0.04313774968033445,1.526
0.043182423246697486,1.527
0.043232206277903876,1.528
0.04328691643478105,1.529
0.04334635146160454,1.53
0.04341028030203916,1.531
0.043478442856927924,1.532
0.04355055766406137,1.533
0.04362633194591472,1.534
0.04370546929818555,1.535
0.04378767271065182,1.536
0.04387264152842286,1.537
0.04396006244838234,1.538
0.04404959963322871,1.539
0.04414089334224388,1.54
0.04423357012382768,1.541
0.0443272556523605,1.542
0.044421578994081334,1.543
0.04451616519717181,1.544
0.04461062536340921,1.545
0.04470455979015234,1.546
0.04479757803081748,1.547
0.044889322240518593,1.548
0.044979478519362195,1.549
0.04506777012568988,1.55
0.04515393619551275,1.551
0.045237711509782175,1.552
0.04531882604050981,1.553
0.04539702550477805,1.554
0.04547209589632633,1.555
0.04554387717090096,1.556
0.0456122626277034,1.557
0.045677186737134175,1.558
0.04573860616277714,1.559
0.04579647889581595,1.56
0.045850745368894746,1.561
0.04590131475523815,1.562
0.04594805908658899,1.563
0.0459908147458218,1.564
0.04602938758232439,1.565
0.04606355888384033,1.566
0.04609309203120063,1.567
0.0461177400051023,1.568
0.0461372531656496,1.569
0.046151386417347076,1.57
0.04615990511764155,1.571
0.04616258967758783,1.572
0.04615923935703607,1.573
0.04614967589719669,1.574
0.04613374709470117,1.575
0.04611132918794265,1.576
0.04608232541354433,1.577
0.04604665709525678,1.578
0.04600424741895058,1.579
0.04595500988979218,1.58
0.04589885862791867,1.581
0.04583574165389258,1.582
0.04576567985699481,1.583
0.045688794111179654,1.584
0.04560531242534283,1.585
0.0455155565545846,1.586
0.045419912714388784,1.587
0.0453187945630212,1.588
0.04521261032399944,1.589
0.04510174715879517,1.59
0.044986574956389185,1.591
0.04486745716166634,1.592
0.04474475736298261,1.593
0.04461884026159616,1.594
0.044490069604761755,1.595
0.04435880530032706,1.596
0.0442254012290636,1.597
0.04409020447511477,1.598
0.04395355598483202,1.599
0.043815792129549926,1.6
0.04367724630140658,1.601
0.04353824948002598,1.602
0.04339912864087685,1.603
0.04326020197309796,1.604
0.043121770549156425,1.605
0.042984109270846976,1.606
0.042847464073830915,1.607
0.04271205922383813,1.608
0.0425781096958649,1.609
0.04244583143165537,1.61
0.042315446444043586,1.611
0.04218718242946045,1.612
0.04206126736240071,1.613
0.041937920110683376,1.614
0.04181733931752942,1.615
0.04169969523506307,1.616
0.04158512899679398,1.617
0.04147375827908347,1.618
0.041365683751722206,1.619
0.041260992042006575,1.62
0.04115975403777987,1.621
0.04106201915383616,1.622
0.04096780876627936,1.623
0.0408771144094243,1.624
0.04078990289164572,1.625
0.040706123582862554,1.626
0.04062571163747645,1.627
0.040548584814202614,1.628
0.04047463755541641,1.629
0.04040374118702124,1.63
0.04033575493934078,1.631
0.04027054162278187,1.632
0.04020797838018474,1.633
0.040147957245864584,1.634
0.04009037472828072,1.635
0.040035116562436156,1.636
0.03998205138520976,1.637
0.03993104068719543,1.638
0.03988195601833424,1.639
0.039834691092709894,1.64
0.03978916499947735,1.641
0.03974531800038547,1.642
0.03970310241474708,1.643
0.039662471031970396,1.644
0.039623364808384444,1.645
0.039585701740116934,1.646
0.039549370252999184,1.647
0.03951422955470701,1.648
0.039480115154435655,1.649
0.039446845929383426,1.65
0.039414231263691354,1.651
0.039382078574790966,1.652
0.039350201488375425,1.653
0.0393184282125342,1.654
0.039286608937600026,1.655
0.0392546205535372,1.656
0.03922236673996252,1.657
0.03918977164653265,1.658
0.0391567662933501,1.659
0.039123272222469425,1.66
0.039089195481869635,1.661
0.03905443961033609,1.662
0.039018929379395176,1.663
0.03898263137706269,1.664
0.03894556462493707,1.665
0.03890779979480679,1.666
0.0388694480578939,1.667
0.03883064262220197,1.668
0.038791517446061824,1.669
0.03875218958590825,1.67
0.038712751882348295,1.671
0.038673276342178216,1.672
0.03863382120928953,1.673
0.038594435721356686,1.674
0.038555161547750676,1.675
0.03851603172401405,1.676
0.03847706773879227,1.677
0.038438275332376,1.678
0.038399639610029714,1.679
0.03836112021206998,1.68
0.03832264737397408,1.681
0.038284119600391645,1.682
0.03824540330361192,1.683
0.038206334184778264,1.684
0.03816671952057741,1.685
0.03812634005135041,1.686
0.038084950030766056,1.687
0.038042275167608476,1.688
0.0379980111945632,1.689
0.037951826841162356,1.69
0.037903371078836394,1.691
0.03785228045932844,1.692
0.03779818250213319,1.693
0.037740693145556586,1.694
0.03767940982249016,1.695
0.037613907498046745,1.696
0.037543745289851944,1.697
0.03746848273248023,1.698
0.03738769867801035,1.699
0.037301007280298844,1.7
0.03720806789437182,1.701
0.03710858639089192,1.702
0.03700230593249818,1.703
0.0368889883382072,1.704
0.036768396520144526,1.705
0.036640295551725814,1.706
0.03650447815625154,1.707
0.036360800628450984,1.708
0.03620921186475288,1.709
0.03604976677374443,1.71
0.035882621563121386,1.711
0.03570801235829475,1.712
0.035526222163413966,1.713
0.035337546356705524,1.714
0.03514227242086915,1.715
0.03494068157229767,1.716
0.03473306162501868,1.717
0.03451971670076526,1.718
0.034300969572321684,1.719
0.03407715856630693,1.72
0.033848631567019526,1.721
0.03361573927753635,1.722
0.033378829244241626,1.723
0.03313824145173075,1.724
0.03289430569730691,1.725
0.032647340525413286,1.726
0.03239765324742257,1.727
0.03214554047234625,1.728
0.03189128860241284,1.729
0.03163517386195404,1.73
0.031377461576556825,1.731
0.03111840456454406,1.732
0.03085824063087193,1.733
0.03059718926244911,1.734
0.03033544788691129,1.735
0.030073188856230046,1.736
0.029810558886695628,1.737
0.029547681397321335,1.738
0.02928466025252961,1.739
0.029021583408508734,1.74
0.028758526102803446,1.741
0.02849555374769995,1.742
0.028232724714241795,1.743
0.027970093109679055,1.744
0.02770771144709478,1.745
0.02744563285058096,1.746
0.027183912293917183,1.747
0.02692260646436975,1.748
0.026661772112194695,1.749
0.026401462964420922,1.75
0.02614172528374944,1.751
0.02588259249443317,1.752
0.025624081087749585,1.753
0.025366191528290553,1.754
0.025108915418644732,1.755
0.024852245941576336,1.756
0.024596187720730706,1.757
0.024340763758806887,1.758
0.024086018100469626,1.759
0.023832013477192934,1.76
0.023578823961794816,1.761
0.02332652434387311,1.762
0.023075181317642576,1.763
0.02282485255283526,1.764
0.022575593965815547,1.765
0.02232746941599872,1.766
0.02208055785369603,1.767
0.02183495653126073,1.768
0.021590780311276307,1.769
0.021348157339392576,1.77
0.021107221673785512,1.771
0.020868104370503286,1.772
0.020630926477632993,1.773
0.020395797844661067,1.774
0.020162821814856156,1.775
0.019932101857659076,1.776
0.019703746806393127,1.777
0.019477873853879266,1.778
0.019254609433059237,1.779
0.01903408816268802,1.78
0.018816450013145424,1.781
0.01860183580295316,1.782
0.01839038149568129,1.783
0.01818221337590417,1.784
0.017977447518671082,1.785
0.01777619454756384,1.786
0.017578566568672217,1.787
0.017384682615820504,1.788
0.017194670983321697,1.789
0.017008668202496406,1.79
0.016826815117635993,1.791
0.016649251021881903,1.792
0.016476107583582124,1.793
0.016307505271137578,1.794
0.01614355370290172,1.795
0.01598435408811189,1.796
0.015830001077783547,1.797
0.01568058314222564,1.798
0.015536181846553379,1.799
0.015396870561381856,1.8
0.015262712999894632,1.801
0.015133761775663567,1.802
0.015010057073790425,1.803
0.014891625626503226,1.804
0.014778480281629104,1.805
0.014670620111505356,1.806
0.014568030590189183,1.807
0.01447068368657723,1.808
0.014378538309024719,1.809
0.014291541368607339,1.81
0.014209629111061968,1.811
0.01413272814194148,1.812
0.014060755699772914,1.813
0.013993619010564562,1.814
0.013931214348034364,1.815
0.013873427226593104,1.816
0.013820134362015709,1.817
0.01377120622549403,1.818
0.013726508520431717,1.819
0.013685901714095824,1.82
0.013649238952611074,1.821
0.013616364228597171,1.822
0.01358711279580646,1.823
0.013561313517297032,1.824
0.01353879107500183,1.825
0.013519366659774346,1.826
0.013502857072895497,1.827
0.013489072710928725,1.828
