VaMe,time
-0.05193703181697457,0.001
-0.048307076953131294,0.002
-0.04468069274152877,0.003
-0.04106213600729348,0.004
-0.037455340428044506,0.005
-0.03386381350022159,0.006
-0.030290569755311456,0.007
-0.026738106582142568,0.008
-0.023208424558944635,0.009
-0.01970308932961359,0.01
-0.01622332634168771,0.011
-0.012770132395334966,0.012
-0.009344373922031947,0.013
-0.005946834842175212,0.014
-0.0025782091791208806,0.015
0.0007609223736899927,0.016
0.004070096676949824,0.017
0.007348949427615419,0.018
0.010597184013675357,0.019
0.013814538812164302,0.02
0.017000761233274576,0.021
0.020155592403583496,0.022
0.023278761846964244,0.023
0.026369988466099156,0.024
0.02942898335392733,0.025
0.032455451162173445,0.026
0.0354490887914127,0.027
0.03840958181955336,0.028
0.04133659972508862,0.029
0.04422979076142312,0.03
0.04708877689894625,0.031
0.049913149052106406,0.032
0.05270246297508371,0.033
0.05545623662830605,0.034
0.058173950298000925,0.035
0.060855050989592395,0.036
0.0634989620742618,0.037
0.06610509727907384,0.038
0.06867287497690587,0.039
0.07120172568707281,0.04
0.07369108486349082,0.041
0.07614037228054805,0.042
0.07854897930024832,0.043
0.08091628599105755,0.044
0.08324170039055967,0.045
0.0855246928287274,0.046
0.08776480631709939,0.047
0.08996163667538358,0.048
0.09211479120948741,0.049
0.09422385871047724,0.05
0.09628842423751122,0.051
0.09830812315962634,0.052
0.1002826991351642,0.053
0.10221203814268558,0.054
0.10409616741840114,0.055
0.10593521757313507,0.056
0.1077293597391385,0.057
0.10947875414075545,0.058
0.11118355082051488,0.059
0.1128439419533155,0.06
0.11446022546700511,0.061
0.11603284502125231,0.062
0.11756239387394544,0.063
0.1190495816183355,0.064
0.12049517100759131,0.065
0.12189991181998815,0.066
0.1232645154881448,0.067
0.12458968544392234,0.068
0.1258761666908896,0.069
0.12712477383125365,0.07
0.12833638753570556,0.071
0.12951192734898295,0.072
0.13065231262668206,0.073
0.13175842313095126,0.074
0.1328310674439926,0.075
0.13387096239092566,0.076
0.13487872142721152,0.077
0.1358548471936093,0.078
0.1367997280966059,0.079
0.1377136475244363,0.08
0.1385968129194324,0.081
0.1394493999341169,0.082
0.1402715994508163,0.083
0.14106365532874146,0.084
0.14182588219624886,0.085
0.14255865521645172,0.086
0.14326236881036986,0.087
0.14393737907373952,0.088
0.14458397163588926,0.089
0.1452023821532904,0.09
0.14579284039420806,0.091
0.14635559030452155,0.092
0.1468908676758641,0.093
0.14739885280233556,0.094
0.14787964156157027,0.095
0.14833325769761543,0.096
0.14875967459421408,0.097
0.1491588103997632,0.098
0.1495305113571742,0.099
0.14987456688972936,0.1
0.15019076799416203,0.101
0.15047897490466425,0.102
0.15073915654019865,0.103
0.15097138735268356,0.104
0.15117580299004235,0.105
0.15135253254242964,0.106
0.1515016513086847,0.107
0.15162319552966078,0.108
0.15171723094406,0.109
0.15178393097888163,0.11
0.1518236310122682,0.111
0.15183684528988398,0.112
0.1518242418749398,0.113
0.15178657664853684,0.114
0.15172460811237654,0.115
0.15163904956841515,0.116
0.1515306008153169,0.117
0.15140003015546016,0.118
0.15124824653786892,0.119
0.1510763305921729,0.12
0.15088552061368277,0.121
0.15067716072219264,0.122
0.15045262446447483,0.123
0.15021323816407509,0.124
0.14996024275348988,0.125
0.1496948131049365,0.126
0.14941810818812962,0.127
0.14913131712963984,0.128
0.1488356894750744,0.129
0.1485325486193827,0.13
0.14822328720689343,0.131
0.14790934399176403,0.132
0.14759216338316936,0.133
0.14727314531520416,0.134
0.14695360640785315,0.135
0.14663477486605775,0.136
0.14631781628524976,0.137
0.14600386513773572,0.138
0.14569404325798008,0.139
0.14538946235491715,0.14
0.14509121365932795,0.141
0.14480034879515266,0.142
0.14451785677628773,0.143
0.14424464240969997,0.144
0.1439815104357255,0.145
0.14372915722292692,0.146
0.1434881687464845,0.147
0.14325902142762414,0.148
0.1430420821486648,0.149
0.1428376051818347,0.15
0.14264572570082354,0.151
0.14246645220435564,0.152
0.1422996636097308,0.153
0.1421451160574335,0.154
0.14200245913186307,0.155
0.14187125887753416,0.156
0.14175102607137693,0.157
0.14164124751536777,0.158
0.14154141575904736,0.159
0.14145105070530015,0.16
0.141369705886433,0.161
0.14129695342928483,0.162
0.14123234723108416,0.163
0.14117538182516953,0.164
0.1411254834720347,0.165
0.14108205104290106,0.166
0.14104452028740838,0.167
0.14101241487176353,0.168
0.14098536763130065,0.169
0.14096310952191668,0.17
0.14094542996507756,0.171
0.1409321179826162,0.172
0.14092290484547756,0.173
0.14091743972246665,0.174
0.14091531048269876,0.175
0.14091608508979572,0.176
0.14091934433413356,0.177
0.14092469613344025,0.178
0.1409317715140153,0.179
0.14094020410369174,0.18
0.14094959668243734,0.181
0.14095948270910477,0.182
0.14096929886848447,0.183
0.14097838326900142,0.184
0.14098599585978902,0.185
0.14099134487367193,0.186
0.1409936090484852,0.187
0.14099195453895647,0.188
0.1409855470368745,0.189
0.1409735572602604,0.19
0.14095515545695844,0.191
0.14092948960513976,0.192
0.1408956513966276,0.193
0.1408526571513668,0.194
0.14079947435258816,0.195
0.1407350904736749,0.196
0.14065859324347904,0.197
0.14056923520462247,0.198
0.1404664661411145,0.199
0.1403499228297554,0.2
0.1402193721944278,0.201
0.14007462543315227,0.202
0.13991547896447315,0.203
0.13974173493081643,0.204
0.1395532857296505,0.205
0.13935020149669727,0.206
0.13913278011678384,0.207
0.13890155183067124,0.208
0.13865724478531047,0.209
0.1384007231775833,0.21
0.13813291116931817,0.211
0.13785471744856226,0.212
0.13756698143303403,0.213
0.13727045994536094,0.214
0.13696585061105085,0.215
0.1366538294528908,0.216
0.13633508688620738,0.217
0.13601035952556545,0.218
0.13568045761515118,0.219
0.1353462850302709,0.22
0.13500884645452274,0.221
0.1346692356260268,0.222
0.13432860017544052,0.223
0.13398808773079052,0.224
0.13364879956214765,0.225
0.13331178674920605,0.226
0.13297809022772913,0.227
0.1326487870365361,0.228
0.13232500923592322,0.229
0.13200792878693787,0.23
0.1316987180607775,0.231
0.1313985013422433,0.232
0.13110831305096812,0.233
0.13082907319854523,0.234
0.1305615806645647,0.235
0.1303065180502436,0.236
0.13006446142107395,0.237
0.12983588749735933,0.238
0.12962117289112235,0.239
0.1294205914347083,0.24
0.12923432424832637,0.241
0.1290624880913048,0.242
0.12890517183532138,0.243
0.1287624668473375,0.244
0.1286344814558971,0.245
0.1285213336623538,0.246
0.12842312155491395,0.247
0.12833988618303943,0.248
0.12827159883823572,0.249
0.12821818895516943,0.25
0.12817958984718497,0.251
0.12815577120002314,0.252
0.12814674752568506,0.253
0.12815256566486394,0.254
0.12817327860132727,0.255
0.12820891314901486,0.256
0.12825943664132916,0.257
0.12832472953976243,0.258
0.12840457796375448,0.259
0.1284986951395674,0.26
0.12860676261755008,0.261
0.1287284749063654,0.262
0.1288635760094505,0.263
0.12901187886961518,0.264
0.1291732599466502,0.265
0.12934762524172666,0.266
0.1295348586350953,0.267
0.12973478723936013,0.268
0.12994719252171655,0.269
0.13017185176176882,0.27
0.13040857210992132,0.271
0.13065719842258502,0.272
0.1309175969958349,0.273
0.1311896242409446,0.274
0.13147308913506986,0.275
0.1317677187548258,0.276
0.13207314048452953,0.277
0.1323888891484057,0.278
0.13271442986921997,0.279
0.1330491799313705,0.28
0.13339251933237256,0.281
0.13374378582988342,0.282
0.13410225497538744,0.283
0.13446711636405687,0.284
0.13483746778813419,0.285
0.13521233801045818,0.286
0.1355907243764902,0.287
0.13597162514513533,0.288
0.13635405532500477,0.289
0.13673704003656126,0.29
0.13711958413757686,0.291
0.137500634452187,0.292
0.13787907162911844,0.293
0.13825375227191788,0.294
0.1386235780455693,0.295
0.13898755569122606,0.296
0.1393448289438899,0.297
0.13969467492790272,0.298
0.1400364629503634,0.299
0.14036958668634017,0.3
0.14069340695046498,0.301
0.14100725015081425,0.302
0.1413104650674554,0.303
0.1416024950176901,0.304
0.14188292702095429,0.305
0.14215150650529237,0.306
0.14240811999593828,0.307
0.1426527528819323,0.308
0.14288543128742678,0.309
0.14310615904995339,0.31
0.14331486951208516,0.311
0.14351141738509765,0.312
0.14369561666394012,0.313
0.14386730320644978,0.314
0.14402639809818168,0.315
0.14417295906607697,0.316
0.14430721078480863,0.317
0.14442954509800487,0.318
0.144540485169869,0.319
0.14464061576399256,0.32
0.14473050723555725,0.321
0.1448106884927194,0.322
0.1448816949212044,0.323
0.14494415044553594,0.324
0.14499883007207104,0.325
0.14504668260297465,0.326
0.145088813653884,0.327
0.14512643588561192,0.328
0.14516079843495922,0.329
0.14519311442539962,0.33
0.14522451409686685,0.331
0.14525604053658356,0.332
0.1452886742713786,0.333
0.14532336080046301,0.334
0.14536102947186733,0.335
0.14540260422309723,0.336
0.14544900792469256,0.337
0.14550116032652105,0.338
0.14555996845862634,0.339
0.14562630842298432,0.34
0.14570099882359255,0.341
0.14578477048673166,0.342
0.14587824484909254,0.343
0.1459819326483516,0.344
0.14609624948633995,0.345
0.1462215340618991,0.346
0.14635805948403102,0.347
0.14650603579512447,0.348
0.14666560483920021,0.349
0.14683682987008112,0.35
0.14701968339547988,0.351
0.14721403700933952,0.352
0.14741965592428735,0.353
0.14763619864773142,0.354
0.147863219284407,0.355
0.14810016729070555,0.356
0.14834638124756255,0.357
0.14860108388708557,0.358
0.14886339422367578,0.359
0.14913236238553784,0.36
0.14940701463507064,0.361
0.14968639126814604,0.362
0.1499695652665044,0.363
0.15025563446881657,0.364
0.15054368542705582,0.365
0.1508327450722169,0.366
0.15112176158393378,0.367
0.15140964070147714,0.368
0.15169531219660515,0.369
0.15197778541879686,0.37
0.1522561748294438,0.371
0.15252969065821925,0.372
0.15279759386694305,0.373
0.1530591304305061,0.374
0.15331349026907742,0.375
0.15355983113412755,0.376
0.1537973503929598,0.377
0.1540253522373446,0.378
0.15424327438426286,0.379
0.15445066259129536,0.38
0.15464710288648634,0.381
0.15483215625306812,0.382
0.15500535290984468,0.383
0.15516625082818297,0.384
0.15531450402841493,0.385
0.1554498923911564,0.386
0.15557230242162123,0.387
0.1556816682326046,0.388
0.15577789706068804,0.389
0.155860824771584,0.39
0.15593023330717395,0.391
0.15598590992145123,0.392
0.15602770502296037,0.393
0.15605556457254044,0.394
0.15606952999005155,0.395
0.15606970408805526,0.396
0.1560561908581768,0.397
0.15602903868849954,0.398
0.1559882284645005,0.399
0.15593371482658142,0.4
0.15586548351333612,0.401
0.15578358747140167,0.402
0.15568815089428176,0.403
0.1555793454611761,0.404
0.15545734796346763,0.405
0.1553222900074682,0.406
0.15517421191262187,0.407
0.15501303625451876,0.408
0.15483857008649576,0.409
0.15465052824282555,0.41
0.15444856461931486,0.411
0.15423230578055017,0.412
0.15400138508200184,0.413
0.15375547316660143,0.414
0.153494297826593,0.415
0.15321764509481725,0.416
0.15292533486143678,0.417
0.15261717310221282,0.418
0.1522929058284372,0.419
0.15195221489411273,0.42
0.1515947662615796,0.421
0.15122027724302167,0.422
0.1508285668117788,0.423
0.15041957620074792,0.424
0.14999335952388002,0.425
0.14955004793611804,0.426
0.14908979337937459,0.427
0.14861270641572147,0.428
0.14811881922612138,0.429
0.14760809954183474,0.43
0.14708050498053402,0.431
0.1465360467555844,0.432
0.14597484284219878,0.433
0.14539715268928166,0.434
0.14480338798831965,0.435
0.14419409489088264,0.436
0.1435699055185615,0.437
0.14293146858668238,0.438
0.14227939633182002,0.439
0.1416142723287306,0.44
0.1409367204384407,0.441
0.14024748991692504,0.442
0.13954751601936538,0.443
0.13883794050282117,0.444
0.13812009102162318,0.445
0.13739542663184978,0.446
0.1366654624263685,0.447
0.13593169290834334,0.448
0.13519554214671814,0.449
0.13445835875742332,0.45
0.1337214426990006,0.451
0.13298607710426633,0.452
0.13225355225273727,0.453
0.1315251816612061,0.454
0.13080231180767196,0.455
0.13008632519742105,0.456
0.1293786352286458,0.457
0.12868067114616258,0.458
0.1279938524263484,0.459
0.12731955447285973,0.46
0.12665907500803927,0.461
0.1260136186945902,0.462
0.12538430721842952,0.463
0.1247722000947544,0.464
0.12417830862094438,0.465
0.12360359770105535,0.466
0.12304897694428708,0.467
0.12251528419428666,0.468
0.12200326673955027,0.469
0.12151356675302342,0.47
0.12104671448858925,0.471
0.12060312806031002,0.472
0.12018311941652528,0.473
0.11978690740459819,0.474
0.11941463403674067,0.475
0.11906637611099202,0.476
0.11874214581506211,0.477
0.11844188022740469,0.478
0.1181654311780716,0.479
0.1179125715719507,0.48
0.11768302044581022,0.481
0.11747647347459927,0.482
0.11729262586328011,0.483
0.11713118159569624,0.484
0.1169918463533178,0.485
0.11687430312896536,0.486
0.11677818049593737,0.487
0.11670304221968715,0.488
0.11664841821700703,0.489
0.11661385959921106,0.49
0.11659898621369974,0.491
0.11660350953927463,0.492
0.11662722656502714,0.493
0.11666998778792953,0.494
0.11673164850270194,0.495
0.11681201873174883,0.496
0.11691083301213598,0.497
0.11702775141872827,0.498
0.11716238053013547,0.499
0.11731429705517368,0.5
0.11748306811003784,0.501
0.11766826867256477,0.502
0.11786949584955954,0.503
0.11808637766124472,0.504
0.1183185728256588,0.505
0.1185657578915304,0.506
0.11882759922621093,0.507
0.11910371660047547,0.508
0.1193936628224885,0.509
0.11969694023283572,0.51
0.12001304270068006,0.511
0.12034149486742728,0.512
0.12068187167521481,0.513
0.1210337938734444,0.514
0.12139690078371008,0.515
0.12177080858570136,0.516
0.1221550762292521,0.517
0.12254920604187113,0.518
0.12295268285697754,0.519
0.12336502799832963,0.52
0.12378584337723013,0.521
0.12421483254605283,0.522
0.12465179121231489,0.523
0.12509656342198386,0.524
0.12554898018877989,0.525
0.12600883135332164,0.526
0.12647590520328966,0.527
0.12695006363513736,0.528
0.1274312991923233,0.529
0.1279197515530105,0.53
0.12841568423446095,0.531
0.12891943062941,0.532
0.12943132599713916,0.533
0.12995165201239225,0.534
0.13048061956214269,0.535
0.13101838859470752,0.536
0.13156509805313593,0.537
0.13212088422014862,0.538
0.13268588292903355,0.539
0.13326021762593143,0.54
0.13384397594464498,0.541
0.1344371793563258,0.542
0.13503975623354444,0.543
0.13565153212381373,0.544
0.13627223957259837,0.545
0.13690153377853748,0.546
0.1375390007541013,0.547
0.13818415492911235,0.548
0.13883642834630533,0.549
0.13949515472970106,0.55
0.14015955455690637,0.551
0.14082873114898825,0.552
0.1415016837927151,0.553
0.14217733348756292,0.554
0.14285455330229685,0.555
0.14353219755143956,0.556
0.14420912378147324,0.557
0.14488420013679756,0.558
0.14555629122312225,0.559
0.14622422378473632,0.56
0.14688675522407765,0.561
0.14754257972784054,0.562
0.1481903783900397,0.563
0.1488288819910759,0.564
0.14945691340963696,0.565
0.1500733960804417,0.566
0.15067732782609003,0.567
0.15126772590798995,0.568
0.15184356256187495,0.569
0.15240373064548715,0.57
0.15294706701692515,0.571
0.15347241475270254,0.572
0.1539786865785702,0.573
0.1544649081947954,0.574
0.1549302313268969,0.575
0.15537390856992872,0.576
0.15579523201226078,0.577
0.1561934684527227,0.578
0.156567848858162,0.579
0.15691763057844782,0.58
0.15724218293477726,0.581
0.1575410395434817,0.582
0.1578138987331086,0.583
0.15806057893358444,0.584
0.15828094553928004,0.585
0.1584748317547227,0.586
0.15864198039805277,0.587
0.15878202425000276,0.588
0.158894495380837,0.589
0.15897883917120234,0.59
0.15903442177377175,0.591
0.15906053608711113,0.592
0.15905641515706664,0.593
0.1590212591116883,0.594
0.15895427694632763,0.595
0.1588547386130128,0.596
0.1587220271749644,0.597
0.15855567662235168,0.598
0.1583553797293854,0.599
0.15812095339978494,0.6
0.15785226594632726,0.601
0.15754917102590937,0.602
0.15721151272251221,0.603
0.15683921208453452,0.604
0.15643237686344635,0.605
0.1559913763761995,0.606
0.15551686111147403,0.607
0.15500972964213786,0.608
0.1544710555907487,0.609
0.1539019926234695,0.61
0.1533036807519025,0.611
0.15267718589840223,0.612
0.15202349444282937,0.613
0.15134354977165576,0.614
0.15063830073009563,0.615
0.14990874612911764,0.616
0.14915597308012807,0.617
0.14838118721861462,0.618
0.14758572943351125,0.619
0.14677107185724975,0.62
0.14593878674363814,0.621
0.1450904865244533,0.622
0.14422775374079397,0.623
0.14335210871229473,0.624
0.14246504305767585,0.625
0.14156808569868187,0.626
0.1406628532585017,0.627
0.13975106804811982,0.628
0.13883454594255307,0.629
0.1379151607599548,0.63
0.13699479414332572,0.631
0.1360752823852754,0.632
0.13515837616888293,0.633
0.13424572693896503,0.634
0.13333889622978398,0.635
0.13243936979655827,0.636
0.13154856401415813,0.637
0.13066782382883269,0.638
0.12979841558394628,0.639
0.1289415177782497,0.64
0.12809821215681383,0.641
0.12726947670598435,0.642
0.1264561813410648,0.643
0.125659086512941,0.644
0.12487884466756556,0.645
0.1241160043625723,0.646
0.12337101669886914,0.647
0.12264424343973751,0.648
0.12193596574604305,0.649
0.12124639189818925,0.65
0.12057566182699404,0.651
0.11992384602728297,0.652
0.11929093696011413,0.653
0.11867683636422184,0.654
0.11808135137576929,0.655
0.11750420942563261,0.656
0.11694508509738723,0.657
0.11640362493973586,0.658
0.11587946160846582,0.659
0.11537221298290731,0.66
0.11488146417614871,0.661
0.11440674027412054,0.662
0.11394749451319562,0.663
0.11350313095975054,0.664
0.11307304973921944,0.665
0.11265668975391112,0.666
0.11225355456238861,0.667
0.11186321527903331,0.668
0.11148528725725704,0.669
0.11111938710714578,0.67
0.11076509838515544,0.671
0.11042198059871348,0.672
0.11008962208054557,0.673
0.10976770224876588,0.674
0.10945603231482269,0.675
0.10915456383586328,0.676
0.10886336663194918,0.677
0.10858258352202013,0.678
0.10831237254593117,0.679
0.10805285234144739,0.68
0.10780407195376196,0.681
0.10756601281831997,0.682
0.10733860509004155,0.683
0.10712173898325822,0.684
0.10691526895651644,0.685
0.10671901702260383,0.686
0.10653278076862076,0.687
0.10635634880490799,0.688
0.10618952266918356,0.689
0.1060321408744788,0.69
0.10588409854697296,0.691
0.10574535525506183,0.692
0.10561592444756765,0.693
0.10549584072380175,0.694
0.10538511541277554,0.695
0.10528371482825433,0.696
0.1051915862385793,0.697
0.10510871165946875,0.698
0.105035152963656,0.699
0.1049710712320136,0.7
0.10491671881815606,0.701
0.10487240882982105,0.702
0.10483847082506678,0.703
0.10481520442247666,0.704
0.1048028456067013,0.705
0.10480155690815907,0.706
0.1048114381030777,0.707
0.10483254426723648,0.708
0.10486490336464857,0.709
0.10490853325171898,0.71
0.10496345865313357,0.711
0.10502972625708722,0.712
0.10510741414156961,0.713
0.1051966309749533,0.714
0.10529750114663287,0.715
0.10541013541879204,0.716
0.10553459870728983,0.717
0.10567090016975769,0.718
0.10581901777940966,0.719
0.10597893847725214,0.72
0.10615068885098289,0.721
0.10633434749892218,0.722
0.10653004087507888,0.723
0.10673792735206611,0.724
0.10695817447281941,0.725
0.10719093246652561,0.726
0.10743630605009946,0.727
0.10769433166711348,0.728
0.1079649739233625,0.729
0.10824814685413196,0.73
0.1085437484756055,0.731
0.10885169327704625,0.732
0.10917193415689977,0.733
0.10950446920154937,0.734
0.1098493304448389,0.735
0.11020655448986827,0.736
0.11057614347887332,0.737
0.11095803921566769,0.738
0.11135212894661652,0.739
0.11175827272099632,0.74
0.11217632760241841,0.741
0.11260615605799107,0.742
0.11304761940554463,0.743
0.11350056174084291,0.744
0.11396479006478545,0.745
0.11444005497700872,0.746
0.1149260343151287,0.747
0.11542232019543656,0.748
0.11592840879230132,0.749
0.11644369324950889,0.75
0.11696746227938605,0.751
0.11749890563619929,0.752
0.11803712339150446,0.753
0.11858113465338646,0.754
0.11912988295710988,0.755
0.11968223669356881,0.756
0.1202369837448627,0.757
0.12079282133374235,0.758
0.12134834596589195,0.759
0.12190205051772612,0.76
0.12245232956921268,0.761
0.12299748528563337,0.762
0.12353572656642516,0.763
0.1240651655019162,0.764
0.12458382623992019,0.765
0.1250896766837631,0.766
0.1255806772476865,0.767
0.1260548331914592,0.768
0.1265102389066291,0.769
0.12694510390743652,0.77
0.12735775120046344,0.771
0.12774658178997422,0.772
0.1281100147705921,0.773
0.1284464455127414,0.774
0.12875426952027164,0.775
0.12903196850213836,0.776
0.12927821187547986,0.777
0.12949193449049265,0.778
0.1296723732239689,0.779
0.12981905651531722,0.78
0.1299317495409298,0.781
0.13001036649726372,0.782
0.13005487067394522,0.783
0.13006519525669685,0.784
0.13004121623861445,0.785
0.12998277529649407,0.786
0.12988971991085446,0.787
0.12976193780510248,0.788
0.12959938604109522,0.789
0.1294021213960391,0.79
0.12917033442241796,0.791
0.12890438383205988,0.792
0.12860482246858312,0.793
0.1282724031715517,0.794
0.12790805375557246,0.795
0.12751281548428448,0.796
0.12708776089703622,0.797
0.1266339431916141,0.798
0.1261524201753111,0.799
0.12564432885558957,0.8
0.12511095361180186,0.801
0.12455375777828759,0.802
0.1239743766856979,0.803
0.12337458014140092,0.804
0.12275621559640716,0.805
0.12212114364316894,0.806
0.12147117960951263,0.807
0.12080805898329598,0.808
0.12013343430023572,0.809
0.11944888912350571,0.81
0.11875594976664411,0.811
0.11805608825288025,0.812
0.11735071864059632,0.813
0.11664118985674041,0.814
0.11592877747834318,0.815
0.11521467603633934,0.816
0.11449999262020866,0.817
0.11378574196580474,0.818
0.11307284283543005,0.819
0.11236211530483553,0.82
0.11165427849498928,0.821
0.11094994838514186,0.822
0.11024963611724313,0.823
0.10955374833240519,0.824
0.1088625905310844,0.825
0.10817637238470589,0.826
0.10749521309160531,0.827
0.10681914528540702,0.828
0.10614811606680481,0.829
0.105481984567937,0.83
0.10482051959666341,0.831
0.10416340513415752,0.832
0.10351025816720896,0.833
0.10286065541043127,0.834
0.10221416248276456,0.835
0.10157036037094976,0.836
0.1009288646308805,0.837
0.10028933304379245,0.838
0.09965145858885587,0.839
0.09901494646340711,0.84
0.09837948075245705,0.841
0.09774470133510921,0.842
0.09711021515063847,0.843
0.09647564245600568,0.844
0.095840675833927,0.845
0.09520513101986854,0.846
0.09456897873612195,0.847
0.09393235226958027,0.848
0.09329552964217512,0.849
0.09265889377289241,0.85
0.09202287761162102,0.851
0.09138790783465352,0.852
0.09075437047835884,0.853
0.09012261394633095,0.854
0.08949297759723021,0.855
0.0888658233772986,0.856
0.08824156021281156,0.857
0.08762066056861202,0.858
0.08700366932911383,0.859
0.08639120395624258,0.86
0.08578394435249982,0.861
0.08518261145905984,0.862
0.08458793528475803,0.863
0.08400061963661627,0.864
0.08342132125715919,0.865
0.08285065541331565,0.866
0.08228921697107948,0.867
0.0817375973301063,0.868
0.08119638876658673,0.869
0.08066617744497272,0.87
0.0801475292656139,0.871
0.07964097310513392,0.872
0.07914698504127719,0.873
0.07866597631393472,0.874
0.07819828776951894,0.875
0.07774419162578208,0.876
0.07730389797245409,0.877
0.07687756310473169,0.878
0.0764652984898306,0.879
0.07606717917855539,0.88
0.07568324948296547,0.881
0.07531352330839014,0.882
0.07495797704571805,0.883
0.07461653807320441,0.884
0.07428908098696098,0.885
0.07397544068488927,0.886
0.07367543518500526,0.887
0.07338888470225172,0.888
0.07311562016236878,0.889
0.07285547999109586,0.89
0.07260829649581432,0.891
0.07237387595085164,0.892
0.07215198177915756,0.893
0.07194233277211015,0.894
0.0717446190488424,0.895
0.07155852606639847,0.896
0.07138375602966046,0.897
0.0712200413683468,0.898
0.0710671472547227,0.899
0.07092486085803554,0.9
0.0707929684446402,0.901
0.07067123182921531,0.902
0.07055938434701566,0.903
0.0704571533252279,0.904
0.07036429257586962,0.905
0.07028060555520399,0.906
0.07020595213710071,0.907
0.07014023968740508,0.908
0.07008340205635893,0.909
0.07003537180912581,0.91
0.06999605269097008,0.911
0.06996530145707108,0.912
0.06994292475800279,0.913
0.06992868695136599,0.914
0.06992232046302946,0.915
0.06992353507668593,0.916
0.0699320269492218,0.917
0.06994748850273924,0.918
0.0699696192003433,0.919
0.06999813591161227,0.92
0.0700327803478287,0.921
0.07007332026600621,0.922
0.07011954127281994,0.923
0.07017122741873728,0.924
0.07022813674366248,0.925
0.07028999128918767,0.926
0.07035649542512215,0.927
0.07042737084099547,0.928
0.07050238720135021,0.929
0.07058137778656072,0.93
0.07066423770228802,0.931
0.07075090633236904,0.932
0.07084133893424976,0.933
0.07093547508737014,0.934
0.07103321565236262,0.935
0.07113441862880647,0.936
0.07123891262077249,0.937
0.0713465171392638,0.938
0.07145706178260773,0.939
0.07157040212955304,0.94
0.07168643122675601,0.941
0.0718050844926204,0.942
0.0719263351726015,0.943
0.0720501776261026,0.944
0.07217660098824671,0.945
0.07230556919885271,0.946
0.07243702770849511,0.947
0.07257093672859653,0.948
0.07270730938060378,0.949
0.07284623448367111,0.95
0.07298787585187448,0.951
0.07313244862841156,0.952
0.07328018091026034,0.953
0.07343127905876694,0.954
0.07358591653758191,0.955
0.07374424696889595,0.956
0.07390642229834789,0.957
0.07407260030810636,0.958
0.07424293907993133,0.959
0.07441758183286128,0.96
0.07459663722452423,0.961
0.07478016308602659,0.962
0.07496816153630337,0.963
0.07516058549313769,0.964
0.07535734877882065,0.965
0.07555833363568336,0.966
0.07576339461288376,0.967
0.07597235925886167,0.968
0.07618502531362467,0.969
0.07640115347662198,0.97
0.0766204565584746,0.971
0.0768425913695828,0.972
0.07706716188087524,0.973
0.07729373448254014,0.974
0.07752185804191154,0.975
0.07775108213896026,0.976
0.07798097071154672,0.977
0.07821110963083083,0.978
0.07844110667842592,0.979
0.07867058260444834,0.98
0.078899152723153,0.981
0.07912640307803662,0.982
0.07935187463228531,0.983
0.07957506896050694,0.984
0.07979547251276188,0.985
0.08001258478271579,0.986
0.0802259402085456,0.987
0.08043512110576999,0.988
0.0806397614389203,0.989
0.0808395413871118,0.99
0.08103417258925247,0.991
0.08122337443272584,0.992
0.081406845210458,0.993
0.08158424017965146,0.994
0.08175517104048874,0.995
0.08191922772383228,0.996
0.08207600884273918,0.997
0.08222514804195934,0.998
0.08236633036191744,0.999
0.082499295298767,1.0
0.08262382413847633,1.001
0.08273971110499377,1.002
0.08284672769404369,1.003
0.08294460561248845,1.004
0.08303305484418734,1.005
0.08311180009641574,1.006
0.0831806088869163,1.007
0.08323930059387459,1.008
0.083287737292078,1.009
0.08332580103667049,1.01
0.0833533639074352,1.011
0.08337025876502377,1.012
0.0833762620694863,1.013
0.08337109712816175,1.014
0.08335445458976189,1.015
0.08332602121898991,1.016
0.08328551148425999,1.017
0.08323269849223856,1.018
0.08316743868570743,1.019
0.08308968265087258,1.02
0.08299946454149798,1.021
0.08289686690041745,1.022
0.08278197615254697,1.023
0.08265486857224465,1.024
0.08251564972959935,1.025
0.08236451934723461,1.026
0.08220181911528124,1.027
0.0820280453055409,1.028
0.08184382689228316,1.029
0.08164987820992041,1.03
0.08144694070945893,1.031
0.08123573335038162,1.032
0.08101693010420054,1.033
0.08079116476151346,1.034
0.08055904397114771,1.035
0.08032115376538969,1.036
0.08007805960909187,1.037
0.07983030531097059,1.038
0.0795784150731594,1.039
0.07932290101260873,1.04
0.07906427606175706,1.041
0.07880306968151017,1.042
0.07853984184636055,1.043
0.07827518988689894,1.044
0.07800974337733145,1.045
0.0777441442809312,1.046
0.07747901799019716,1.047
0.07721495591327977,1.048
0.0769525277188526,1.049
0.07669231453671582,1.05
0.07643493936879499,1.051
0.07618108055926204,1.052
0.07593146642014346,1.053
0.07568685501348169,1.054
0.07544800572231003,1.055
0.07521564998767527,1.056
0.07499046893406942,1.057
0.07477308366082557,1.058
0.0745640565404231,1.059
0.07436389569052888,1.06
0.07417305751333605,1.061
0.07399194770699687,1.062
0.0738209225932197,1.063
0.07366029171002092,1.064
0.07351032154323019,1.065
0.07337123924696175,1.066
0.0732432344983606,1.067
0.07312645757279307,1.068
0.07302101259742846,1.069
0.07292694843347051,1.07
0.07284425438971544,1.071
0.07277286503810318,1.072
0.07271266883849933,1.073
0.07266351273593412,1.074
0.07262519973406249,1.075
0.07259748138805147,1.076
0.07258005179541577,1.077
0.07257254920850703,1.078
0.0725745631795279,1.079
0.07258563944739982,1.08
0.07260527763081008,1.081
0.07263292478133203,1.082
0.07266797499190918,1.083
0.07270978108706941,1.084
0.07275767150456336,1.085
0.0728109608368763,1.086
0.07286894734073927,1.087
0.07293089956188459,1.088
0.072996047611113,1.089
0.07306359650021542,1.09
0.07313275972717635,1.091
0.07320279548522199,1.092
0.07327302989572763,1.093
0.0733428585089482,1.094
0.07341172184229844,1.095
0.07347906575208225,1.096
0.07354432273496524,1.097
0.07360694078341405,1.098
0.07366643907620217,1.099
0.07372245174724591,1.1
0.0737747415365505,1.101
0.07382318282202685,1.102
0.07386772137123021,1.103
0.07390832376423012,1.104
0.07394493454740743,1.105
0.07397745760181611,1.106
0.07400576093925612,1.107
0.07402968744438364,1.108
0.07404905863280703,1.109
0.07406367160531618,1.11
0.07407329417862864,1.111
0.07407766261144214,1.112
0.07407648499035419,1.113
0.07406945151123424,1.114
0.07405625092740126,1.115
0.07403659064291969,1.116
0.07401021651509122,1.117
0.07397692752101166,1.118
0.07393658021574398,1.119
0.07388907866188935,1.12
0.07383434786068362,1.121
0.0737723002549487,1.122
0.0737028229192833,1.123
0.073625803988176,1.124
0.07354118148126501,1.125
0.07344898574287263,1.126
0.07334936155488102,1.127
0.07324256706081483,1.128
0.07312895142851132,1.129
0.07300891690240728,1.13
0.07288287482790794,1.131
0.07275121219274513,1.132
0.07261428541091805,1.133
0.07247244068359421,1.134
0.07232604324211309,1.135
0.0721755002336325,1.136
0.07202127170237729,1.137
0.07186386772632819,1.138
0.07170383068507048,1.139
0.07154170604316262,1.14
0.07137801606536084,1.141
0.07121325604612588,1.142
0.0710479151327946,1.143
0.07088250199641796,1.144
0.07071755684865899,1.145
0.0705536452705264,1.146
0.07039133748484958,1.147
0.07023118147033132,1.148
0.07007368323402913,1.149
0.06991930376612045,1.15
0.06976846827505305,1.151
0.06962157617233593,1.152
0.06947900603824479,1.153
0.0693411161973616,1.154
0.069208242819502,1.155
0.06908069670859258,1.156
0.06895875906322047,1.157
0.06884267587796557,1.158
0.06873265047906056,1.159
0.06862883511447336,1.16
0.0685313258551439,1.161
0.06844016509323593,1.162
0.06835535019033108,1.163
0.0682768428666942,1.164
0.06820457574382213,1.165
0.06813845545857174,1.166
0.06807836302832265,1.167
0.06802415205718584,1.168
0.06797564463306119,1.169
0.06793262432368928,1.17
0.06789482705668677,1.171
0.06786193381823769,1.172
0.06783356903798826,1.173
0.06780930276087084,1.174
0.06778865113715386,1.175
0.06777107475084226,1.176
0.06775598075991626,1.177
0.06774273232092082,1.178
0.06773066067478702,1.179
0.06771907239195324,1.18
0.0677072467397272,1.181
0.06769442559787217,1.182
0.06767981158830198,1.183
0.06766259001861659,1.184
0.06764197067933772,1.185
0.06761723339542015,1.186
0.06758776419037053,1.187
0.06755307235426339,1.188
0.06751278060003495,1.189
0.06746658651411433,1.19
0.06741421435930071,1.191
0.06735540088430447,1.192
0.06728993794933168,1.193
0.06721774059246412,1.194
0.06713889612826437,1.195
0.06705367637244003,1.196
0.06696251423614805,1.197
0.06686595372966099,1.198
0.06676458823991482,1.199
0.06665900849943775,1.2
0.06654978129201015,1.201
0.06643745947019462,1.202
0.06632260204342698,1.203
0.06620578702995888,1.204
0.0660876149642147,1.205
0.06596870624848425,1.206
0.06584969466545562,1.207
0.06573121831529656,1.208
0.06561390843168417,1.209
0.06549837620858762,1.21
0.0653851983385085,1.211
0.06527490457523692,1.212
0.06516797298308846,1.213
0.06506483437010104,1.214
0.06496588018811694,1.215
0.06487146784372116,1.216
0.06478192161481006,1.217
0.06469752939766632,1.218
0.0646185359034023,1.219
0.0645451346756549,1.22
0.06447746385294306,1.221
0.06441560827238593,1.222
0.06435960427429577,1.223
0.06430944247450487,1.224
0.06426506744520047,1.225
0.06422637547502659,1.226
0.06419321204584645,1.227
0.06416537069450148,1.228
0.06414259457247698,1.229
0.06412458134162019,1.23
0.06411099109671037,1.231
0.06410145583744242,1.232
0.06409558776965503,1.233
0.06409298277492977,1.234
0.06409321535825618,1.235
0.06409582698987809,1.236
0.06410032145261785,1.237
0.0641061800902452,1.238
0.06411289173632073,1.239
0.06411998198124537,1.24
0.06412703161642604,1.241
0.06413368018115075,1.242
0.0641396141815976,1.243
0.06414454307687412,1.244
0.06414816949143211,1.245
0.06415016397013328,1.246
0.06415015460996366,1.247
0.06414773192415266,1.248
0.06414245912037468,1.249
0.06413388068464865,1.25
0.06412153009890667,1.251
0.06410493996412377,1.252
0.06408365629292251,1.253
0.06405725619792975,1.254
0.06402536534323072,1.255
0.06398766931805508,1.256
0.0639439124074441,1.257
0.06389387857007255,1.258
0.06383735992467618,1.259
0.06377413837741712,1.26
0.06370400431434028,1.261
0.06362680235499207,1.262
0.06354247402256155,1.263
0.06345107837811961,1.264
0.0633527868284213,1.265
0.0632478559645667,1.266
0.06313658607915626,1.267
0.06301927794840019,1.268
0.06289620711081344,1.269
0.06276762696834069,1.27
0.06263378996536595,1.271
0.062494968694114576,1.272
0.062351469119584745,1.273
0.06220363580961224,1.274
0.06205185038972101,1.275
0.061896524523583206,1.276
0.06173808863303554,1.277
0.061576977274241086,1.278
0.061413611580591984,1.279
0.061248381646532936,1.28
0.061081638208303514,1.281
0.06091370160293528,1.282
0.06074488316987631,1.283
0.060575507097801067,1.284
0.06040592440534901,1.285
0.06023651528334465,1.286
0.06006767887927339,1.287
0.05989981263881536,1.288
0.059733289152977584,1.289
0.0595684445022647,1.29
0.059405584170341315,1.291
0.0592449953205056,1.292
0.0590869515934237,1.293
0.05893170661954053,1.294
0.058779481141540135,1.295
0.05863045468662074,1.296
0.05848476870812326,1.297
0.058342535077218385,1.298
0.05820383997173535,1.299
0.05806873997863843,1.3
0.05793725349342766,1.301
0.0578093543195697,1.302
0.0576849730315864,1.303
0.05756400443919552,1.304
0.05744631542284279,1.305
0.057331749745865995,1.306
0.05722012935364298,1.307
0.0571112526693804,1.308
0.05700489065388532,1.309
0.05690078129340704,1.31
0.056798623053608936,1.311
0.05669806939368172,1.312
0.05659872900327007,1.313
0.05650017460738842,1.314
0.05640195747671195,1.315
0.05630362258691053,1.316
0.05620472104233446,1.317
0.05610481763247456,1.318
0.05600349186963318,1.319
0.0559003313602486,1.32
0.05579491724485063,1.321
0.05568680699566675,1.322
0.055575529159879164,1.323
0.055460600475303476,1.324
0.05534155782608535,1.325
0.055217990419292415,1.326
0.05508956318440479,1.327
0.05495602601916875,1.328
0.054817204932261464,1.329
0.05467297394912507,1.33
0.05452321780215187,1.331
0.05436781314404119,1.332
0.05420664728788966,1.333
0.05403965807783773,1.334
0.053866866847411765,1.335
0.05368839270487909,1.336
0.05350444807585748,1.337
0.05331531878988997,1.338
0.053121333741929906,1.339
0.05292283089318133,1.34
0.05272013015702762,1.341
0.05251352374672274,1.342
0.052303283052670055,1.343
0.05208966954860623,1.344
0.05187294014186712,1.345
0.051653346273688255,1.346
0.05143112972788635,1.347
0.05120651830821431,1.348
0.050979724041464836,1.349
0.05075094541136579,1.35
0.050520373531521945,1.351
0.0502882004968364,1.352
0.05005462684945177,1.353
0.04981986452618821,1.354
0.04958413208712271,1.355
0.04934764181292709,1.356
0.04911058578716012,1.357
0.0488731338743954,1.358
0.04863544775320635,1.359
0.04839770029703387,1.36
0.04816008838962516,1.361
0.04792283558340358,1.362
0.047686185815882874,1.363
0.0474503903889731,1.364
0.047215691195995106,1.365
0.046982306465978396,1.366
0.04675042795267104,1.367
0.046520231971203564,1.368
0.04629189618339752,1.369
0.04606561271639329,1.37
0.04584159316384719,1.371
0.04562006390904272,1.372
0.04540125226121617,1.373
0.04518536993245404,1.374
0.04497260675628629,1.375
0.04476314039722248,1.376
0.04455715211525242,1.377
0.04435483635204105,1.378
0.04415640092837796,1.379
0.04396206022996669,1.38
0.043772024983357256,1.381
0.043586491966939096,1.382
0.0434056356865237,1.383
0.04322960248874214,1.384
0.04305850656240833,1.385
0.0428924270579657,1.386
0.04273140582764442,1.387
0.04257544566467929,1.388
0.04242450931937411,1.389
0.042278519742042206,1.39
0.04213736158239293,1.391
0.0420008834218604,1.392
0.04186890016550979,1.393
0.041741195236647856,1.394
0.041617522374883975,1.395
0.04149760705831543,1.396
0.04138114795363847,1.397
0.04126781927123761,1.398
0.041157275268374864,1.399
0.041049158098084355,1.4
0.0409431094749159,1.401
0.04083878521115604,1.402
0.04073586995471403,1.403
0.040634088088641995,1.404
0.04053320632887347,1.405
0.040433024380466434,1.406
0.040333355517781694,1.407
0.04023401125588324,1.408
0.04013480784214417,1.409
0.040035594451392584,1.41
0.03993628536864143,1.411
0.039836880890310636,1.412
0.03973747208879531,1.413
0.03963823035912588,1.414
0.039539385049606586,1.415
0.03944119362978359,1.416
0.03934391255912523,1.417
0.0392477824976715,1.418
0.03915303392815873,1.419
0.039059901814699635,1.42
0.03896863517417571,1.421
0.03887949733677669,1.422
0.038792758163709626,1.423
0.03870868090914546,1.424
0.038627509004676874,1.425
0.03854945969082085,1.426
0.038474726073573697,1.427
0.03840348112919988,1.428
0.03833587727729919,1.429
0.03827204177521774,1.43
0.03821207359992521,1.431
0.03815604676281438,1.432
0.0381040189190114,1.433
0.038056040842898826,1.434
0.03801216414832018,1.435
0.037972446420316594,1.436
0.03793695317641011,1.437
0.037905755983732144,1.438
0.0378789260925274,1.439
0.03785652424027026,1.44
0.03783859131493355,1.441
0.03782514700210077,1.442
0.0378161975972624,1.443
0.03781174608971276,1.444
0.03781179813349834,1.445
0.037816363008086655,1.446
0.03782545161810677,1.447
0.03783907386337785,1.448
0.03785723682787261,1.449
0.037879943763847825,1.45
0.037907192523769805,1.451
0.03793897151799882,1.452
0.03797525263479534,1.453
0.038015984856583813,1.454
0.03806109493470071,1.455
0.038110496324335434,1.456
0.03816410029332612,1.457
0.03822182275053546,1.458
0.03828358416184475,1.459
0.03834930242360878,1.46
0.038418881559472734,1.461
0.03849220393381328,1.462
0.0385691328396191,1.463
0.03864952315913446,1.464
0.03873323197726194,1.465
0.03882012381656666,1.466
0.03891006940959335,1.467
0.03900293901419352,1.468
0.039098592262536876,1.469
0.03919686745908457,1.47
0.03929757462803111,1.471
0.039400495973571065,1.472
0.039505393519648435,1.473
0.03961202112564098,1.474
0.03972013891486998,1.475
0.03982952879331614,1.476
0.03994000861360876,1.477
0.04005144122885274,1.478
0.04016373434479084,1.479
0.04027682806181309,1.48
0.04039067341278942,1.481
0.04050521794035392,1.482
0.04062041460807286,1.483
0.040736249581138535,1.484
0.040852769844100446,1.485
0.040970097602427716,1.486
0.04108842874359942,1.487
0.04120801771928667,1.488
0.04132915324449691,1.489
0.04145213103993498,1.49
0.041577233196538846,1.491
0.04170472287768882,1.492
0.04183485275140736,1.493
0.04196787677816808,1.494
0.04210405771963431,1.495
0.04224366899644192,1.496
0.042386991737331,1.497
0.042534308066055224,1.498
0.042685891933909426,1.499
0.04284199909051837,1.5
0.043002857912498416,1.501
0.04316866258308066,1.502
0.04333956945529978,1.503
0.0435156964143111,1.504
0.04369712389692543,1.505
0.04388389549974129,1.506
0.04407601769499568,1.507
0.04427346195205182,1.508
0.044476172595562934,1.509
0.04468407843184008,1.51
0.04489710280620188,1.511
0.045115167870786045,1.512
0.04533819104881198,1.513
0.045566074841494275,1.514
0.045798696518467116,1.515
0.04603590652952604,1.516
0.04627753712706962,1.517
0.04652341352307045,1.518
0.04677336001913329,1.519
0.0470271985878739,1.52
0.047284740097215755,1.521
0.047545771854368986,1.522
0.04781005088264039,1.523
0.04807730984331269,1.524
0.04834727081210911,1.525
0.048619657248666244,1.526
0.04889419908929914,1.527
0.04917062997260288,1.528
0.04944867739899954,1.529
0.049728048870466605,1.53
0.05000842047525135,1.531
0.05028943457256865,1.532
0.05057070624947745,1.533
0.05085183145314877,1.534
0.05113239056467764,1.535
0.0514119452485463,1.536
0.05169002996556808,1.537
0.05196614411548912,1.538
0.05223975175100054,1.539
0.052510288746047816,1.54
0.05277717065340065,1.541
0.05303979570952922,1.542
0.0532975412872662,1.543
0.05354975573190816,1.544
0.0537957538846217,1.545
0.054034826658244946,1.546
0.05426626610265429,1.547
0.054489397987767044,1.548
0.054703612458826614,1.549
0.0549083845635934,1.55
0.05510327706439972,1.551
0.055287919855458716,1.552
0.055461973042357914,1.553
0.05562510511438361,1.554
0.05577701512352225,1.555
0.05591748646381354,1.556
0.0560464356888949,1.557
0.05616393382824141,1.558
0.056270196510554586,1.559
0.05636554882799644,1.56
0.05645037547521609,1.561
0.05652507123106327,1.562
0.05659001150600663,1.563
0.056645552084816544,1.564
0.05669204477533855,1.565
0.05672985077715844,1.566
0.05675934584343949,1.567
0.056780918929143005,1.568
0.056794966693058876,1.569
0.056801885705434575,1.57
0.0568020636301184,1.571
0.05679587014856689,1.572
0.056783648060369535,1.573
0.056765704839124936,1.574
0.05674230502822518,1.575
0.05671366465237934,1.576
0.05667994953872925,1.577
0.0566412779279956,1.578
0.056597725086125955,1.579
0.056549326981646664,1.58
0.05649608077249827,1.581
0.056437942002393236,1.582
0.05637482396243783,1.583
0.05630660677501237,1.584
0.05623315661785597,1.585
0.056154348040609446,1.586
0.0560700815294253,1.587
0.055980290289585524,1.588
0.055884931881790195,1.589
0.055783967408408006,1.59
0.05567734600515511,1.591
0.055565015057471114,1.592
0.055446953720122344,1.593
0.055323207765746625,1.594
0.05519390851779277,1.595
0.05505927149805584,1.596
0.05491957789136696,1.597
0.054775145150922966,1.598
0.05462629441063702,1.599
0.05447332440919292,1.6
0.054316501740936794,1.601
0.05415606819149439,1.602
0.05399225519369221,1.603
0.053825296418947795,1.604
0.053655436111347744,1.605
0.05348293291907532,1.606
0.05330805854808617,1.607
0.05313109053981285,1.608
0.05295229904066273,1.609
0.05277193074807411,1.61
0.05259019892452518,1.611
0.05240728618144154,1.612
0.05222335512501154,1.613
0.05203855687032489,1.614
0.051853032778671704,1.615
0.05166690988517464,1.616
0.051480291864396455,1.617
0.05129324886433499,1.618
0.051105812617470124,1.619
0.050917981953337625,1.62
0.05072973671397,1.621
0.050541054279524426,1.622
0.050351924420639106,1.623
0.050162359227433534,1.624
0.049972394717725736,1.625
0.04978208125005836,1.626
0.0495914655013731,1.627
0.04940057884852169,1.628
0.04920944773519599,1.629
0.04901812215343572,1.63
0.04882670395575885,1.631
0.04863536159118312,1.632
0.048444327636982774,1.633
0.048253881181691785,1.634
0.04806432009074479,1.635
0.0478759325202592,1.636
0.04768898221495494,1.637
0.04750371456959544,1.638
0.04732037338087312,1.639
0.04713921517342272,1.64
0.04696051679399601,1.641
0.0467845762281634,1.642
0.046611706756633425,1.643
0.04644222489605705,1.644
0.04627643465007153,1.645
0.0461146154242547,1.646
0.045957021572804,1.647
0.04580389236206047,1.648
0.04565546287776604,1.649
0.04551196866798456,1.65
0.04537364303157522,1.651
0.04524070894177318,1.652
0.045113368364271274,1.653
0.044991792130477985,1.654
0.04487611383186099,1.655
0.04476642916632076,1.656
0.044662798428802684,1.657
0.044565249175123785,1.658
0.04447377836863175,1.659
0.044388354668840224,1.66
0.044308921341049017,1.661
0.044235399633352726,1.662
0.04416769181009381,1.663
0.04410568259049203,1.664
0.044049237690194365,1.665
0.04399819882633805,1.666
0.04395237747204113,1.667
0.043911553445018035,1.668
0.04387548193089551,1.669
0.04384390492746206,1.67
0.0438165607868561,1.671
0.04379318859465346,1.672
0.043773526090223495,1.673
0.04375730101057205,1.674
0.0437442205902436,1.675
0.04373397014842761,1.676
0.04372622691585629,1.677
0.04372068165568876,1.678
0.04371705606672533,1.679
0.043715108811909216,1.68
0.0437146269833811,1.681
0.043715406351964005,1.682
0.04371723627561045,1.683
0.043719906056526155,1.684
0.04372322941972157,1.685
0.04372706844424882,1.686
0.04373134395765658,1.687
0.043736030630710396,1.688
0.04374114047956891,1.689
0.043746700089277515,1.69
0.04375272759686882,1.691
0.04375921645706354,1.692
0.043766130631695495,1.693
0.04377340855501406,1.694
0.04378096919875776,1.695
0.04378871695835129,1.696
0.04379654619330622,1.697
0.04380434691739125,1.698
0.043812012121604405,1.699
0.04381944594476578,1.7
0.043826570741417256,1.701
0.04383333039305741,1.702
0.04383968721115209,1.703
0.04384561058833582,1.704
0.04385106051203741,1.705
0.04385597820319959,1.706
0.043860294303870014,1.707
0.04386394871644191,1.708
0.043866907872186396,1.709
0.0438691716100788,1.71
0.043870769146842896,1.711
0.04387174695305818,1.712
0.043872152676057936,1.713
0.04387201904239272,1.714
0.04387135079205585,1.715
0.043870116967240524,1.716
0.043868249399706016,1.717
0.04386564604329517,1.718
0.04386217738549178,1.719
0.04385769554499589,1.72
0.043852046189310274,1.721
0.0438450825614904,1.722
0.043836679758248925,1.723
0.04382674646496099,1.724
0.043815230844734904,1.725
0.04380211749757282,1.726
0.043787413522101894,1.727
0.04377112766828652,1.728
0.043753258046292445,1.729
0.043733803046231805,1.73
0.043712790470356276,1.731
0.04369030710727713,1.732
0.043666516172768274,1.733
0.043641658445194804,1.734
0.04361603794119938,1.735
0.04358999639909207,1.736
0.0435638838217519,1.737
0.04353803578617326,1.738
0.043512766671878686,1.739
0.04348837700999809,1.74
0.04346516438560073,1.741
0.043443430465992215,1.742
0.04342348313439561,1.743
0.043405634624161714,1.744
0.04339019633916726,1.745
0.04337747100950269,1.746
0.043367743020120725,1.747
0.04336126871315,1.748
0.043358269885220166,1.749
0.04335893220633092,1.75
0.043363405781351255,1.751
0.043371804531401846,1.752
0.043384206061061026,1.753
0.043400655422379135,1.754
0.043421171735828566,1.755
0.04344575352955461,1.756
0.04347437986824137,1.757
0.043507006537312834,1.758
0.04354356007467752,1.759
0.04358393665071182,1.76
0.04362801031276336,1.761
0.04367564686670882,1.762
0.04372671661911727,1.763
0.04378110189034718,1.764
0.04383869744023696,1.765
0.04389940353623156,1.766
0.04396311325327723,1.767
0.04402969817957502,1.768
0.0440989994297606,1.769
0.044170828226275535,1.77
0.04424497295084683,1.771
0.044321207440227245,1.772
0.044399299107530724,1.773
0.04447901780986887,1.774
0.04456014581321809,1.775
0.04464248774230698,1.776
0.044725877940699856,1.777
0.044810181707293485,1.778
0.04489528682465001,1.779
0.04498108628390478,1.78
0.04506746476350815,1.781
0.045154305548718854,1.782
0.04524151791456711,1.783
0.04532906746006514,1.784
0.04541699366471918,1.785
0.04550540960643171,1.786
0.04559448572706673,1.787
0.04568442294729984,1.788
0.04577542327560053,1.789
0.04586766888968007,1.79
0.04596131698984765,1.791
0.046056506130956354,1.792
0.04615336377440238,1.793
0.046252009865631646,1.794
0.04635255706358613,1.795
0.04645510957877114,1.796
0.04655976203942212,1.797
0.0466665990195999,1.798
0.04677569503212548,1.799
0.046887114115988435,1.8
0.04700090779099001,1.801
0.047117110216200776,1.802
0.047235730457849366,1.803
0.04735674497258106,1.804
0.0474800959428693,1.805
0.04760569715852314,1.806
0.04773344249907786,1.807
0.047863211739454334,1.808
0.04799487235557838,1.809
0.04812827811790733,1.81
0.048263265424506915,1.811
0.04839964793940991,1.812
0.048537209741558035,1.813
0.048675698677879124,1.814
0.04881482464350297,1.815
0.0489542661023896,1.816
0.049093682101961765,1.817
0.04923272453040883,1.818
0.04937104703823106,1.819
0.04950830814009851,1.82
0.049644166614196114,1.821
0.0497782696411753,1.822
0.04991024022183247,1.823
0.050039675271416756,1.824
0.050166158644410964,1.825
0.05028928066248375,1.826
0.05040865389717192,1.827
0.050523920906032575,1.828
0.050634753043521316,1.829
0.050740840729704556,1.83
0.05084187686293215,1.831
0.05093753759804277,1.832
0.051027468526088575,1.833
0.05111128256993523,1.834
0.051188566414713664,1.835
0.05125888671467648,1.836
0.05132179107036157,1.837
0.0513768037093977,1.838
0.05142341762887632,1.839
0.05146108618365119,1.84
0.05148921749299532,1.841
0.05150717310758294,1.842
0.05151427262477847,1.843
0.051509808295834084,1.844
0.05149307099529646,1.845
0.05146338347079834,1.846
0.051420133979457994,1.847
0.05136280210727822,1.848
0.05129096825320777,1.849
0.05120429992788738,1.85
0.0511025173722268,1.851
0.05098536328787136,1.852
0.05085261126004681,1.853
0.050704116718485945,1.854
0.05053987764568708,1.855
0.05036007305343302,1.856
0.05016506792361702,1.857
0.049955386845578216,1.858
0.04973166517567867,1.859
0.049494591650910094,1.86
0.04924486256150679,1.861
0.048983165767432085,1.862
0.04871019259370652,1.863
0.04842665712207201,1.864
0.04813330752682859,1.865
0.04783092773296665,1.866
0.04752033251891406,1.867
0.04720235897924713,1.868
0.0468778566982551,1.869
0.04654767826228675,1.87
0.04621267101420293,1.871
0.04587367033674063,1.872
0.04553149430560844,1.873
0.045186939299195754,1.874
0.04484077607781982,1.875
0.044493745913939974,1.876
0.04414655651126666,1.877
0.04379987820608559,1.878
0.0434543422919337,1.879
0.04311054288141353,1.88
0.042769041249893995,1.881
0.04243037062614449,1.882
0.04209504037550183,1.883
0.041763539181711856,1.884
0.041436336915623206,1.885
0.041113884962610536,1.886
0.040796614920914354,1.887
0.040484935764173176,1.888
0.04017922978300653,1.889
0.03987984806802427,1.89
0.039587106975382896,1.891
0.039301286723541495,1.892
0.039022631437746945,1.893
0.038751349329169384,1.894
0.03848761356196676,1.895
0.03823156490187346,1.896
0.03798331517886623,1.897
0.037742949502536385,1.898
0.037510525937030456,1.899
0.03728607313330943,1.9
0.037069589026595656,1.901
0.036861043541037565,1.902
0.036660384071310885,1.903
0.036467539946321494,1.904
0.03628242333348489,1.905
0.03610492608924768,1.906
0.035934914723058695,1.907
0.03577222835885425,1.908
0.03561668209851898,1.909
0.035468071871531226,1.91
0.03532617540412314,1.911
0.03519074867444321,1.912
0.03506152269878714,1.913
0.03493820529479436,1.914
0.03482048579220019,1.915
0.034708036565420416,1.916
0.03460050973518434,1.917
0.03449753534952552,1.918
0.034398727640482483,1.919
0.034303697080901224,1.92
0.03421206077932157,1.921
0.03412344669142826,1.922
0.034037491055112175,1.923
0.033953830470686494,1.924
0.03387209112083793,1.925
0.03379187909054,1.926
0.03371277697197059,1.927
0.0336343489141887,1.928
0.033556151059865695,1.929
0.03347774369842459,1.93
0.03339870373419678,1.931
0.03331863637384893,1.932
0.03323718396396613,1.933
0.03315402926132214,1.934
0.03306889043553821,1.935
0.032981506410548346,1.936
0.032891618080603056,1.937
0.03279896112836604,1.938
0.03270328021878046,1.939
0.03260435391220686,1.94
0.032502013789972556,1.941
0.032396151224943985,1.942
0.032286712538685744,1.943
0.032173685846907225,1.944
0.03205708376715489,1.945
0.03193692543435539,1.946
0.031813220737764325,1.947
0.03168596071170568,1.948
0.03155511711715316,1.949
0.031420649468373064,1.95
0.031282514930700424,1.951
0.03114067842312006,1.952
0.03099512232931992,1.953
0.030845855187850754,1.954
0.030692918002464726,1.955
0.030536386285612047,1.956
0.030376365813076525,1.957
0.030212980534560778,1.958
0.030046356070842238,1.959
0.029876611542327496,1.96
0.029703869495944068,1.961
0.029528276300873024,1.962
0.029350018196388487,1.963
0.029169325824435672,1.964
0.028986467216440007,1.965
0.02880173228580827,1.966
0.028615414258136018,1.967
0.028427795793593894,1.968
0.02823914562563215,1.969
0.02804972368164852,1.97
0.027859787710795125,1.971
0.02766959728379343,1.972
0.027479415045972143,1.973
0.027289506042490048,1.974
0.027100135519199396,1.975
0.026911565181534935,1.976
0.02672404767338348,1.977
0.02653782035932398,1.978
0.02635310239056667,1.979
0.026170098185781938,1.98
0.025989004932535437,1.981
0.02581001922863826,1.982
0.025633340198217978,1.983
0.02545916863570735,1.984
0.025287702835326383,1.985
0.02511913237839441,1.986
0.024953631761338285,1.987
0.02479135661658048,1.988
0.02463244435879282,1.989
0.024477018090183947,1.99
0.02432519123684697,1.991
0.02417707146225543,1.992
0.024032763283698716,1.993
0.023892368880322715,1.994
0.02375598662252395,1.995
0.023623707111227684,1.996
0.023495607911375328,1.997
0.023371750701066084,1.998
0.02325218395416638,1.999
0.02313694958394352,2.0
0.023026089493968366,2.001
0.02291964945679233,2.002
0.0228176794200459,2.003
0.022720230262702132,2.004
0.02262734785228353,2.005
0.022539066308664323,2.006
0.02245540337760067,2.007
0.022376359549088377,2.008
0.022301919234500152,2.009
0.0222320511866739,2.01
0.02216670726302754,2.011
0.022105820581789247,2.012
0.022049304423817535,2.013
0.021997052097732093,2.014
0.02194893750341654,2.015
0.021904817124774083,2.016
0.021864534065008812,2.017
0.021827923058455587,2.018
0.02179481455463556,2.019
0.021765036324096723,2.02
0.02173841160327645,2.021
0.02171475456729302,2.022
0.02169386741430329,2.023
0.021675543656673017,2.024
0.021659576789285696,2.025
0.021645769189222192,2.026
0.021633936889590675,2.027
0.021623908101343476,2.028
0.021615515772023274,2.029
0.021608589297159506,2.03
0.021602954007846255,2.031
0.021598441420408225,2.032
0.02159490373024169,2.033
0.021592224595032856,2.034
0.02159032251287967,2.035
0.021589145839457202,2.036
0.021588660245327494,2.037
0.021588833936597912,2.038
0.021589631195271006,2.039
0.021591019853513353,2.04
0.021592986064028173,2.041
0.02159554724088187,2.042
0.021598759869227147,2.043
0.021602721688293077,2.044
0.021607567918782152,2.045
0.02161346179249541,2.046
0.021620580641544106,2.047
0.021629101247887177,2.048
0.021639191126098526,2.049
0.021651009152115343,2.05
0.02166471069541596,2.051
0.021680450662792245,2.052
0.021698382650286896,2.053
0.02171865558146807,2.054
0.02174140981727059,2.055
0.021766774580840132,2.056
0.021794867915783004,2.057
0.021825799449984352,2.058
0.021859675214230784,2.059
0.021896602945076053,2.06
0.02193669596121424,2.061
0.021980074025206343,2.062
0.02202686052647486,2.063
0.02207717648981918,2.064
0.022131133289602322,2.065
0.0221888271364245,2.066
0.022250337148819965,2.067
0.022315725256656406,2.068
0.02238503544652032,2.069
0.022458292931203893,2.07
0.02253550438132045,2.071
0.022616658388187827,2.072
0.02270172720209334,2.073
0.022790672912395307,2.074
0.022883457758310567,2.075
0.02298005451412453,2.076
0.023080453261592842,2.077
0.023184662807110575,2.078
0.023292706677122674,2.079
0.023404614818480978,2.08
0.023520413349804366,2.081
0.02364011654663314,2.082
0.02376372494114196,2.083
0.023891228784985265,2.084
0.024022612244918827,2.085
0.02415785488103373,2.086
0.02429692972938024,2.087
0.0244397987709096,2.088
0.024586408157814973,2.089
0.024736686612223186,2.09
0.02489054775797248,2.091
0.025047893082075143,2.092
0.025208612032175087,2.093
0.025372579049452823,2.094
0.025539650797677515,2.095
0.025709667070372682,2.096
0.025882454907247197,2.097
0.026057832490142093,2.098
0.02623561049807314,2.099
0.026415590681568315,2.1
0.02659756232019228,2.101
0.026781297648219484,2.102
0.026966548023962814,2.103
0.027153042658733632,2.104
0.027340489814734185,2.105
0.027528578353755776,2.106
0.027716977770451286,2.107
0.027905336550003563,2.108
0.028093280538462485,2.109
0.028280413678635607,2.11
0.028466321510064587,2.111
0.028650575295017196,2.112
0.02883273421766244,2.113
0.029012343947878765,2.114
0.029188932495204566,2.115
0.02936200908452111,2.116
0.029531071127113742,2.117
0.029695616538008576,2.118
0.029855154767210183,2.119
0.030009212622603466,2.12
0.03015733398786857,2.121
0.03029907439652385,2.122
0.030433992594370025,2.123
0.03056164128286245,2.124
0.030681558465458034,2.125
0.030793260922412646,2.126
0.03089624297662804,2.127
0.030989983239549743,2.128
0.031073958632482978,2.129
0.031147663237904244,2.13
0.031210629595259352,2.131
0.03126244913421321,2.132
0.031302787169468334,2.133
0.03133138749847434,2.134
0.031348062353236054,2.135
0.03135266829333222,2.136
0.03134508236219742,2.137
0.03132520234285471,2.138
0.03129297747276799,2.139
0.031248448703693116,2.14
0.03119177516891558,2.141
0.031123238154191112,2.142
0.03104322385084494,2.143
0.030952190696640312,2.144
0.03085063132406003,2.145
0.030739043945301414,2.146
0.03061792474203551,2.147
0.030487777209355093,2.148
0.03034912395946139,2.149
0.030202512091687284,2.15
0.03004851195183064,2.151
0.02988771173528683,2.152
0.029720710131572008,2.153
0.029548108671694655,2.154
0.029370504816531126,2.155
0.0291884862539934,2.156
0.029002626441237172,2.157
0.028813481172050445,2.158
0.02862158586302098,2.159
0.02842745329160348,2.16
0.02823157168758626,2.161
0.02803440344421832,2.162
0.027836384943332876,2.163
0.027637927543464093,2.164
0.027439419163544875,2.165
0.027241225951345895,2.166
0.027043693896189828,2.167
0.02684715034512861,2.168
0.026651905321225116,2.169
0.02645825249481651,2.17
0.026266469640212012,2.171
0.026076818434364116,2.172
0.025889543527755538,2.173
0.025704870934326093,2.174
0.02552300599923365,2.175
0.025344131645954074,2.176
0.025168407833247787,2.177
0.02499597234155965,2.178
0.024826941903564857,2.179
0.024661412710983713,2.18
0.024499460021251678,2.181
0.024341137316533125,2.182
0.02418647623211793,2.183
0.024035488109744308,2.184
0.023888166541954893,2.185
0.023744489669192445,2.186
0.023604421437924933,2.187
0.023467911312393012,2.188
0.023334892535641926,2.189
0.023205280845771357,2.19
0.02307897649040638,2.191
0.022955869969958038,2.192
0.02283584873026451,2.193
0.022718801454722087,2.194
0.022604617736736606,2.195
0.022493183215135586,2.196
0.022384374837093525,2.197
0.022278062956627525,2.198
0.022174121024735267,2.199
0.02207243654716139,2.2
0.0219729172451053,2.201
0.02187549048005575,2.202
0.021780096572412196,2.203
0.02168667837602236,2.204
0.02159517238472178,2.205
0.021505507650126703,2.206
0.021417613240048317,2.207
0.021331428178707142,2.208
0.02124690769781231,2.209
0.021164023231373855,2.21
0.02108275584848979,2.211
0.021003085971144364,2.212
0.020924987018936036,2.213
0.020848428679592055,2.214
0.020773385889373004,2.215
0.02069984540433,2.216
0.020627806066501265,2.217
0.02055727318917252,2.218
0.020488249673067557,2.219
0.02042072802160613,2.22
0.020354686697693355,2.221
0.020290090162133033,2.222
0.020226888991292494,2.223
0.020165018328442398,2.224
0.02010439584957348,2.225
0.020044920616179702,2.226
0.01998647307936305,2.227
0.019928916158562245,2.228
0.019872097382791658,2.229
0.0198158520776491,2.23
0.01976000780068111,2.231
0.01970439031058015,2.232
0.019648830815551795,2.233
0.019593173336186546,2.234
0.019537280316419946,2.235
0.019481034584856505,2.236
0.01942433647555214,2.237
0.019367095982841337,2.238
0.01930922257658693,2.239
0.019250619732798083,2.24
0.01919118984880131,2.241
0.019130846826952902,2.242
0.019069529729016366,2.243
0.019007213884073927,2.244
0.018943918195843235,2.245
0.018879707600972975,2.246
0.018814689749659448,2.247
0.018749005730369337,2.248
0.018682815931084305,2.249
0.018616284834579954,2.25
0.018549571880746428,2.251
0.01848283259592307,2.252
0.018416225626801997,2.253
0.018349918794616882,2.254
0.018284091643631845,2.255
0.0182189350354103,2.256
0.018154648834248797,2.257
0.018091438631997133,2.258
0.018029512216068726,2.259
0.01796907619622718,2.26
0.017910332950496353,2.261
0.017853477872314564,2.262
0.017798696813475887,2.263
0.017746163613246786,2.264
0.01769603790014753,2.265
0.017648463915794898,2.266
0.01760357087966316,2.267
0.017561474275503978,2.268
0.017522277012819415,2.269
0.017486069976685625,2.27
0.017452931946460377,2.271
0.017422929007707998,2.272
0.017396113644463654,2.273
0.01737252372887595,2.274
0.017352181623765117,2.275
0.017335093579184366,2.276
0.017321249537676654,2.277
0.01731062337607009,2.278
0.017303173527542605,2.279
0.017298843870957453,2.28
0.017297564754305834,2.281
0.017299254020591844,2.282
0.017303817901130638,2.283
0.017311151623212766,2.284
0.017321139572244845,2.285
0.017333654897694457,2.286
0.017348558577610432,2.287
0.017365698127437695,2.288
0.01738490629291156,2.289
0.017406000149874656,2.29
0.017428781020999245,2.291
0.01745303550784053,2.292
0.017478537730422867,2.293
0.01750505257976148,2.294
0.017532339473883586,2.295
0.017560155869736395,2.296
0.01758825972740936,2.297
0.017616410267615283,2.298
0.01764436661998898,2.299
0.01767188422246324,2.3
0.017698710113510478,2.301
0.01772458077462249,2.302
0.01774922573357931,2.303
0.017772375801051603,2.304
0.017793772645251574,2.305
0.01781317767743741,2.306
0.017830379125744,2.307
0.017845196109138577,2.308
0.017857478500933912,2.309
0.017867101628733537,2.31
0.017873955765303685,2.311
0.017877934330618163,2.312
0.01787893009836361,2.313
0.017876844785650145,2.314
0.017871605775933882,2.315
0.01786318034800457,2.316
0.017851582816354593,2.317
0.01783687359006642,2.318
0.01781915080388135,2.319
0.017798536631457456,2.32
0.017775161880628842,2.321
0.01774915430234153,2.322
0.017720635111495183,2.323
0.017689722462900802,2.324
0.01765653630001828,2.325
0.017621200855115527,2.326
0.017583844504802364,2.327
0.017544597792209037,2.328
0.017503590376922958,2.329
0.017460947546847825,2.33
0.01741678677696795,2.331
0.017371214691146546,2.332
0.017324324686769435,2.333
0.0172761953940232,2.334
0.017226890026468576,2.335
0.017176456523331978,2.336
0.01712492820240351,2.337
0.01707232447321587,2.338
0.017018651062449777,2.339
0.016963899592554735,2.34
0.016908047475217028,2.341
0.01685105952205433,2.342
0.016792891379580968,2.343
0.01673349354711734,2.344
0.016672814639495156,2.345
0.016610802926512944,2.346
0.016547405485077993,2.347
0.016482564916157842,2.348
0.016416215397137418,2.349
0.01634828181923999,2.35
0.01627868402715087,2.351
0.016207343848156697,2.352
0.01613419138612228,2.353
0.016059168626394955,2.354
0.015982229287060296,2.355
0.01590333417390295,2.356
0.015822443800098666,2.357
0.015739514758328854,2.358
0.015654505088904737,2.359
0.015567385150249411,2.36
0.015478146283790442,2.361
0.01538680283671905,2.362
0.015293386733959163,2.363
0.015197937273819684,2.364
0.0151004933666674,2.365
0.015001094524185424,2.366
0.014899788427972458,2.367
0.014796637544943998,2.368
0.014691719974234631,2.369
0.014585123871464654,2.37
0.014476938734251509,2.371
0.014367251249045889,2.372
0.014256150508490748,2.373
0.01414373792623358,2.374
0.014030134465493048,2.375
0.013915482337947517,2.376
0.013799941526334186,2.377
0.013683682573748485,2.378
0.013566877933114023,2.379
0.01344969502117365,2.38
0.013332293663122165,2.381
0.013214827559675452,2.382
0.013097446839227478,2.383
0.01298029970077056,2.384
0.012863533182492552,2.385
0.01274729364562818,2.386
0.012631727267927462,2.387
0.012516980509763406,2.388
0.012403200301002818,2.389
0.012290533666308723,2.39
0.012179126626236178,2.391
0.01206912239402457,2.392
0.011960659055300938,2.393
0.011853867139265397,2.394
0.01174886783216409,2.395
0.011645772508734978,2.396
0.011544683369009462,2.397
0.011445694270968058,2.398
0.011348891162770361,2.399
0.011254352104150376,2.4
0.0111621470720801,2.401
0.011072337754540846,2.402
0.01098497752236083,2.403
0.010900111719582464,2.404
0.010817778311607728,2.405
0.010738008795385157,2.406
0.010660829170548369,2.407
0.010586260759749149,2.408
0.010514320751658961,2.409
0.01044502244249595,2.41
0.010378375178831025,2.411
0.010314383951502193,2.412
0.010253048579561727,2.413
0.010194362593521895,2.414
0.010138312237427631,2.415
0.010084876183502515,2.416
0.010034026322515651,2.417
0.009985729416222316,2.418
0.009939948876677748,2.419
0.009896645871723914,2.42
0.009855779390733474,2.421
0.009817305497438948,2.422
0.009781176313930945,2.423
0.009747339131688378,2.424
0.009715735585462324,2.425
0.009686300741629773,2.426
0.00965896285033367,2.427
0.009633645135724157,2.428
0.009610269802840753,2.429
0.009588762709753094,2.43
0.00956905669171311,2.431
0.009551092055860026,2.432
0.009534813668179865,2.433
0.009520166028553434,2.434
0.009507090132656116,2.435
0.009495524489935164,2.436
0.009485407950845673,2.437
0.009476680765012263,2.438
0.009469282830717992,2.439
