VaMe,time
0.011446593082208608,0.001
0.01355714942596997,0.002
0.015676868707892602,0.003
0.01780453846486857,0.004
0.019938949988028924,0.005
0.022078897105192112,0.006
0.024223170729134786,0.007
0.026370558831450133,0.008
0.02851985878973363,0.009
0.030669896445055224,0.01
0.03281954117896329,0.011
0.03496771037528959,0.012
0.03711336091341824,0.013
0.03925546905931943,0.014
0.04139300665913013,0.015
0.04352492711933871,0.016
0.04565016644287718,0.017
0.04776764894003059,0.018
0.04987628668433257,0.019
0.051974972731595744,0.02
0.054062574252404565,0.021
0.05613793228889388,0.022
0.05819987305436962,0.023
0.06024723194839141,0.024
0.062278886667273985,0.025
0.06429379120763891,0.026
0.06629099964485746,0.027
0.06826966856112739,0.028
0.07022903033508271,0.029
0.07216834703784139,0.03
0.0740868859256352,0.031
0.07598395183262413,0.032
0.07785895869889628,0.033
0.0797114954983496,0.034
0.08154136026261931,0.035
0.08334855583552837,0.036
0.08513325043413582,0.037
0.0868957118430721,0.038
0.08863623480177629,0.039
0.090355097733098,0.04
0.09205257279048534,0.041
0.09372896965746058,0.042
0.09538467602396705,0.043
0.09702017599951827,0.044
0.09863604348149785,0.045
0.10023291248252283,0.046
0.10181143064316836,0.047
0.1033722123738403,0.048
0.10491581662945514,0.049
0.1064427564504987,0.05
0.10795351662835409,0.051
0.10944855421518992,0.052
0.11092827987225092,0.053
0.11239303897606812,0.054
0.11384311367760513,0.055
0.1152787453269018,0.056
0.11670015652521205,0.057
0.11810755536698977,0.058
0.11950111748356972,0.059
0.12088095679568284,0.06
0.1222471118350967,0.061
0.12359956395413539,0.062
0.12493827065134752,0.063
0.12626318789835547,0.064
0.12757427096762383,0.065
0.1288714545158207,0.066
0.13015461952058202,0.067
0.1314235644317648,0.068
0.13267799823603468,0.069
0.13391755410349926,0.07
0.13514180492920252,0.071
0.13635026597046224,0.072
0.13754238147785955,0.073
0.13871750284976436,0.074
0.13987487802050963,0.075
0.14101366685196096,0.076
0.14213297311339193,0.077
0.14323187285740058,0.078
0.14430942646971087,0.079
0.14536466791561486,0.08
0.14639657537150322,0.081
0.1474040517786215,0.082
0.14838595096725396,0.083
0.14934115146967478,0.084
0.15026864632581602,0.085
0.15116761544235635,0.086
0.15203745726573073,0.087
0.1528777636746178,0.088
0.15368824001182127,0.089
0.15446861972433992,0.09
0.15521865731424622,0.091
0.1559382240166424,0.092
0.15662743381224933,0.093
0.1572867172875531,0.094
0.15791681317991896,0.095
0.15851868366885677,0.096
0.15909338751534108,0.097
0.15964198103980326,0.098
0.1601655068001733,0.099
0.16066505134635287,0.1
0.1611418002544189,0.101
0.16159704394931573,0.102
0.16203213029160793,0.103
0.16244838915531304,0.104
0.16284708038903914,0.105
0.1632294002258028,0.106
0.16359652091937432,0.107
0.1639496151788896,0.108
0.16428984614785716,0.109
0.16461832959019193,0.11
0.16493608762499384,0.111
0.16524402360793577,0.112
0.16554293389170116,0.113
0.1658335396613539,0.114
0.16611651472779979,0.115
0.1663925008160699,0.116
0.1666621101867589,0.117
0.1669259159320495,0.118
0.16718443055298882,0.119
0.16743807577539413,0.12
0.16768715518492872,0.121
0.16793184784996573,0.122
0.16817222759432388,0.123
0.16840829094208454,0.124
0.16863997504388012,0.125
0.16886715871489824,0.126
0.16908964671710616,0.127
0.1693071428145754,0.128
0.16951922740956793,0.129
0.16972535853343065,0.13
0.1699248982198416,0.131
0.17011714838725975,0.132
0.1703013813441963,0.133
0.17047685852013944,0.134
0.17064283393094512,0.135
0.17079853894564195,0.136
0.1709431483528712,0.137
0.1710757439798023,0.138
0.17119531088497228,0.139
0.17130078418697112,0.14
0.1713911228779491,0.141
0.17146537591949487,0.142
0.1715227232825666,0.143
0.17156248671283875,0.144
0.17158410979466118,0.145
0.17158711022518608,0.146
0.17157101096428357,0.147
0.17153527360851,0.148
0.17147927945650196,0.149
0.17140238318171075,0.15
0.17130401059406783,0.151
0.17118375694757673,0.152
0.17104146195033343,0.153
0.1708772476879723,0.154
0.1706915079684267,0.155
0.170484843559028,0.156
0.17025795528438287,0.157
0.1700115467148481,0.158
0.1697463083490252,0.159
0.1694629956221421,0.16
0.16916253564877085,0.161
0.16884609968744468,0.162
0.16851512329594923,0.163
0.16817127835196163,0.164
0.16781640593559027,0.165
0.16745242181212416,0.166
0.16708121886349347,0.167
0.16670461181599444,0.168
0.1663243508981555,0.169
0.16594217398528288,0.17
0.16555984914789207,0.171
0.16517918727796777,0.172
0.16480202479197215,0.173
0.16443018231792197,0.174
0.1640654126655621,0.175
0.1637093616594148,0.176
0.16336355943565714,0.177
0.16302943177381235,0.178
0.16270830489218677,0.179
0.16240139379586818,0.18
0.16210979126288158,0.181
0.16183447769764864,0.182
0.16157634858693287,0.183
0.16133624056292936,0.184
0.16111494420086353,0.185
0.16091320286748836,0.186
0.1607317015341762,0.187
0.16057105007408576,0.188
0.1604317641217136,0.189
0.16031424519072704,0.19
0.16021876506068103,0.191
0.1601454651603243,0.192
0.1600943768076497,0.193
0.16006545471818967,0.194
0.16005861145306555,0.195
0.16007374461686802,0.196
0.160110752229204,0.197
0.1601695346233358,0.198
0.16024998429839415,0.199
0.16035196671918475,0.2
0.16047529467578375,0.201
0.16061969766408093,0.202
0.16078479281234656,0.203
0.1609700752136319,0.204
0.16117494037861405,0.205
0.16139872846380585,0.206
0.16164077083430817,0.207
0.1619004263340313,0.208
0.1621770981255006,0.209
0.16247022300524783,0.21
0.16277923023256347,0.211
0.16310348701157598,0.212
0.1634422751773388,0.213
0.16379482568228945,0.214
0.16416038108783584,0.215
0.1645382413441981,0.216
0.16492777515848603,0.217
0.16532839654054934,0.218
0.16573951278026197,0.219
0.1661604687987215,0.22
0.1665905341864873,0.221
0.16702895653927666,0.222
0.16747505024156514,0.223
0.16792827403279884,0.224
0.16838827062642656,0.225
0.16885485515815118,0.226
0.16932794698450185,0.227
0.16980747235591342,0.228
0.1702933184430035,0.229
0.17078539402264678,0.23
0.1712837479076411,0.231
0.1717886609607418,0.232
0.1723006736764892,0.233
0.1728205461152093,0.234
0.1733491607827204,0.235
0.17388740632187902,0.236
0.1744361156715186,0.237
0.17499610107777203,0.238
0.17556823876854669,0.239
0.1761535320035571,0.24
0.17675312409475097,0.241
0.1773682611722804,0.242
0.17800021655961584,0.243
0.17865021198793382,0.244
0.179319386906673,0.245
0.18000882998113432,0.246
0.18071962821575016,0.247
0.18145288702286022,0.248
0.18220971086864252,0.249
0.18299115524336004,0.25
0.1837981729995169,0.251
0.18463158741629687,0.252
0.18549210394614973,0.253
0.18638033642269863,0.254
0.1872968198910275,0.255
0.1882420029256774,0.256
0.18921622349640055,0.257
0.19021967912081553,0.258
0.19125241065113646,0.259
0.19231431046062855,0.26
0.19340514327032554,0.261
0.1945245624808505,0.262
0.19567211507390533,0.263
0.19684723309966523,0.264
0.19804921399305658,0.265
0.19927720479433908,0.266
0.20053021109286973,0.267
0.20180713344848303,0.268
0.20310681255795712,0.269
0.20442806311688275,0.27
0.20576968522290942,0.271
0.20713044858917165,0.272
0.20850905087518695,0.273
0.2099040667913264,0.274
0.211313923636024,0.275
0.21273692390960558,0.276
0.214171294008536,0.277
0.21561522879309383,0.278
0.21706692171868955,0.279
0.21852457983058468,0.28
0.21998642265621518,0.281
0.22145066413313824,0.282
0.22291547734346412,0.283
0.22437894475850514,0.284
0.22583901116167565,0.285
0.22729347409007444,0.286
0.2287400295807794,0.287
0.23017634871623052,0.288
0.2316001481863817,0.289
0.2330092334674142,0.29
0.23440150335198026,0.291
0.23577491004998466,0.292
0.23712738252307158,0.293
0.23845675156486396,0.294
0.23976073562711017,0.295
0.2410370041105571,0.296
0.24228326883936507,0.297
0.2434973479574703,0.298
0.24467717998737865,0.299
0.24582078582248845,0.3
0.24692618687613246,0.301
0.2479913158702837,0.302
0.24901398949151418,0.303
0.24999197838629889,0.304
0.25092312746109424,0.305
0.2518054571237515,0.306
0.25263720944873425,0.307
0.2534168248619757,0.308
0.25414284664452,0.309
0.25481379499341605,0.31
0.25542811621746814,0.311
0.25598427249876665,0.312
0.2564809039306577,0.313
0.2569169542068108,0.314
0.2572917119099813,0.315
0.25760476320384457,0.316
0.25785586827852863,0.317
0.25804480588439616,0.318
0.2581712794756556,0.319
0.25823495598114377,0.32
0.25823559834381465,0.321
0.2581731982162265,0.322
0.2580480524739139,0.323
0.2578607653968778,0.324
0.25761217287648863,0.325
0.25730320679018953,0.326
0.2569347668926194,0.327
0.25650769411839075,0.328
0.2560228631876767,0.329
0.25548130864659735,0.33
0.2548842975027705,0.331
0.2542333211533625,0.332
0.2535300122656065,0.333
0.2527760188931696,0.334
0.25197291339311984,0.335
0.2511222093084957,0.336
0.25022547002661627,0.337
0.24928442615724375,0.338
0.24830103855416888,0.339
0.24727748520146345,0.34
0.24621607128454925,0.341
0.24511909942759083,0.342
0.24398879591213804,0.343
0.24282736194588603,0.344
0.24163709941421907,0.345
0.24042051314571183,0.346
0.23918034384652903,0.347
0.2379195319112713,0.348
0.23664112946671914,0.349
0.23534818650732106,0.35
0.23404364805658198,0.351
0.2327303064754719,0.352
0.2314108206144348,0.353
0.23008776390695473,0.354
0.22876366277316898,0.355
0.22744101677413275,0.356
0.22612230393311752,0.357
0.22480997345107398,0.358
0.22350642727692174,0.359
0.2222139923030649,0.36
0.2209348862928325,0.361
0.21967118220675677,0.362
0.21842477713977085,0.363
0.21719737269769412,0.364
0.21599046922522785,0.365
0.21480536851909363,0.366
0.21364317810468433,0.367
0.21250481524933154,0.368
0.21139101220508363,0.369
0.21030232350424163,0.37
0.20923913428125054,0.371
0.20820166716663016,0.372
0.20718998486986695,0.373
0.20620398621468677,0.374
0.2052433967839534,0.375
0.2043077627306087,0.376
0.20339645898239261,0.377
0.2025087131581964,0.378
0.20164363502551283,0.379
0.20080023923834664,0.38
0.19997745160856537,0.381
0.19917409359222202,0.382
0.19838885668854217,0.383
0.19762030092754504,0.384
0.1968668993436166,0.385
0.19612710901562763,0.386
0.19539943582149552,0.387
0.19468247578206177,0.388
0.1939749259534989,0.389
0.19327555992027576,0.39
0.19258316737123818,0.391
0.1918964825181595,0.392
0.19121416356821644,0.393
0.19053486191053268,0.394
0.18985734148485015,0.395
0.1891805828312514,0.396
0.18850383660814762,0.397
0.18782661321697836,0.398
0.18714860565969443,0.399
0.1864695715644492,0.4
0.185789249697195,0.401
0.1851073806430547,0.402
0.18442381015945722,0.403
0.18373859249849922,0.404
0.18305203748924895,0.405
0.18236468852526905,0.406
0.18167724036141694,0.407
0.1809904254944251,0.408
0.18030492231730255,0.409
0.17962132879422343,0.41
0.17894018659045488,0.411
0.17826200215006918,0.412
0.1775872350165844,0.413
0.17691626046656986,0.414
0.17624932728807344,0.415
0.175586530050891,0.416
0.17492780579317105,0.417
0.17427295548850588,0.418
0.17362168553456972,0.419
0.17297365869585551,0.42
0.1723285394811936,0.421
0.17168602046667963,0.422
0.17104582085429174,0.423
0.17040765423871862,0.424
0.16977117740863196,0.425
0.16913595741962514,0.426
0.16850149140292459,0.427
0.1678672682527465,0.428
0.16723283129311925,0.429
0.16659781186028888,0.43
0.16596192114919556,0.431
0.16532489989444094,0.432
0.16468645477063693,0.433
0.16404624364275106,0.434
0.1634039415420545,0.435
0.16275934302486558,0.436
0.16211243569102207,0.437
0.1614634124668497,0.438
0.16081261587110637,0.439
0.16016043959995185,0.44
0.15950726257019024,0.441
0.15885347833021135,0.442
0.15819959137530637,0.443
0.15754630427701302,0.444
0.15689455489059478,0.445
0.15624550267732779,0.446
0.1556004770690068,0.447
0.15496090321173878,0.448
0.1543282189880288,0.449
0.15370380363967678,0.45
0.1530889493996228,0.451
0.15248488839527732,0.452
0.15189284706910644,0.453
0.15131409416108185,0.454
0.15074996916052444,0.455
0.15020188881359703,0.456
0.14967133121222528,0.457
0.14915979924969394,0.458
0.14866876941053642,0.459
0.1481996435766623,0.46
0.1477537309735138,0.461
0.1473322676901113,0.462
0.14693644829361374,0.463
0.14656744187222887,0.464
0.14622638423796402,0.465
0.14591435084846394,0.466
0.14563232625048123,0.467
0.14538119330287647,0.468
0.14516174879871346,0.469
0.14497472576281864,0.47
0.14482080105994963,0.471
0.14470058262336274,0.472
0.14461458490534412,0.473
0.1445632128218082,0.474
0.1445467674839033,0.475
0.14456546235844542,0.476
0.14461943059079835,0.477
0.14470871705451382,0.478
0.1448332611047388,0.479
0.14499288301322374,0.48
0.14518728416728002,0.481
0.14541605842096678,0.482
0.14567870610659941,0.483
0.14597464772934893,0.484
0.14630323925322572,0.485
0.14666379009047326,0.486
0.14705558116333242,0.487
0.14747787618841557,0.488
0.14792991705743197,0.489
0.14841089900288337,0.49
0.14891994038626333,0.491
0.14945607938756963,0.492
0.15001831031393964,0.493
0.15060563394676663,0.494
0.1512170915285783,0.495
0.15185177343594872,0.496
0.1525088080336862,0.497
0.15318734114657345,0.498
0.15388651679228973,0.499
0.15460546526686744,0.5
0.15534329776094152,0.501
0.15609910135190191,0.502
0.15687192720008575,0.503
0.1576607674231474,0.504
0.1584645246646623,0.505
0.15928199408936514,0.506
0.1601118807152222,0.507
0.16095285355258437,0.508
0.1618036192534653,0.509
0.16266299863957512,0.51
0.16352999338461027,0.511
0.16440382889993208,0.512
0.1652839590028154,0.513
0.16617002212566406,0.514
0.16706175211649618,0.515
0.16795888210642995,0.516
0.16886111175771862,0.517
0.16976816466637057,0.518
0.17067987866801634,0.519
0.17159626134971598,0.52
0.17251749056225357,0.521
0.1734438698532419,0.522
0.1743757581859919,0.523
0.1753134953192572,0.524
0.1762573391180001,0.525
0.1772074220054614,0.526
0.1781637255396309,0.527
0.17912606943936077,0.528
0.18009411383018606,0.529
0.1810673747537507,0.53
0.18204525065062277,0.531
0.18302705486813747,0.532
0.18401204762753892,0.533
0.18499946000777248,0.534
0.18598850303475284,0.535
0.18697835697917098,0.536
0.1879681390269713,0.537
0.1889568599281323,0.538
0.1899434009832403,0.539
0.1909265338397599,0.54
0.1919049643257017,0.541
0.19287736527871477,0.542
0.1938423800654048,0.543
0.1947985940105089,0.544
0.19574449215934012,0.545
0.1966784492064229,0.546
0.19759878014816476,0.547
0.19850382347268733,0.548
0.19939200803068782,0.549
0.20026187452653602,0.55
0.20111203910785128,0.551
0.2019411145808741,0.552
0.2027476565544788,0.553
0.20353020009949432,0.554
0.20428736742020295,0.555
0.2050179712483635,0.556
0.20572106454641356,0.557
0.20639592683378172,0.558
0.20704199577737575,0.559
0.20765876171991746,0.56
0.2082456631313176,0.561
0.20880204516496023,0.562
0.20932721110402244,0.563
0.20982052375367571,0.564
0.21028149751959307,0.565
0.21070985331543776,0.566
0.2111055245397052,0.567
0.21146860661004638,0.568
0.2117992585228662,0.569
0.21209760509364342,0.57
0.2123637146623635,0.571
0.21259767037114927,0.572
0.2127996684187552,0.573
0.2129700743925488,0.574
0.21310941887402912,0.575
0.21321834133135664,0.576
0.21329749898584932,0.577
0.2133474744571945,0.578
0.2133687379792008,0.579
0.21336169198337773,0.58
0.21332676016576133,0.581
0.21326446769049714,0.582
0.21317548775568507,0.583
0.21306064488286852,0.584
0.21292086912922548,0.585
0.21275711049333815,0.586
0.2125702593966476,0.587
0.2123611382095066,0.588
0.21213057452664075,0.589
0.21187949528633185,0.59
0.21160898143074408,0.591
0.21132026521652306,0.592
0.21101467729405873,0.593
0.21069355934457804,0.594
0.21035817218809694,0.595
0.21000964755344578,0.596
0.20964900818762286,0.597
0.20927722379271407,0.598
0.20889525768939582,0.599
0.20850408746789684,0.6
0.2081046983044828,0.601
0.2076980498331956,0.602
0.2072850241322578,0.603
0.20686637929225504,0.604
0.20644274122744444,0.605
0.20601463837182932,0.606
0.20558254761478373,0.607
0.20514691951537048,0.608
0.20470817037455682,0.609
0.20426664509501036,0.61
0.20382258012604162,0.611
0.20337611272898493,0.612
0.2029273503435395,0.613
0.20247646248297332,0.614
0.20202374777536142,0.615
0.2015696485147255,0.616
0.20111470085572725,0.617
0.20065944309559514,0.618
0.2002043627207908,0.619
0.19974994874175694,0.62
0.19929681147219172,0.621
0.19884578108870882,0.622
0.19839793756423504,0.623
0.1979545693030723,0.624
0.19751707766658474,0.625
0.19708686193571873,0.626
0.1966652384976644,0.627
0.1962534310939204,0.628
0.195852609581186,0.629
0.19546392515611152,0.63
0.19508851523515117,0.631
0.1947274803053311,0.632
0.19438184544953876,0.633
0.19405252185978383,0.634
0.1937402830527236,0.635
0.19344576586561646,0.636
0.1931694978186522,0.637
0.192911942219944,0.638
0.19267354430468983,0.639
0.19245475923528216,0.64
0.1922560468843633,0.641
0.1920778312314809,0.642
0.19192045108860867,0.643
0.1917841519637634,0.644
0.19166913835895474,0.645
0.1915756493733846,0.646
0.19150401268777603,0.647
0.19145466070821832,0.648
0.1914281100876911,0.649
0.19142491119515556,0.65
0.19144557932383566,0.651
0.19149053237658517,0.652
0.19156006969156736,0.653
0.19165440195852732,0.654
0.19177370210981587,0.655
0.191918143572111,0.656
0.19208791374593578,0.657
0.19228320223620815,0.658
0.19250416720287034,0.659
0.19275088716186894,0.66
0.193023313260888,0.661
0.19332124421220953,0.662
0.19364433203365708,0.663
0.19399210143502896,0.664
0.19436396507818202,0.665
0.19475923296402278,0.666
0.1951771202418161,0.667
0.19561675578382287,0.668
0.19607719117493289,0.669
0.19655740654379344,0.67
0.19705630644419206,0.671
0.19757269922796214,0.672
0.19810526925540792,0.673
0.19865257667322866,0.674
0.19921310907906195,0.675
0.19978536389913923,0.676
0.20036792119923288,0.677
0.20095948097456498,0.678
0.20155885291053213,0.679
0.20216489679524174,0.68
0.2027764360688682,0.681
0.20339220199005079,0.682
0.20401085172557332,0.683
0.2046310346894344,0.684
0.2052514530486435,0.685
0.2058708941616694,0.686
0.20648823989763274,0.687
0.2071024615082437,0.688
0.20771260394855712,0.689
0.2083177577542585,0.69
0.20891701355421616,0.691
0.20950940158772086,0.692
0.21009384331182862,0.693
0.21066915662685515,0.694
0.21123412352104162,0.695
0.21178758408741008,0.696
0.21232851698384925,0.697
0.21285608498837466,0.698
0.21336963433470787,0.699
0.21386864256592425,0.7
0.21435262464214572,0.701
0.21482104182486822,0.702
0.21527328029636908,0.703
0.2157087166869119,0.704
0.21612681228786848,0.705
0.21652717282134315,0.706
0.21690955111995877,0.707
0.21727379341987685,0.708
0.21761974776910642,0.709
0.2179471856781981,0.71
0.2182557947043467,0.711
0.2185452415397871,0.712
0.21881524617470294,0.713
0.21906561503116614,0.714
0.2192962170578173,0.715
0.21950691333422323,0.716
0.21969748355443902,0.717
0.2198676097198931,0.718
0.22001692906354278,0.719
0.22014510248160332,0.72
0.22025184408147422,0.721
0.22033689601432035,0.722
0.220399962659664,0.723
0.22044064831211713,0.724
0.22045845096968714,0.725
0.22045281612042616,0.726
0.22042320065005006,0.727
0.22036910043010893,0.728
0.22029002654741384,0.729
0.2201854428258544,0.73
0.22005471104236082,0.731
0.21989709621579692,0.732
0.21971183027154445,0.733
0.21949818225558554,0.734
0.21925549285841833,0.735
0.2189831622927853,0.736
0.21868059584864605,0.737
0.2183471287736281,0.738
0.2179819822064671,0.739
0.21758429409172436,0.74
0.2171532085653864,0.741
0.21668797166206838,0.742
0.21618799646955822,0.743
0.21565287983391632,0.744
0.21508236101104242,0.745
0.21447623053548223,0.746
0.2138342411588761,0.747
0.21315609874170796,0.748
0.21244155064460338,0.749
0.21169050288478966,0.75
0.21090309378327884,0.751
0.21007969945665123,0.752
0.20922087473358644,0.753
0.20832724658805699,0.754
0.2073994050394594,0.755
0.20643786254428084,0.756
0.20544311027900267,0.757
0.20441571682133414,0.758
0.2033564009566975,0.759
0.2022660513786879,0.76
0.20114569015249578,0.761
0.1999963886997721,0.762
0.19881917465085902,0.763
0.1976149956746167,0.764
0.19638476624678583,0.765
0.19512944515546463,0.766
0.19385008275467833,0.767
0.19254782217283348,0.768
0.19122386411766068,0.769
0.18987940867344114,0.77
0.18851558996391146,0.771
0.1871334283446542,0.772
0.18573382625933693,0.773
0.184317609165361,0.774
0.18288558636672314,0.775
0.18143860798989395,0.776
0.1799776070905436,0.777
0.17850362015509028,0.778
0.17701777995894724,0.779
0.1755212773389366,0.78
0.17401529764165277,0.781
0.17250096190270217,0.782
0.17097931920361203,0.783
0.1694514028179465,0.784
0.16791831075747637,0.785
0.16638126700227102,0.786
0.16484164640593318,0.787
0.16330096207147066,0.788
0.16176082029947075,0.789
0.16022285276570408,0.79
0.1586886445307689,0.791
0.1571596901822857,0.792
0.1556373992998331,0.793
0.15412313411563214,0.794
0.15261824669170387,0.795
0.15112409970848215,0.796
0.14964206939659175,0.797
0.14817353256030863,0.798
0.146719840734374,0.799
0.1452822856855976,0.8
0.14386206491015394,0.801
0.14246026203251463,0.802
0.1410778492699877,0.803
0.13971569972741432,0.804
0.1383745926742739,0.805
0.13705520751553002,0.806
0.13575811638342952,0.807
0.13448379080742265,0.808
0.13323262674411607,0.809
0.13200497625637547,0.81
0.130801171973061,0.811
0.12962153717866617,0.812
0.12846637904492827,0.813
0.12733596511458586,0.814
0.12623049245030973,0.815
0.1251500747777324,0.816
0.12409476623864485,0.817
0.12306460928325857,0.818
0.12205968239568117,0.819
0.1210801345090438,0.82
0.12012619996055643,0.821
0.11919818980122526,0.822
0.11829645917200556,0.823
0.11742135829518795,0.824
0.11657318848761826,0.825
0.11575218931040475,0.826
0.1149585590132231,0.827
0.11419248233586221,0.828
0.11345414257824057,0.829
0.11274371348980934,0.83
0.11206133616958273,0.831
0.11140709029965688,0.832
0.11078097273795165,0.833
0.11018289200943951,0.834
0.10961267377855066,0.835
0.10907006564980302,0.836
0.10855473536216605,0.837
0.10806626379911817,0.838
0.10760413821511922,0.839
0.10716775105592193,0.84
0.1067564041424914,0.841
0.10636931296796995,0.842
0.10600560774401036,0.843
0.1056643326639338,0.844
0.10534444740836077,0.845
0.10504483484700401,0.846
0.10476431688451969,0.847
0.10450167723082533,0.848
0.10425568674397788,0.849
0.10402512481921203,0.85
0.10380878962019388,0.851
0.10360549104106655,0.852
0.10341402589790896,0.853
0.1032331514214434,0.854
0.10306158826398562,0.855
0.10289806718545517,0.856
0.10274139757668761,0.857
0.10259052516824038,0.858
0.10244455804420177,0.859
0.10230275083722987,0.86
0.10216444811170018,0.861
0.10202901429322961,0.862
0.1018958056404758,0.863
0.10176421249216366,0.864
0.10163373385069785,0.865
0.10150403170466654,0.866
0.10137494437958808,0.867
0.10124645854606427,0.868
0.10111864657838245,0.869
0.10099159267569435,0.87
0.10086535417418938,0.871
0.10073998515901944,0.872
0.10061559367495528,0.873
0.10049238988033792,0.874
0.10037070935727059,0.875
0.10025101079061084,0.876
0.10013384912944735,0.877
0.1000198275288461,0.878
0.09990954172194806,0.879
0.099803547740343,0.88
0.09970237444225719,0.881
0.09960656379698976,0.882
0.09951670671619922,0.883
0.09943345877307186,0.884
0.09935753410167503,0.885
0.0992896803561481,0.886
0.09923064043868048,0.887
0.09918111356024525,0.888
0.0991417367145977,0.889
0.0991130964553997,0.89
0.09909575511727288,0.891
0.09909027057695997,0.892
0.0990972017751544,0.893
0.09911709979096316,0.894
0.09915048619993838,0.895
0.09919782686563802,0.896
0.09925951937668256,0.897
0.09933590539091436,0.898
0.09942729605544795,0.899
0.09953399169485401,0.9
0.09965628726873839,0.901
0.09979446199411461,0.902
0.09994875690403947,0.903
0.10011935495114507,0.904
0.10030638134644224,0.905
0.10050992461214611,0.906
0.1007300610422522,0.907
0.10096686769455165,0.908
0.1012204199982802,0.909
0.10149077548870415,0.91
0.10177794902802283,0.911
0.10208189293594204,0.912
0.10240249837843919,0.913
0.10273962056145126,0.914
0.10309311402264869,0.915
0.10346286364227024,0.916
0.10384880372682045,0.917
0.10425092079669769,0.918
0.10466923772433444,0.919
0.10510378012484792,0.92
0.10555453576592067,0.921
0.10602143228088946,0.922
0.10650435035250605,0.923
0.10700315954762366,0.924
0.10751775434631021,0.925
0.10804808069831681,0.926
0.10859415063932867,0.927
0.10915604269572678,0.928
0.10973388695255747,0.929
0.11032783626967789,0.93
0.11093802785158706,0.931
0.11156454461807501,0.932
0.11220739294083978,0.933
0.11286650655856173,0.934
0.113541766755852,0.935
0.1142330229467738,0.936
0.1149401072876479,0.937
0.11566284295304366,0.938
0.11640104580803219,0.939
0.11715451852541417,0.94
0.11792303610077931,0.941
0.11870632265639385,0.942
0.11950402556891983,0.943
0.1203157024763859,0.944
0.12114083002853622,0.945
0.12197882210009106,0.946
0.12282903988110172,0.947
0.12369078732000964,0.948
0.12456329490728087,0.949
0.12544570348097261,0.95
0.12633706291371435,0.951
0.1272363475389929,0.952
0.12814247445876667,0.953
0.1290543104943868,0.954
0.12997066185789807,0.955
0.13089025321807232,0.956
0.13181171929524416,0.957
0.13273362529862165,0.958
0.13365450083684996,0.959
0.13457285875784866,0.96
0.13548718418786546,0.961
0.13639590604299445,0.962
0.1372973917038935,0.963
0.13818999058898115,0.964
0.13907209945544022,0.965
0.1399422035627592,0.966
0.14079886880206363,0.967
0.14164069062257348,0.968
0.14246624928408122,0.969
0.14327413253970472,0.97
0.14406302413311595,0.971
0.1448317946771028,0.972
0.14557953886994904,0.973
0.146305540136825,0.974
0.14700918020346024,0.975
0.14768985857836228,0.976
0.1483469971279102,0.977
0.14898013098017393,0.978
0.14958901300170288,0.979
0.15017366699013013,0.98
0.15073436711579927,0.981
0.1512715482468572,0.982
0.1517856913347672,0.983
0.15227727257959017,0.984
0.1527468208157847,0.985
0.1531950204228245,0.986
0.15362277674455405,0.987
0.15403121855106242,0.988
0.15442164762876107,0.989
0.1547954537590777,0.99
0.15515402152579977,0.991
0.15549866668215792,0.992
0.15583062781914853,0.993
0.15615109789329495,0.994
0.1564612595586903,0.995
0.1567623055490258,0.996
0.15705544414545755,0.997
0.1573418941167697,0.998
0.1576228726369002,0.999
0.1578995784273988,1.0
0.15817317126481306,1.001
0.15844474832183567,1.002
0.15871531758758048,1.003
0.15898577205512238,1.004
0.15925687597632154,1.005
0.1595292722735653,1.006
0.15980350466868104,1.007
0.16008003992214814,1.008
0.16035928067619493,1.009
0.16064156526527604,1.01
0.16092715420872553,1.011
0.1612162069972083,1.012
0.16150875907046838,1.013
0.1618047121270469,1.014
0.16210384027870622,1.015
0.16240579942068628,1.016
0.16271012708472538,1.017
0.16301623259043269,1.018
0.1633233897867138,1.019
0.16363074451599235,1.02
0.16393733404522295,1.021
0.16424210591406135,1.022
0.1645439281782567,1.023
0.16484159005124777,1.024
0.16513379519191362,1.025
0.1654191509167377,1.026
0.16569615633067988,1.027
0.16596319108740326,1.028
0.16621850451739173,1.029
0.16646020558382052,1.03
0.16668626110070128,1.031
0.16689451424040744,1.032
0.16708272866866233,1.033
0.16724865438690975,1.034
0.16739010681970887,1.035
0.167505046412058,1.036
0.16759164103829036,1.037
0.16764829160296016,1.038
0.1676736043211346,1.039
0.16766630729710336,1.04
0.1676251539034555,1.041
0.16754890164319247,1.042
0.1674364078365014,1.043
0.16728677766770295,1.044
0.16709947890551702,1.045
0.16687438870914614,1.046
0.16661177084953682,1.047
0.16631219340310918,1.048
0.1659764056347502,1.049
0.1656052054262667,1.05
0.1651993465409624,1.051
0.1647595216469621,1.052
0.16428640147111923,1.053
0.16378067934083199,1.054
0.16324309291717445,1.055
0.16267442281348443,1.056
0.16207547556037336,1.057
0.1614470581357489,1.058
0.1607899503957095,1.059
0.1601048806770479,1.06
0.15939250878550756,1.061
0.1586534194828048,1.062
0.1578881282046249,1.063
0.15709709879785336,1.064
0.156280770475665,1.065
0.15543958829777324,1.066
0.15457402900897582,1.067
0.15368461281463786,1.068
0.15277189232378957,1.069
0.1518364145770669,1.07
0.15087867301191965,1.071
0.14989909507912857,1.072
0.14889809402813556,1.073
0.1478761560059938,1.074
0.14683391487811853,1.075
0.1457721903679731,1.076
0.14469198299390007,1.077
0.14359442825444638,1.078
0.1424807202692232,1.079
0.1413520297229799,1.08
0.14020946000730017,1.081
0.13905406520230887,1.082
0.1378869003828048,1.083
0.1367090618853556,1.084
0.13552170160610993,1.085
0.13432601519578108,1.086
0.1331232071822589,1.087
0.13191444405799313,1.088
0.13070082113658363,1.089
0.12948336612204142,1.09
0.12826307138267587,1.091
0.1270409263103952,1.092
0.12581793114731557,1.093
0.12459508966889225,1.094
0.12337338527455599,1.095
0.12215374831177428,1.096
0.12093702679677888,1.097
0.11972397401342956,1.098
0.11851525493704218,1.099
0.11731145899031088,1.1
0.11611310838499349,1.101
0.11492066173554626,1.102
0.11373451705691243,1.103
0.11255501797102374,1.104
0.11138246550937134,1.105
0.11021713550105204,1.106
0.10905929863701509,1.107
0.10790923770830231,1.108
0.10676725518986924,1.109
0.10563366497105273,1.11
0.10450876693599846,1.111
0.10339281827862455,1.112
0.10228602988182947,1.113
0.10118859976288337,1.114
0.10010076155682954,1.115
0.09902281963779062,1.116
0.09795515937348603,1.117
0.09689823281789965,1.118
0.09585252514368235,1.119
0.09481851172111691,1.12
0.0937966223121702,1.121
0.09278722932954514,1.122
0.09179066043077369,1.123
0.09080721829803896,1.124
0.08983719370220514,1.125
0.08888087002128717,1.126
0.08793852204679294,1.127
0.08701041174785887,1.128
0.08609678274974085,1.129
0.08519785370759306,1.13
0.08431380887030622,1.131
0.08344478545191603,1.132
0.08259086561407493,1.133
0.08175208554057695,1.134
0.08092846266732284,1.135
0.08012002735674364,1.136
0.07932684439659554,1.137
0.07854901740718291,1.138
0.07778667601173687,1.139
0.07703995032131246,1.14
0.0763089416672418,1.141
0.07559370247841285,1.142
0.07489423399790622,1.143
0.07421049768060958,1.144
0.0735424304950705,1.145
0.07288996030071852,1.146
0.07225302263532041,1.147
0.07163157961656212,1.148
0.07102563868281737,1.149
0.07043526602643334,1.15
0.06986058806499414,1.151
0.06930177508504297,1.152
0.06875901014142555,1.153
0.06823246555934932,1.154
0.0677223126048627,1.155
0.067228760146725,1.156
0.06675209295193273,1.157
0.06629268751711118,1.158
0.06585100134774703,1.159
0.065427541522386,1.16
0.06502282423521073,1.161
0.06463734291112042,1.162
0.06427155892965733,1.163
0.06392591073623015,1.164
0.06360082425194552,1.165
0.06329671389739382,1.166
0.06301397476321445,1.167
0.06275297070776,1.168
0.06251402313513821,1.169
0.06229740363139786,1.17
0.062103331246846125,1.171
0.061931973216016206,1.172
0.06178344701993292,1.173
0.0616578217111218,1.174
0.061555116971836486,1.175
0.06147530078028602,1.176
0.06141829034545326,1.177
0.06138395978354488,1.178
0.06137215127587836,1.179
0.06138268308423434,1.18
0.06141534997173437,1.181
0.061469915671593475,1.182
0.06154610313164356,1.183
0.061643591647481524,1.184
0.06176202292395651,1.185
0.06190100820297156,1.186
0.0620601288449589,1.187
0.06223892964082845,1.188
0.06243690995460411,1.189
0.06265351955228825,1.19
0.0628881599097851,1.191
0.06314018507601597,1.192
0.06340890109096069,1.193
0.0636935713616729,1.194
0.06399343175942165,1.195
0.06430770931523393,1.196
0.06463563558444033,1.197
0.06497644868952925,1.198
0.06532938163415684,1.199
0.06569364427616288,1.2
0.06606841954826047,1.201
0.06645288656001878,1.202
0.06684625675504614,1.203
0.06724780042118272,1.204
0.06765685203769381,1.205
0.06807279263261011,1.206
0.0684950163164487,1.207
0.06892290225064895,1.208
0.06935581501705554,1.209
0.06979313236325725,1.21
0.07023427701468199,1.211
0.07067873283028864,1.212
0.0711260389968903,1.213
0.07157576341042843,1.214
0.07202746616735767,1.215
0.07248067761757834,1.216
0.07293490662486257,1.217
0.0733896646246864,1.218
0.07384448192462637,1.219
0.0742989083101152,1.22
0.07475250188231744,1.221
0.07520481289195435,1.222
0.07565536877151377,1.223
0.07610366387574198,1.224
0.07654915385107848,1.225
0.07699125150719423,1.226
0.07742932053519114,1.227
0.07786266884466118,1.228
0.07829055137142046,1.229
0.07871218949699899,1.23
0.07912680159762553,1.231
0.07953363355501823,1.232
0.07993198091021009,1.233
0.08032119700148367,1.234
0.0807006835582034,1.235
0.08106986360488791,1.236
0.08142814539844744,1.237
0.08177489923292196,1.238
0.08210946352782911,1.239
0.0824311704450987,1.24
0.08273937033701301,1.241
0.08303344592927611,1.242
0.08331281691769621,1.243
0.08357693714793053,1.244
0.08382528572122756,1.245
0.08405735241726268,1.246
0.08427261719364788,1.247
0.08447052645257563,1.248
0.08465047791051877,1.249
0.08481182902401618,1.25
0.08495393013184407,1.251
0.08507616890309802,1.252
0.08517801184604273,1.253
0.08525903251902826,1.254
0.08531891745732197,1.255
0.08535744299565655,1.256
0.08537442807420688,1.257
0.08536969412229853,1.258
0.08534307088147235,1.259
0.08529444810980685,1.26
0.08522383352474924,1.261
0.08513138325353334,1.262
0.08501739636785398,1.263
0.08488227922164861,1.264
0.08472649043244612,1.265
0.08455048413175029,1.266
0.08435467779229168,1.267
0.0841394588035425,1.268
0.08390521374020958,1.269
0.0836523560226493,1.27
0.08338134213516994,1.271
0.08309267545746449,1.272
0.08278689767544169,1.273
0.08246456819683602,1.274
0.08212623483424279,1.275
0.08177240730606145,1.276
0.08140355008410348,1.277
0.08102009714449371,1.278
0.08062247143231001,1.279
0.08021109186782406,1.28
0.07978636315548589,1.281
0.07934865524715635,1.282
0.07889829022983896,1.283
0.07843555022924742,1.284
0.07796069859528362,1.285
0.07747399657842886,1.286
0.07697570556656609,1.287
0.07646607359253747,1.288
0.07594531476272474,1.289
0.07541360210509186,1.29
0.07487108600630257,1.291
0.07431792504378641,1.292
0.07375430853538348,1.293
0.07318046146585841,1.294
0.0725966308537977,1.295
0.0720030591195669,1.296
0.07139996124026063,1.297
0.07078752530238705,1.298
0.0701659377690405,1.299
0.0695354154762879,1.3
0.06889622762163124,1.301
0.06824870104903515,1.302
0.06759320722388693,1.303
0.06693013372692701,1.304
0.06625985436947635,1.305
0.0655827208371581,1.306
0.0648990834641696,1.307
0.06420932291501516,1.308
0.06351387261106986,1.309
0.06281322596683861,1.31
0.06210792964534485,1.311
0.06139856501016503,1.312
0.0606857209052393,1.313
0.05996996621908467,1.314
0.05925183785195916,1.315
0.05853185142659699,1.316
0.057810522650773535,1.317
0.057088383876519794,1.318
0.056365990779733394,1.319
0.05564391980297147,1.32
0.0549227580361481,1.321
0.05420308778236753,1.322
0.05348546938171087,1.323
0.05277042896831587,1.324
0.05205845758467024,1.325
0.05135002043220074,1.326
0.05064556861539327,1.327
0.04994554763883888,1.328
0.049250401263507756,1.329
0.04856057089897428,1.33
0.047876490785089064,1.331
0.04719857921325289,1.332
0.04652722803349751,1.333
0.04586279718717818,1.334
0.045205620287682616,1.335
0.044556018919148274,1.336
0.04391431842264492,1.337
0.04328086012280848,1.338
0.04265600746949672,1.339
0.04204014458721809,1.34
0.041433666878757956,1.341
0.040836965943762946,1.342
0.04025041642116654,1.343
0.039674374633698994,1.344
0.03910919026439636,1.345
0.03855522156876821,1.346
0.03801284491309283,1.347
0.03748245576764431,1.348
0.03696446197444587,1.349
0.036459271515907485,1.35
0.03596727877200999,1.351
0.03548885549265655,1.352
0.03502435055777253,1.353
0.03457409538526707,1.354
0.03413840848080739,1.355
0.03371759572739774,1.356
0.03331194640139645,1.357
0.03292172738133141,1.358
0.03254718050577763,1.359
0.032188525772127816,1.36
0.03184596683498158,1.361
0.031519693648927004,1.362
0.031209880431134044,1.363
0.03091668116566136,1.364
0.03064022805671181,1.365
0.030380635840977183,1.366
0.030138008207118865,1.367
0.029912441156816922,1.368
0.029704021799987646,1.369
0.029512823606834295,1.37
0.029338900478738324,1.371
0.0291822832526849,1.372
0.02904298069187816,1.373
0.028920982979165774,1.374
0.02881626436316486,1.375
0.028728783464087988,1.376
0.028658481413116586,1.377
0.02860527874525042,1.378
0.028569072258149787,1.379
0.028549732824033402,1.38
0.028547104532989268,1.381
0.02856100490797771,1.382
0.0285912255947694,1.383
0.028637533026191892,1.384
0.028699668962772706,1.385
0.028777351175811757,1.386
0.028870274515849028,1.387
0.028978112160591457,1.388
0.029100516294540506,1.389
0.029237117379578452,1.39
0.02938752257260444,1.391
0.029551316207222948,1.392
0.029728064765036116,1.393
0.029917325188976183,1.394
0.03011865365348078,1.395
0.030331612718266874,1.396
0.03055577539916643,1.397
0.030790724777550484,1.398
0.0310360480053536,1.399
0.03129132618620674,1.4
0.031556127609364104,1.401
0.03183001243782255,1.402
0.03211254722629847,1.403
0.03240331980979816,1.404
0.03270194683553404,1.405
0.033008070763927755,1.406
0.033321346684708326,1.407
0.03364142550713907,1.408
0.03396794616545584,1.409
0.03430054219838916,1.41
0.034638852542626525,1.411
0.034982524194958745,1.412
0.035331204154261685,1.413
0.03568452718788542,1.414
0.03604211010218541,1.415
0.03640355596059582,1.416
0.03676845963825385,1.417
0.037136405798999336,1.418
0.03750696039714515,1.419
0.03787966458301458,1.42
0.03825403620475873,1.421
0.038629573268186765,1.422
0.03900575263215959,1.423
0.039382027339018376,1.424
0.03975783075269002,1.425
0.04013258809271636,1.426
0.04050572713912731,1.427
0.04087667968602314,1.428
0.04124487288245527,1.429
0.04160972163948258,1.43
0.041970637306704556,1.431
0.04232705395225742,1.432
0.042678458621752645,1.433
0.0430244116886739,1.434
0.04336454968595525,1.435
0.043698567549628704,1.436
0.044026187126851433,1.437
0.04434713594990052,1.438
0.04466115808650075,1.439
0.04496804897149382,1.44
0.04526768822980921,1.441
0.0455600545000722,1.442
0.045845219674821004,1.443
0.046123325902458955,1.444
0.04639455140965076,1.445
0.046659075586696505,1.446
0.046917059039669966,1.447
0.04716864629101988,1.448
0.04741398070713202,1.449
0.04765321799336783,1.45
0.04788653480907334,1.451
0.04811413445405324,1.452
0.04833625105252132,1.453
0.04855315197701907,1.454
0.04876513655025018,1.455
0.04897252821773454,1.456
0.0491756580844609,1.457
0.0493748443247496,1.458
0.04957038277098251,1.459
0.04976255880493456,1.46
0.04995166996921107,1.461
0.05013804260525841,1.462
0.05032203620545988,1.463
0.05050403668821124,1.464
0.05068444209060545,1.465
0.05086364466202222,1.466
0.051042013483585016,1.467
0.05121988320737161,1.468
0.05139755355263708,1.469
0.05157529798691842,1.47
0.051753375326945746,1.471
0.05193203933798437,1.472
0.052111544047874096,1.473
0.052292143345838586,1.474
0.05247408390653188,1.475
0.05265759277361366,1.476
0.05284286630095353,1.477
0.053030069289011356,1.478
0.05321934497049391,1.479
0.05341082714049833,1.48
0.05360464664794048,1.481
0.05380093023634517,1.482
0.05399979257869671,1.483
0.054201323990846144,1.484
0.05440557985644071,1.485
0.05461257936435868,1.486
0.05482231482950367,1.487
0.055034764801627056,1.488
0.05524990380710731,1.489
0.05546770535534435,1.49
0.05568813688143607,1.491
0.055911147540112775,1.492
0.05613665549808699,1.493
0.056364545309614975,1.494
0.05659467835785561,1.495
0.05682690745163854,1.496
0.05706108574319882,1.497
0.057297066385483666,1.498
0.05753469287247451,1.499
0.05777378399219692,1.5
0.058014124695714965,1.501
0.05825547309637838,1.502
0.05849758005381467,1.503
0.05874020898071895,1.504
0.05898314676253545,1.505
0.05922620164425534,1.506
0.059469187181287776,1.507
0.05971190004219951,1.508
0.059954110957473813,1.509
0.060195579753384916,1.51
0.06043608065462183,1.511
0.06067541780839003,1.512
0.060913423889016625,1.513
0.061149944137733565,1.514
0.061384812396125636,1.515
0.06161782960960368,1.516
0.06184875465221229,1.517
0.062077307166743756,1.518
0.062303172353439094,1.519
0.06252599999830928,1.52
0.06274539790329385,1.521
0.06296092472645587,1.522
0.06317208792475752,1.523
0.06337834783356172,1.524
0.06357912358002868,1.525
0.06377379681474797,1.526
0.06396171207906289,1.527
0.06414217350142161,1.528
0.06431443889165163,1.529
0.06447771695132447,1.53
0.06463117538062432,1.531
0.06477396190113338,1.532
0.06490523368456551,1.533
0.0650241892067099,1.534
0.06513009637391654,1.535
0.06522230964562843,1.536
0.0653002686670171,1.537
0.06536347304500582,1.538
0.06541144195721804,1.539
0.06544369267911385,1.54
0.06545976633393401,1.541
0.0654592845493719,1.542
0.06544199939491296,1.543
0.06540781596465108,1.544
0.06535678445682538,1.545
0.06528906671729003,1.546
0.06520488689098906,1.547
0.06510448037495771,1.548
0.06498806054596291,1.549
0.06485581554826994,1.55
0.06470792654762471,1.551
0.06454458983464431,1.552
0.06436603427042656,1.553
0.0641725336402601,1.554
0.06396441405558385,1.555
0.06374205507867647,1.556
0.06350588241593436,1.557
0.06325635036436432,1.558
0.06299391571882973,1.559
0.0627190142905394,1.56
0.06243205679982589,1.561
0.062133447233756856,1.562
0.06182360758422608,1.563
0.06150299280456522,1.564
0.06117209125115146,1.565
0.06083141244835247,1.566
0.06048146607233886,1.567
0.06012273887411257,1.568
0.05975568042886207,1.569
0.059380705329621676,1.57
0.058998207437427744,1.571
0.058608576239938495,1.572
0.05821220985923609,1.573
0.05780952320201811,1.574
0.05740095023213241,1.575
0.05698693926946238,1.576
0.05656794056052203,1.577
0.05614438870487367,1.578
0.05571669042493707,1.579
0.05528522963102635,1.58
0.05485038879040527,1.581
0.05441257394868442,1.582
0.05397223266747961,1.583
0.05352986057299422,1.584
0.053085995724704425,1.585
0.05264120227448464,1.586
0.05219604692419464,1.587
0.0517510753542035,1.588
0.05130679985171584,1.589
0.05086370302170406,1.59
0.05042224912365552,1.591
0.04998289302614248,1.592
0.04954608454336698,1.593
0.04911226956915852,1.594
0.04868188934431947,1.595
0.048255378831983595,1.596
0.04783316470879801,1.597
0.04741566305065304,1.598
0.04700327649705698,1.599
0.04659639055118993,1.6
0.04619536872436651,1.601
0.045800546507965084,1.602
0.04541222502175345,1.603
0.04503066637159111,1.604
0.044656092042057095,1.605
0.04428868292215758,1.606
0.043928578899849864,1.607
0.04357587813898436,1.608
0.04323063745919523,1.609
0.04289287520484214,1.61
0.04256257780186541,1.611
0.04223971003366736,1.612
0.04192422744423933,1.613
0.04161608840049364,1.614
0.04131526303071967,1.615
0.04102173655084615,1.616
0.040735505653504776,1.617
0.04045656831076362,1.618
0.0401849100150622,1.619
0.039920493253518444,1.62
0.039663256530092526,1.621
0.03941312160296115,1.622
0.03917000185314153,1.623
0.03893380691207244,1.624
0.038704442824693756,1.625
0.03848180857249776,1.626
0.03826579004503488,1.627
0.03805625271399877,1.628
0.03785303453354334,1.629
0.03765594072261874,1.63
0.037464741547674194,1.631
0.03727917342335879,1.632
0.03709894288518975,1.633
0.03692373181503056,1.634
0.03675320142745826,1.635
0.03658699283445391,1.636
0.03642472406114548,1.637
0.036265987384630494,1.638
0.036110352396572704,1.639
0.03595737536405658,1.64
0.035806610031242636,1.641
0.03565761494571548,1.642
0.03550995515159343,1.643
0.03536319834074635,1.644
0.03521690708281128,1.645
0.0350706294083757,1.646
0.03492389029981435,1.647
0.034776187294968196,1.648
0.03462699243865471,1.649
0.03447575977053555,1.65
0.034321936198841115,1.651
0.03416497459305268,1.652
0.03400434838285825,1.653
0.03383956630183761,1.654
0.03367018497090301,1.655
0.03349581620211497,1.656
0.03331612568035557,1.657
0.03313082042016122,1.658
0.032939627641873574,1.659
0.032742279561744025,1.66
0.032538521633643645,1.661
0.032328144045814654,1.662
0.03211101894018632,1.663
0.031887127135605375,1.664
0.03165656693100708,1.665
0.03141954351101542,1.666
0.03117634189688935,1.667
0.030927290717742258,1.668
0.030672729879335694,1.669
0.030412997296743464,1.67
0.030148437145174754,1.671
0.029879415743231996,1.672
0.029606332240633394,1.673
0.029329621727160544,1.674
0.029049752693326995,1.675
0.028767220788617417,1.676
0.028482540594577034,1.677
0.02819623679688191,1.678
0.027908835767244525,1.679
0.0276208581850223,1.68
0.02733281297805882,1.681
0.02704519258604596,1.682
0.026758469371832218,1.683
0.026473093029807094,1.684
0.026189489155447755,1.685
0.02590805928367684,1.686
0.02562918220628005,1.687
0.025353215885329336,1.688
0.02508049943643181,1.689
0.024811354990962462,1.69
0.02454608932877057,1.691
0.02428499515627672,1.692
0.024028351914418572,1.693
0.023776426027669925,1.694
0.023529470543009388,1.695
0.02328772415610364,1.696
0.023051409684288912,1.697
0.022820732122897487,1.698
0.022595876756725586,1.699
0.02237700828655886,1.7
0.022164271425151642,1.701
0.021957792110012937,1.702
0.021757678204634985,1.703
0.021564019267671458,1.704
0.021376885722411938,1.705
0.021196328317327782,1.706
0.02102237829380027,1.707
0.02085504804060284,1.708
0.020694332822112253,1.709
0.020540214262176917,1.71
0.02039266435250738,1.711
0.020251647548468525,1.712
0.020117119658261726,1.713
0.019989025652794135,1.714
0.019867301420284235,1.715
0.019751881697993617,1.716
0.019642710443978917,1.717
0.01953974832891796,1.718
0.01944297446841517,1.719
0.019352381823168535,1.72
0.019267967901930496,1.721
0.019189725693944486,1.722
0.019117640925583615,1.723
0.01905169641839241,1.724
0.018991877888761263,1.725
0.01893817603665531,1.726
0.018890584018743276,1.727
0.018849091692158988,1.728
0.01881367907831439,1.729
0.018784312023150982,1.73
0.018760940895347508,1.731
0.018743500725915546,1.732
0.018731912977223673,1.733
0.01872609090322588,1.734
0.018725948024265544,1.735
0.018731407024226748,1.736
0.01874240653116001,1.737
0.01875890365618821,1.738
0.018780870646749836,1.739
0.018808286310995473,1.74
0.018841127927758845,1.741
0.01887937145006856,1.742
0.018923000898344956,1.743
0.01897201984351141,1.744
0.01902645839643824,1.745
0.01908637373585002,1.746
0.019151844789729876,1.747
0.019222962783249392,1.748
0.019299820148673322,1.749
0.019382501160030915,1.75
0.019471077612483408,1.751
0.019565609658044575,1.752
0.019666148270826682,1.753
0.019772736418818854,1.754
0.019885408649028186,1.755
0.020004189758683098,1.756
0.020129093103754866,1.757
0.020260118920388946,1.758
0.020397252857996755,1.759
0.02054046478063219,1.76
0.02068970780817598,1.761
0.020844917551346875,1.762
0.02100601154105285,1.763
0.021172888940640067,1.764
0.021345430718166115,1.765
0.0215235004956346,1.766
0.021706946243023155,1.767
0.021895602829472314,1.768
0.02208929518991932,1.769
0.0222878415462124,1.77
0.02249105581024188,1.771
0.022698748115547063,1.772
0.022910722508190418,1.773
0.023126772373321457,1.774
0.023346677578378803,1.775
0.023570207678894662,1.776
0.02379713030497741,1.777
0.02402721974237048,1.778
0.024260261683866115,1.779
0.024496052646402516,1.78
0.0247343944596129,1.781
0.02497508567080987,1.782
0.025217912604495282,1.783
0.02546264289964571,1.784
0.025709022841450317,1.785
0.025956777452580765,1.786
0.02620561188170181,1.787
0.026455214199801097,1.788
0.026705260571037066,1.789
0.02695542306242558,1.79
0.02720537912389711,1.791
0.027454820719291395,1.792
0.02770346051694806,1.793
0.027951032642779594,1.794
0.0281972863025408,1.795
0.02844197374128622,1.796
0.02868484045212515,1.797
0.028925627092005975,1.798
0.029164082810241024,1.799
0.029399980432847767,1.8
0.029633125658713462,1.801
0.02986335832660482,1.802
0.030090546946492425,1.803
0.03031457871297427,1.804
0.03053534728184803,1.805
0.030752740119179896,1.806
0.030966627987531352,1.807
0.03117686093263489,1.808
0.03138327290972074,1.809
0.03158569167193938,1.81
0.03178394935005533,1.811
0.03197789161520138,1.812
0.032167384223572904,1.813
0.03235231535423529,1.814
0.03253259212950728,1.815
0.0327081304883071,1.816
0.03287884115093612,1.817
0.03304462021672442,1.818
0.03320535128515851,1.819
0.03336091500984213,1.82
0.03351119638278303,1.821
0.03365608438552825,1.822
0.033795464046436206,1.823
0.03392920569684409,1.824
0.03405715967883306,1.825
0.034179159298748193,1.826
0.03429502454647266,1.827
0.03440456017164242,1.828
0.034507553531843725,1.829
0.034603781536106056,1.83
0.03469302576339608,1.831
0.03477508557117511,1.832
0.03484978051719589,1.833
0.03491694049923242,1.834
0.03497639219408792,1.835
0.035027957901838574,1.836
0.035071473679167076,1.837
0.0351068158489978,1.838
0.035133921379614304,1.839
0.03515279510153645,1.84
0.03516350144683241,1.841
0.03516614201420795,1.842
0.03516083055381346,1.843
0.03514768676964877,1.844
0.035126857676705446,1.845
0.03509854959308732,1.846
0.03506304929714468,1.847
0.035020726127717595,1.848
0.03497201622575469,1.849
0.034917394216359754,1.85
0.034857342565886774,1.851
0.03479233350477809,1.852
0.03472283059888458,1.853
0.03464930021655191,1.854
0.034572219848458055,1.855
0.0344920794254441,1.856
0.03440937718629858,1.857
0.03432461220880378,1.858
0.034238275505237045,1.859
0.03415084111642065,1.86
0.03406275862829645,1.861
0.03397444899529456,1.862
0.033886304063880594,1.863
0.03379868718074836,1.864
0.033711932845017265,1.865
0.033626347210480995,1.866
0.03354221159451997,1.867
0.03345978754688478,1.868
0.033379320544144685,1.869
0.033301040918550164,1.87
0.033225162040672704,1.871
0.03315187641286322,1.872
0.0330813511231589,1.873
0.03301372497682582,1.874
0.03294910858059542,1.875
0.03288758594256268,1.876
0.03282921534367998,1.877
0.03277402864047608,1.878
0.032722029544498765,1.879
0.03267319228703505,1.88
0.03262746166612855,1.881
0.03258475369779562,1.882
0.032544955676271727,1.883
0.032507926574631925,1.884
0.032473500142846445,1.885
0.03244149143689913,1.886
0.032411705169656226,1.887
0.032383943503388656,1.888
0.032358011163520724,1.889
0.032333716449840004,1.89
0.0323108678473749,1.891
0.03228926708838169,1.892
0.03226870056025469,1.893
0.032248932220337034,1.894
0.032229701142028847,1.895
0.032210723611817815,1.896
0.03219169660283025,1.897
0.032172300300875076,1.898
0.03215219971943249,1.899
0.0321310462713138,1.9
0.03210847999109259,1.901
0.03208413275555222,1.902
0.0320576324371438,1.903
0.03202860750425894,1.904
0.0319966911676738,1.905
0.03196152380688304,1.906
0.03192275221577813,1.907
0.03188002435373215,1.908
0.031832980384459406,1.909
0.03178124599192788,1.91
0.03172443575594779,1.911
0.03166216685959585,1.912
0.03159407544315487,1.913
0.031519828416244365,1.914
0.031439127861672626,1.915
0.03135170794293043,1.916
0.03125732571415198,1.917
0.031155747924762334,1.918
0.031046736741247402,1.919
0.030930039806906437,1.92
0.030805390751519713,1.921
0.030672520815741938,1.922
0.03053117632239887,1.923
0.030381136700794155,1.924
0.03022222985180534,1.925
0.03005434184082663,1.926
0.029877417615924412,1.927
0.029691450058299918,1.928
0.029496459217865922,1.929
0.029292474723031127,1.93
0.029079538762787682,1.931
0.028857730575184613,1.932
0.028627194682246192,1.933
0.028388156533399038,1.934
0.0281409207948182,1.935
0.02788585472991254,1.936
0.02762336210722561,1.937
0.0273538562451965,1.938
0.027077744003093374,1.939
0.02679542640040534,1.94
0.026507308209676343,1.941
0.026213805919320307,1.942
0.025915350678523175,1.943
0.025612387311123093,1.944
0.025305370907231686,1.945
0.024994762227590683,1.946
0.024681022818334536,1.947
0.024364610424624417,1.948
0.024045975037763536,1.949
0.023725555702139044,1.95
0.023403778033557275,1.951
0.02308105226363128,1.952
0.022757771545747544,1.953
0.022434310362269054,1.954
0.022111023398184722,1.955
0.021788245748231145,1.956
0.021466294779347223,1.957
0.021145472894223857,1.958
0.020826070265572125,1.959
0.020508367071928386,1.96
0.020192634990913987,1.961
0.019879137751675095,1.962
0.019568130621257677,1.963
0.019259858802320524,1.964
0.018954555000386713,1.965
0.018652437221913714,1.966
0.01835370847436458,1.967
0.018058558837913213,1.968
0.017767168387399914,1.969
0.017479709193388943,1.97
0.017196345620964913,1.971
0.016917232799310233,1.972
0.016642514115089498,1.973
0.016372320068513368,1.974
0.01610677012095774,1.975
0.015845976292960768,1.976
0.015590046345505612,1.977
0.01533908565961118,1.978
0.01509319775812153,1.979
0.014852483560580935,1.98
0.01461703956193389,1.981
0.01438695524333731,1.982
0.014162310357250078,1.983
0.013943173247837845,1.984
0.013729601058437827,1.985
0.013521641341198671,1.986
0.013319333885629078,1.987
0.013122712059383958,1.988
0.012931803493989638,1.989
0.012746630140561288,1.99
0.0125672078092209,1.991
0.012393545346799054,1.992
0.012225643596859525,1.993
0.012063494263238456,1.994
0.011907078863963149,1.995
0.011756368123423124,1.996
0.011611322050230142,1.997
0.011471890492291177,1.998
0.011338013724018848,1.999
0.01120962280381227,2.0
0.011086639636067062,2.001
0.010968976722529878,2.002
0.010856536759334878,2.003
0.01074921258849842,2.004
0.010646887926754209,2.005
0.01054943867800523,2.006
0.010456734354641598,2.007
0.010368639301214616,2.008
0.010285013509298833,2.009
0.01020571279867491,2.01
0.010130588132231222,2.011
0.010059484275294763,2.012
0.009992239160091404,2.013
0.00992868547047166,2.014
0.009868654113702946,2.015
0.009811977702320592,2.016
0.009758492385204383,2.017
0.0097080372331397,2.018
0.009660451338037966,2.019
0.00961557031580581,2.02
0.00957322501202085,2.021
0.009533243495779381,2.022
0.009495454474234345,2.023
0.00945969009247507,2.024
0.009425787781445165,2.025
0.009393591538540563,2.026
0.00936295276205061,2.027
0.009333730184241018,2.028
0.009305787882056896,2.029
0.009278991455725779,2.03
0.009253205911809073,2.031
0.009228299303518697,2.032
0.009204151008202013,2.033
0.00918065969319173,2.034
0.00915774742986909,2.035
0.00913535910620732,2.036
0.00911345787278849,2.037
0.009092018142205277,2.038
0.00907101802332696,2.039
0.009050433497858274,2.04
0.009030236386058238,2.041
0.00901039597979428,2.042
0.008990882164580627,2.043
0.00897166835393964,2.044
0.00895273394442918,2.045
0.008934066320544888,2.046
0.008915662238063839,2.047
0.008897528328594348,2.048
0.00887968052683851,2.049
0.008862142394098715,2.05
0.008844942524791758,2.051
0.008828111391698427,2.052
0.008811678045510134,2.053
0.008795667152473012,2.054
0.00878009706410847,2.055
0.00876497948075786,2.056
0.008750320478514734,2.057
0.008736122139969708,2.058
0.008722384328722086,2.059
0.008709106528685994,2.06
0.008696289663759205,2.061
0.008683937674401055,2.062
0.008672058544030378,2.063
0.008660664467574714,2.064
0.008649770954352981,2.065
0.008639394858028138,2.066
0.008629551581383484,2.067
0.00862025217212456,2.068
0.008611501542862901,2.069
0.008603298430350893,2.07
0.00859563617167479,2.071
0.008588502983503438,2.072
0.008581881396933928,2.073
0.00857574757956665,2.074
0.008570071688425662,2.075
0.00856481962559176,2.076
0.008559955452170677,2.077
0.008555443535875363,2.078
0.008551249887821627,2.079
0.008547342351769717,2.08
0.00854368944053027,2.081
0.00854025798130956,2.082
0.008537010671619976,2.083
0.008533905428979414,2.084
0.008530897299505187,2.085
0.008527941703799877,2.086
0.008524997665873377,2.087
0.008522030765800142,2.088
0.008519015997180484,2.089
0.00851594055750883,2.09
0.008512806346812509,2.091
0.008509631724040895,2.092
0.0085064519754948,2.093
0.008503318033189284,2.094
0.008500293225502937,2.095
0.008497448171463412,2.096
