VaMe,time
-0.004190128057022214,0.001
-0.003646824674520896,0.002
-0.003106612647785548,0.003
-0.002569937088637722,0.004
-0.0020372346648207377,0.005
-0.0015089337712868322,0.006
-0.0009854557589066316,0.007
-0.00046721419988306754,0.008
4.53902084208774e-05,0.009
0.0005519777575785262,0.01
0.0010521979484827502,0.011
0.0015457357687386792,0.012
0.002032314606544692,0.013
0.002511694630849764,0.014
0.002983665957550043,0.015
0.003448038294433941,0.016
0.0039046335560228313,0.017
0.004353288010168968,0.018
0.004793862222988578,0.019
0.005226250973618029,0.02
0.005650387633072684,0.021
0.0060662418977238996,0.022
0.006473812021449577,0.023
0.006873113726649696,0.024
0.007264169399777412,0.025
0.007647002326369617,0.026
0.008021637439248924,0.027
0.008388104515495483,0.028
0.00874643953962154,0.029
0.009096683395694371,0.03
0.00943887859295015,0.031
0.009773065228843554,0.032
0.010099278408237084,0.033
0.010417548749606586,0.034
0.01072790493211022,0.035
0.01103037585878389,0.036
0.011324990924448972,0.037
0.01161177797384202,0.038
0.011890760052713082,0.039
0.01216195428010311,0.04
0.012425375411499294,0.041
0.01268104275153728,0.042
0.012928987486229242,0.043
0.013169258721623974,0.044
0.013401927216487662,0.045
0.013627085844260449,0.046
0.01384484604910586,0.047
0.014055330173689462,0.048
0.014258662410527681,0.049
0.014454965336088728,0.05
0.01464436625442174,0.051
0.014827008654474148,0.052
0.015003061414265618,0.053
0.015172722452628256,0.054
0.01533621657237857,0.055
0.015493788512161577,0.056
0.015645692993807848,0.057
0.015792184461347534,0.058
0.015933510464000756,0.059
0.016069911011755755,0.06
0.01620162150675336,0.061
0.016328874994937636,0.062
0.016451901812885826,0.063
0.016570926938545373,0.064
0.01668616621078245,0.065
0.016797823061959503,0.066
0.01690608706147741,0.067
0.017011133952656497,0.068
0.017113125696813773,0.069
0.017212209805819115,0.07
0.017308518698621687,0.071
0.01740217002009134,0.072
0.0174932678680876,0.073
0.017581904293973813,0.074
0.017668160816884573,0.075
0.01775211016074008,0.076
0.017833818512440827,0.077
0.017913348406316996,0.078
0.017990761958928465,0.079
0.01806612373238082,0.08
0.018139502177827213,0.081
0.018210968575787707,0.082
0.01828059284083329,0.083
0.018348437885141934,0.084
0.018414557736701708,0.085
0.018479002921914917,0.086
0.018541829945787902,0.087
0.01860310930524031,0.088
0.01866292909102919,0.089
0.018721393347197683,0.09
0.018778615487524797,0.091
0.018834708953159293,0.092
0.018889779936235647,0.093
0.018943926465425306,0.094
0.018997242688964022,0.095
0.019049823410959243,0.096
0.01910176573530667,0.097
0.01915316762374804,0.098
0.01920412425889631,0.099
0.019254723241992785,0.1
0.019305039865946887,0.101
0.01935513401385828,0.102
0.019405049431904225,0.103
0.019454814344079203,0.104
0.019504441971314464,0.105
0.01955393073159701,0.106
0.019603264796259463,0.107
0.01965241565545078,0.108
0.019701344885285958,0.109
0.019750007738465795,0.11
0.0197983566968932,0.111
0.01984634385658158,0.112
0.019893921033247813,0.113
0.01994103683253227,0.114
0.019987631593599387,0.115
0.02003363407383135,0.116
0.02007896340456033,0.117
0.02012353486849592,0.118
0.020167265187246448,0.119
0.02021007477825245,0.12
0.020251886659135115,0.121
0.02029262259679084,0.122
0.020332197474698156,0.123
0.020370513588699443,0.124
0.02040745744707967,0.125
0.02044289996217897,0.126
0.020476697505310077,0.127
0.020508691534324462,0.128
0.020538708394999286,0.129
0.020566562494217254,0.13
0.020592063320752783,0.131
0.02061502390979265,0.132
0.020635268007510258,0.133
0.020652633815893755,0.134
0.020666972637559143,0.135
0.02067814200043126,0.136
0.020685997300637894,0.137
0.020690390945317758,0.138
0.020691183760518567,0.139
0.020688262817473005,0.14
0.020681556802853093,0.141
0.02067104414406182,0.142
0.020656752131993018,0.143
0.02063874711421996,0.144
0.020617117814877486,0.145
0.020591957333617412,0.146
0.020563353283728554,0.147
0.02053139073172966,0.148
0.020496161391348924,0.149
0.020457770512065203,0.15
0.020416338917243596,0.151
0.02037200080224589,0.152
0.020324898152373583,0.153
0.020275172774185564,0.154
0.020222958073849873,0.155
0.02016837451094961,0.156
0.02011153063872029,0.157
0.020052526381295666,0.158
0.019991453926067437,0.159
0.019928395481007437,0.16
0.019863421843517953,0.161
0.01979659636665631,0.162
0.019727983959338377,0.163
0.019657660544322542,0.164
0.019585718935746326,0.165
0.019512269203157698,0.166
0.019437433164984964,0.167
0.01936133497092503,0.168
0.01928409333552181,0.169
0.019205821158092145,0.17
0.019126631921247566,0.171
0.019046646959247616,0.172
0.01896599930877271,0.173
0.01888483357844807,0.174
0.01880330280617553,0.175
0.018721563442087013,0.176
0.018639769412962314,0.177
0.018558066251722277,0.178
0.018476586997513065,0.179
0.01839545159872814,0.18
0.018314769471225477,0.181
0.018234642922786794,0.182
0.01815516958668496,0.183
0.018076443266592315,0.184
0.017998553125957578,0.185
0.01792158132858004,0.186
0.01784559974651253,0.187
0.017770667464057338,0.188
0.017696831082980157,0.189
0.017624127901781854,0.19
0.017552590028226837,0.191
0.01748224758566031,0.192
0.017413130191225097,0.193
0.017345266500978403,0.194
0.01727868205717547,0.195
0.01721339607812199,0.196
0.01714941800512488,0.197
0.01708674451313079,0.198
0.017025357521097295,0.199
0.016965223605981655,0.2
0.016906294877134815,0.201
0.01684851101213039,0.202
0.01679180224628285,0.203
0.016736093298082996,0.204
0.016681308081222725,0.205
0.01662737478135738,0.206
0.016574230651829308,0.207
0.016521825734301956,0.208
0.01647012465228113,0.209
0.016419105675453006,0.21
0.016368756464601043,0.211
0.016319067039401468,0.212
0.01627002355850775,0.213
0.01622160830487619,0.214
0.016173807117909406,0.215
0.01612661974857821,0.216
0.0160800683977194,0.217
0.016034202611619457,0.218
0.015989100129414933,0.219
0.015944863554666087,0.22
0.01590161298452197,0.221
0.015859475846177504,0.222
0.015818578127611987,0.223
0.015779042532634232,0.224
0.01574099411774712,0.225
0.015704567847800124,0.226
0.015669912953427175,0.227
0.015637192859551275,0.228
0.0156065814950908,0.229
0.01557825734437204,0.23
0.015552396708375299,0.231
0.01552916775619157,0.232
0.015508727159879913,0.233
0.015491219925874817,0.234
0.015476780854070294,0.235
0.015465535719301609,0.236
0.015457601562524119,0.237
0.015453086237931858,0.238
0.015452087485067663,0.239
0.01545469184001148,0.24
0.015460973664374924,0.241
0.015470994404595848,0.242
0.015484801979834643,0.243
0.015502430265070076,0.244
0.01552389902837603,0.245
0.01554921458700937,0.246
0.01557837071339177,0.247
0.015611349043156234,0.248
0.0156481186768218,0.249
0.015688635251856726,0.25
0.015732840167944157,0.251
0.01578066040833378,0.252
0.015832008674813405,0.253
0.015886783336534257,0.254
0.015944868097444494,0.255
0.01600613162599538,0.256
0.01607042733665863,0.257
0.01613759330476188,0.258
0.016207452362655663,0.259
0.016279812522768652,0.26
0.016354467597907284,0.261
0.016431197616694638,0.262
0.016509768703159736,0.263
0.016589932643138603,0.264
0.016671427199439082,0.265
0.0167539781087599,0.266
0.016837302434148188,0.267
0.01692111216149887,0.268
0.01700511693375731,0.269
0.01708902485976988,0.27
0.017172540467715797,0.271
0.01725536068676574,0.272
0.017337173280774575,0.273
0.017417661613226776,0.274
0.017496513797153126,0.275
0.017573431334457344,0.276
0.017648134151822994,0.277
0.017720360808671613,0.278
0.01778986374982277,0.279
0.017856400616399464,0.28
0.0179197247127962,0.281
0.01797957996663214,0.282
0.018035702969279886,0.283
0.018087828603642473,0.284
0.018135695101626045,0.285
0.018179048002574805,0.286
0.01821764410856039,0.287
0.018251256140456813,0.288
0.01827967795752602,0.289
0.01830272921886727,0.29
0.018320257622385056,0.291
0.018332136648821253,0.292
0.018338257174802274,0.293
0.01833851550802736,0.294
0.018332808292163494,0.295
0.018321042752929784,0.296
0.018303156788245695,0.297
0.01827913702692566,0.298
0.018249028019839467,0.299
0.018212930655757107,0.3
0.018170990648492508,0.301
0.018123380147623984,0.302
0.018070278612150784,0.303
0.018011862295772174,0.304
0.017948306496534932,0.305
0.017879793718250277,0.306
0.017806519357520284,0.307
0.017728692937435488,0.308
0.017646536295901932,0.309
0.017560280353017373,0.31
0.01747016179922493,0.311
0.017376420505602806,0.312
0.01727929788013446,0.313
0.017179035944180642,0.314
0.017075876639750222,0.315
0.016970060781944307,0.316
0.01686182610513156,0.317
0.01675140404115507,0.318
0.016639016080823577,0.319
0.01652487259619857,0.32
0.016409176132966358,0.321
0.016292127340577434,0.322
0.01617393029137459,0.323
0.016054795459498315,0.324
0.01593493985873433,0.325
0.015814584487424153,0.326
0.015693949806253354,0.327
0.01557325046411795,0.328
0.01545269110068864,0.329
0.015332464957347561,0.33
0.015212755171509603,0.331
0.015093736819986287,0.332
0.014975578142129735,0.333
0.01485844059010837,0.334
0.014742477832361189,0.335
0.01462783396225554,0.336
0.01451464160251534,0.337
0.014403021104365598,0.338
0.014293081396667328,0.339
0.014184921600163552,0.34
0.014078632230204485,0.341
0.013974295484339316,0.342
0.013871984485002677,0.343
0.013771761871513898,0.344
0.013673679108927072,0.345
0.013577777610614157,0.346
0.01348409102748839,0.347
0.013392647320674684,0.348
0.013303469954329615,0.349
0.013216578138949261,0.35
0.01313198619581192,0.351
0.013049702138482446,0.352
0.012969725735641674,0.353
0.012892046906692373,0.354
0.01281664561876618,0.355
0.012743493490208957,0.356
0.012672556090307338,0.357
0.012603794988894843,0.358
0.012537169259020396,0.359
0.012472636316741748,0.36
0.012410151900522802,0.361
0.012349669015898143,0.362
0.012291135837310913,0.363
0.012234493137869697,0.364
0.012179672757449389,0.365
0.012126598359408458,0.366
0.012075187915132584,0.367
0.012025356347222332,0.368
0.011977017256412046,0.369
0.011930083198393561,0.37
0.011884464188837802,0.371
0.011840064980743747,0.372
0.011796783361367906,0.373
0.011754511595566253,0.374
0.011713140224857031,0.375
0.011672561541993627,0.376
0.0116326708606778,0.377
0.011593364949207487,0.378
0.011554538443298805,0.379
0.011516081419033541,0.38
0.01147788151694117,0.381
0.011439830331460352,0.382
0.011401830850207672,0.383
0.011363803277007364,0.384
0.011325687956611236,0.385
0.011287444779769477,0.386
0.011249048884645972,0.387
0.011210483436648194,0.388
0.011171732913016437,0.389
0.011132782359276078,0.39
0.011093624384864526,0.391
0.011054269374907732,0.392
0.01101475338436159,0.393
0.01097514107771174,0.394
0.010935523131039628,0.395
0.010896008773830106,0.396
0.010856715774449773,0.397
0.010817762123511902,0.398
0.010779263285013227,0.399
0.010741334369097964,0.4
0.010704092941688248,0.401
0.01066765961106833,0.402
0.010632156451434513,0.403
0.010597704333412297,0.404
0.010564420097363547,0.405
0.010532414167385287,0.406
0.010501788838215639,0.407
0.010472637204738018,0.408
0.010445042584677391,0.409
0.010419078289756089,0.41
0.010394807686796712,0.411
0.01037228459574205,0.412
0.010351554118039234,0.413
0.010332653918802958,0.414
0.010315615806018901,0.415
0.010300467237128444,0.416
0.01028723224877352,0.417
0.010275931339540492,0.418
0.010266580161895888,0.419
0.010259187792071979,0.42
0.010253756208445998,0.421
0.010250281675582012,0.422
0.010248756756773593,0.423
0.010249171361730142,0.424
0.01025151229567071,0.425
0.010255761579126466,0.426
0.010261894578606665,0.427
0.010269879539838064,0.428
0.010279679104822127,0.429
0.010291252668072935,0.43
0.010304558181823863,0.431
0.010319552833432504,0.432
0.01033619247592936,0.433
0.010354429841315906,0.434
0.010374212135829857,0.435
0.010395479676856466,0.436
0.010418166996681485,0.437
0.01044220583260999,0.438
0.010467528303135512,0.439
0.010494069149533311,0.44
0.010521766565764926,0.441
0.010550561372116447,0.442
0.010580394481404002,0.443
0.010611203401316964,0.444
0.010642920007618373,0.445
0.010675471568674946,0.446
0.010708784192036075,0.447
0.010742786162920572,0.448
0.010777409523572366,0.449
0.010812589466783682,0.45
0.01084826173878506,0.451
0.010884358914845828,0.452
0.010920807334539786,0.453
0.010957526367107744,0.454
0.010994429763225061,0.455
0.011031427395875253,0.456
0.011068426328674098,0.457
0.01110533128511283,0.458
0.011142044912575092,0.459
0.011178468086648064,0.46
0.01121450025873415,0.461
0.011250039613066129,0.462
0.011284982671540145,0.463
0.011319223033597337,0.464
0.011352649222144287,0.465
0.011385142400023756,0.466
0.011416575545117663,0.467
0.011446814853127011,0.468
0.011475722258019563,0.469
0.011503157614764638,0.47
0.011528980038720544,0.471
0.011553048480092181,0.472
0.011575221828274421,0.473
0.011595359020338904,0.474
0.01161331968860752,0.475
0.011628965746552084,0.476
0.01164216395515555,0.477
0.011652789006108178,0.478
0.01166072617122563,0.479
0.011665872287699367,0.48
0.011668133893979185,0.481
0.011667422368718948,0.482
0.011663649132897504,0.483
0.011656726576871824,0.484
0.011646576866167508,0.485
0.011633144410323506,0.486
0.011616406477233015,0.487
0.011596379006402195,0.488
0.011573116571270846,0.489
0.011546706639951589,0.49
0.011517259422749207,0.491
0.0114848958406532,0.492
0.011449737921925059,0.493
0.011411905856730785,0.494
0.01137152149908326,0.495
0.011328713907352676,0.496
0.011283623506678256,0.497
0.011236404281014896,0.498
0.011187224298312877,0.499
0.011136264737970114,0.5
0.011083717521915675,0.501
0.011029781723472394,0.502
0.010974659120990216,0.503
0.010918549468479241,0.504
0.0108616463938222,0.505
0.010804135069609259,0.506
0.010746191812079628,0.507
0.010687984247217824,0.508
0.01062967106694562,0.509
0.010571402030209691,0.51
0.01051331896382124,0.511
0.010455557267319244,0.512
0.010398246960094447,0.513
0.010341512794888926,0.514
0.01028547338804037,0.515
0.010230239840509673,0.516
0.010175915058003105,0.517
0.010122594612562543,0.518
0.010070368569302325,0.519
0.010019323279270966,0.52
0.009969542816624741,0.521
0.00992111014292157,0.522
0.009874108057679083,0.523
0.00982861985268355,0.524
0.009784729425871668,0.525
0.009742520544049418,0.526
0.0097020750438666,0.527
0.009663470352943997,0.528
0.00962677778113575,0.529
0.009592062917294088,0.53
0.00955938755215084,0.531
0.009528811312162794,0.532
0.009500391830519839,0.533
0.009474183332919188,0.534
0.009450234541438434,0.535
0.009428587715794915,0.536
0.009409279757370702,0.537
0.009392344139837038,0.538
0.009377812006298124,0.539
0.009365711934538638,0.54
0.00935606862958669,0.541
0.009348901106304505,0.542
0.009344221234097573,0.543
0.009342033420190568,0.544
0.009342335403228442,0.545
0.009345119443156163,0.546
0.009350373310201377,0.547
0.009358080832166542,0.548
0.009368221891071182,0.549
0.009380771853713969,0.55
0.009395700577234252,0.551
0.0094129712747974,0.552
0.009432539606424643,0.553
0.00945435335519991,0.554
0.00947835294807881,0.555
0.009504472881249573,0.556
0.00953264384240155,0.557
0.009562795056711404,0.558
0.009594856208010337,0.559
0.0096287582666637,0.56
0.009664432705561728,0.561
0.009701809159906689,0.562
0.009740813032364628,0.563
0.009781365561751897,0.564
0.009823387153062036,0.565
0.009866801992745531,0.566
0.009911541633421788,0.567
0.009957546547994004,0.568
0.010004765467354298,0.569
0.0100531526495294,0.57
0.010102663537860991,0.571
0.010153250170728307,0.572
0.010204858832156492,0.573
0.010257431022392363,0.574
0.010310905639442034,0.575
0.010365219846185127,0.576
0.010420308069195111,0.577
0.010476099771127746,0.578
0.01053251699920355,0.579
0.010589472712463703,0.58
0.01064687030229455,0.581
0.010704604320097157,0.582
0.01076256249608042,0.583
0.010820628761026954,0.584
0.010878686444234564,0.585
0.010936620833356562,0.586
0.01099432051679673,0.587
0.011051677111967972,0.588
0.01110858315651907,0.589
0.011164928677907178,0.59
0.011220598702209922,0.591
0.011275474451265359,0.592
0.011329438297324444,0.593
0.011382379828521288,0.594
0.011434200468660434,0.595
0.011484815345715315,0.596
0.011534151957317513,0.597
0.011582145882124917,0.598
0.011628734645773162,0.599
0.011673852175735017,0.6
0.01171742683157543,0.601
0.011759383538150451,0.602
0.011799647382734226,0.603
0.011838146226014765,0.604
0.01187481188130655,0.605
0.011909580287480282,0.606
0.01194239109834009,0.607
0.011973186971456086,0.608
0.012001912654580591,0.609
0.012028513795485836,0.61
0.012052935242763872,0.611
0.012075118480429501,0.612
0.01209499871134618,0.613
0.012112504160286676,0.614
0.012127559839885763,0.615
0.012140094509835306,0.616
0.01215004772564324,0.617
0.012157374715164456,0.618
0.012162047648089794,0.619
0.012164052464797376,0.62
0.0121633820248894,0.621
0.01216002960106167,0.622
0.012153988298578411,0.623
0.01214525739404591,0.624
0.012133850710284177,0.625
0.01211980213743699,0.626
0.012103166584614685,0.627
0.012084016379130317,0.628
0.012062433799076242,0.629
0.012038502393727541,0.63
0.012012302706616509,0.631
0.011983915752325188,0.632
0.011953430618884387,0.633
0.011920950693091412,0.634
0.011886596295793788,0.635
0.011850503511112503,0.636
0.01181281948438908,0.637
0.011773695432931134,0.638
0.01173328058637753,0.639
0.011691720813991755,0.64
0.011649161988945446,0.641
0.011605754127794424,0.642
0.011561652949267878,0.643
0.011517018270733339,0.644
0.011472010126423352,0.645
0.011426784176447718,0.646
0.011381488402449519,0.647
0.011336262027007033,0.648
0.011291235510159262,0.649
0.011246530216206394,0.65
0.01120225801623095,0.651
0.011158521608809516,0.652
0.011115415124462933,0.653
0.011073024159184767,0.654
0.01103142565888908,0.655
0.010990688949273924,0.656
0.01095087815979132,0.657
0.010912054808603234,0.658
0.010874279146492905,0.659
0.010837609539983292,0.66
0.010802100246288495,0.661
0.0107677995505356,0.662
0.01073475051573256,0.663
0.010702994229894423,0.664
0.010672573348957107,0.665
0.010643534167457796,0.666
0.01061592673494389,0.667
0.010589803221925091,0.668
0.010565215012279116,0.669
0.010542209333000463,0.67
0.0105208268981538,0.671
0.0105011020526793,0.672
0.010483065387302903,0.673
0.010466747413738469,0.674
0.01045218204438883,0.675
0.010439409229576325,0.676
0.010428476271170427,0.677
0.01041943738034765,0.678
0.010412351244932283,0.679
0.010407276941882215,0.68
0.01040426994222648,0.681
0.010403380960916702,0.682
0.01040465843672433,0.683
0.01040815229250871,0.684
0.010413916419797657,0.685
0.010422009042081626,0.686
0.010432491039310642,0.687
0.010445422617797413,0.688
0.010460859461824863,0.689
0.010478850486400706,0.69
0.010499438288186367,0.691
0.01052266074022429,0.692
0.010548551616253947,0.693
0.010577139630008702,0.694
0.010608446613266778,0.695
0.01064248645599636,0.696
0.01067926588422494,0.697
0.010718786243241182,0.698
0.01076104477180003,0.699
0.010806034667903582,0.7
0.010853743912793281,0.701
0.010904153411997667,0.702
0.010957235822964753,0.703
0.011012956059399242,0.704
0.011071272774678806,0.705
0.011132139389192164,0.706
0.01119550389549609,0.707
0.011261307571933717,0.708
0.011329483745728518,0.709
0.011399958105166553,0.71
0.011472650726726158,0.711
0.011547478457959465,0.712
0.011624356308351902,0.713
0.011703197271460023,0.714
0.011783910496038686,0.715
0.011866398572212375,0.716
0.011950556001947249,0.717
0.012036270304503173,0.718
0.012123424583348719,0.719
0.012211899439830217,0.72
0.012301573356615633,0.721
0.012392321732689152,0.722
0.012484015186555982,0.723
0.012576517949871675,0.724
0.012669687127337969,0.725
0.012763373299226454,0.726
0.012857422477206434,0.727
0.012951678945047144,0.728
0.01304598816986826,0.729
0.013140198847524985,0.73
0.01323416327466227,0.731
0.013327735568682579,0.732
0.013420767927009948,0.733
0.013513106818562071,0.734
0.013604592623568695,0.735
0.013695064421235276,0.736
0.013784367690608668,0.737
0.013872361620115311,0.738
0.013958924106305198,0.739
0.014043953468617759,0.74
0.014127366474016259,0.741
0.014209092966438987,0.742
0.014289067994561973,0.743
0.014367223687213755,0.744
0.014443484984805046,0.745
0.014517771377585649,0.746
0.014590001706399382,0.747
0.014660097980394523,0.748
0.014727986779708328,0.749
0.014793598248290827,0.75
0.014856862852723047,0.751
0.014917706765353884,0.752
0.014976048442734067,0.753
0.015031799363354522,0.754
0.015084868880279668,0.755
0.01513517011551708,0.756
0.015182623974971747,0.757
0.015227159805905938,0.758
0.015268712065292794,0.759
0.015307214291736383,0.76
0.01534259539842283,0.761
0.015374783214376023,0.762
0.015403714001832864,0.763
0.015429342434758892,0.764
0.015451647961562355,0.765
0.015470635936649612,0.766
0.015486333256043167,0.767
0.01549877927459017,0.768
0.015508015034563623,0.769
0.01551407684635864,0.77
0.015516997821516047,0.771
0.015516813469542425,0.772
0.01551356519959871,0.773
0.01550729934485689,0.774
0.015498062385083656,0.775
0.015485895144290624,0.776
0.015470830336638113,0.777
0.015452895191247124,0.778
0.015432115905060885,0.779
0.015408519981324902,0.78
0.015382135176450672,0.781
0.015352985758109892,0.782
0.015321088754641485,0.783
0.015286454055332376,0.784
0.015249089585880744,0.785
0.015209008907433647,0.786
0.015166238163289785,0.787
0.01512082094725136,0.788
0.015072820462362255,0.789
0.015022318575877922,0.79
0.014969411768983453,0.791
0.014914204493436754,0.792
0.014856801304646883,0.793
0.014797300537174813,0.794
0.014735792332770005,0.795
0.014672360743511558,0.796
0.014607086788958144,0.797
0.014540050218503681,0.798
0.014471329912940627,0.799
0.014401003665301823,0.8
0.014329148023557675,0.801
0.014255838656212001,0.802
0.01418115140245826,0.803
0.014105163873667243,0.804
0.014027957229500959,0.805
0.01394961758408695,0.806
0.013870236437505979,0.807
0.013789909614198159,0.808
0.013708734434272703,0.809
0.013626805437616261,0.81
0.013544210382647276,0.811
0.013461029236963042,0.812
0.013377336939527014,0.813
0.01329320762633026,0.814
0.013208717816439782,0.815
0.013123947738791665,0.816
0.013038980849915583,0.817
0.012953901790108168,0.818
0.012868793167621649,0.819
0.012783731869779585,0.82
0.012698786273266415,0.821
0.01261401576455159,0.822
0.012529472438151685,0.823
0.012445203381853617,0.824
0.012361252242047028,0.825
0.012277659664600739,0.826
0.012194462566690108,0.827
0.012111692298028649,0.828
0.012029372344492712,0.829
0.011947517287870654,0.83
0.011866134294184951,0.831
0.011785226280009194,0.832
0.011704795014619424,0.833
0.011624843130608794,0.834
0.011545374554562103,0.835
0.011466393091858377,0.836
0.011387899488983692,0.837
0.011309888617784565,0.838
0.011232349145260823,0.839
0.011155266164792699,0.84
0.011078624666853446,0.841
0.011002411630323393,0.842
0.010926615895205492,0.843
0.010851225767935551,0.844
0.010776225483212835,0.845
0.01070159359679195,0.846
0.01062730554793529,0.847
0.010553338773878635,0.848
0.010479677235349769,0.849
0.01040631366567623,0.85
0.010333248997269605,0.851
0.010260488909220898,0.852
0.010188038811847516,0.853
0.010115900856002039,0.854
0.010044075907104887,0.855
0.009972569066497603,0.856
0.009901395088558524,0.857
0.009830581578779795,0.858
0.009760169496094206,0.859
0.009690211087946914,0.86
0.00962076569750703,0.861
0.009551894387376024,0.862
0.009483655462990957,0.863
0.009416103362474393,0.864
0.00934929106891975,0.865
0.009283273539229015,0.866
0.009218109920585759,0.867
0.00915386399110827,0.868
0.009090603010658609,0.869
0.00902839533965163,0.87
0.008967307338816644,0.871
0.008907400363500512,0.872
0.008848728920247285,0.873
0.008791340303482956,0.874
0.008735274737781896,0.875
0.008680565152997545,0.876
0.00862723689363555,0.877
0.008575307888595252,0.878
0.008524789033955416,0.879
0.008475684247652842,0.88
0.008427990265845642,0.881
0.008381696872557685,0.882
0.008336787996522864,0.883
0.008293243320481614,0.884
0.008251039764500052,0.885
0.008210152416846852,0.886
0.00817055463147679,0.887
0.008132217083479597,0.888
0.008095106139536599,0.889
0.008059183016296649,0.89
0.00802440502587259,0.891
0.007990728271103253,0.892
0.007958110116438533,0.893
0.00792651042195549,0.894
0.007895891293128007,0.895
0.007866215483944046,0.896
0.007837443894080526,0.897
0.007809533081011144,0.898
0.007782434083143618,0.899
0.00775609300363269,0.9
0.007730452359866979,0.901
0.007705452145243906,0.902
0.007681030455453087,0.903
0.007657123975704004,0.904
0.007633668647696447,0.905
0.007610600740744118,0.906
0.007587858343469871,0.907
0.007565383038635039,0.908
0.007543121314886153,0.909
0.007521025164156078,0.91
0.007499051333888981,0.911
0.00747715886417991,0.912
0.007455305704920457,0.913
0.007433447301842703,0.914
0.007411539341795729,0.915
0.007389543061643422,0.916
0.007367430098664767,0.917
0.007345185424325813,0.918
0.0073228080781972335,0.919
0.007300309822859654,0.92
0.007277712131194971,0.921
0.007255042077175437,0.922
0.007232327850532306,0.923
0.007209595068483615,0.924
0.007186865295473628,0.925
0.00716415694916858,0.926
0.007141487138399154,0.927
0.007118873128239938,0.928
0.007096333221936205,0.929
0.0070738872596994365,0.93
0.007051556871657058,0.931
0.007029365536876721,0.932
0.00700733842304383,0.933
0.006985501931712277,0.934
0.006963882865695967,0.935
0.006942507171466862,0.936
0.00692139827978319,0.937
0.0069005753948577445,0.938
0.006880052616632326,0.939
0.006859839460997248,0.94
0.006839942180514859,0.941
0.006820364937232187,0.942
0.006801110450848434,0.943
0.006782180140244461,0.944
0.006763573868529636,0.945
0.0067452894307779634,0.946
0.0067273219139230515,0.947
0.0067096630275327385,0.948
0.006692300467138554,0.949
0.006675217334637727,0.95
0.006658391601316635,0.951
0.006641795631780451,0.952
0.006625395978877873,0.953
0.006609153774795198,0.954
0.006593025819115069,0.955
0.006576966170444174,0.956
0.00656092797128504,0.957
0.006544865248508523,0.958
0.006528734428086618,0.959
0.0065124953320652825,0.96
0.006496111497973225,0.961
0.006479549747107734,0.962
0.006462779014445917,0.963
0.00644576853657663,0.964
0.006428485687198333,0.965
0.006410894243466057,0.966
0.006392954136816927,0.967
0.006374622934914073,0.968
0.006355858243762224,0.969
0.006336620265555097,0.97
0.006316874336062094,0.971
0.006296593424100773,0.972
0.006275760400183856,0.973
0.006254369659747336,0.974
0.0062324275523893075,0.975
0.006209951133047192,0.976
0.006186965025212803,0.977
0.006163497058889343,0.978
0.006139574964239784,0.979
0.006115226540105249,0.98
0.006090482927796214,0.981
0.006065382285712829,0.982
0.0060399718227058035,0.983
0.006014307724411106,0.984
0.00598845325973751,0.985
0.0059624756408372505,0.986
0.005936442452167149,0.987
0.0059104187765735075,0.988
0.005884465994702764,0.989
0.005858642043552855,0.99
0.005833001886283957,0.991
0.005807597344216124,0.992
0.005782476381806045,0.993
0.005757682394812502,0.994
0.00573325401089757,0.995
0.005709225439920206,0.996
0.005685626989740501,0.997
0.005662485453688311,0.998
0.005639824335685013,0.999
0.005617663950546757,1.0
0.005596021408807181,1.001
0.00557491047065812,1.002
0.0055543412360393955,1.003
0.0055343196823778905,1.004
0.005514847279916568,1.005
0.005495921114196239,1.006
0.005477534695517954,1.007
0.00545967915576944,1.008
0.005442344415250863,1.009
0.00542552006330515,1.01
0.005409195806013933,1.011
0.005393361404235219,1.012
0.0053780061139692735,1.013
0.005363117723958474,1.014
0.0053486813541220755,1.015
0.005334678348962718,1.016
0.005321085791050122,1.017
0.005307876848738149,1.018
0.0052950215544426225,1.019
0.005282487559582633,1.02
0.005270240786997777,1.021
0.005258246069504221,1.022
0.005246467826412222,1.023
0.005234870737832509,1.024
0.0052234202641923905,1.025
0.0052120827845935636,1.026
0.005200825144366628,1.027
0.005189613518108939,1.028
0.005178411896232041,1.029
0.0051671811632040664,1.03
0.005155879617025327,1.031
0.005144464622680957,1.032
0.0051328944460756094,1.033
0.005121129682918722,1.034
0.005109134117643145,1.035
0.005096875000355868,1.036
0.005084322813402768,1.037
0.005071450645574999,1.038
0.005058233286915327,1.039
0.005044646122682766,1.04
0.005030663879506199,1.041
0.005016259278709543,1.042
0.005001401808738732,1.043
0.004986057126385396,1.044
0.004970187463885176,1.045
0.00495375283591728,1.046
0.004936712663960839,1.047
0.004919027682896449,1.048
0.004900662058415813,1.049
0.004881585509987525,1.05
0.004861775104519555,1.051
0.004841216313599156,1.052
0.004819902942907459,1.053
0.0047978356668515005,1.054
0.004775019160455003,1.055
0.004751458793158682,1.056
0.004727159241413996,1.057
0.004702126448534246,1.058
0.004676371393569866,1.059
0.00464991330512584,1.06
0.004622781318236411,1.061
0.00459501445613191,1.062
0.00456666010045598,1.063
0.004537771339265921,1.064
0.0045084037028155855,1.065
0.00447861210133743,1.066
0.00444844919819333,1.067
0.004417965733903988,1.068
0.004387211780173612,1.069
0.004356237700750595,1.07
0.004325094498245906,1.071
0.0042938336782630745,1.072
0.0042625067737965695,1.073
0.0042311646450600374,1.074
0.004199856631192718,1.075
0.004168629659620866,1.076
0.004137527598802984,1.077
0.004106591196339485,1.078
0.004075858545029643,1.079
0.00404536557087709,1.08
0.004015146064352278,1.081
0.003985231279151266,1.082
0.0039556498155728275,1.083
0.003926428483275503,1.084
0.003897593870870328,1.085
0.0038691737476089128,1.086
0.0038411976506560735,1.087
0.0038136963831615347,1.088
0.0037867006480757537,1.089
0.0037602398151293298,1.09
0.003734341879026805,1.091
0.003709034442329143,1.092
0.003684345579524301,1.093
0.0036603038275651563,1.094
0.00363693735092559,1.095
0.003614272741934896,1.096
0.0035923340111021244,1.097
0.003571142083842658,1.098
0.003550714768252784,1.099
0.003531067106202303,1.1
0.003512212012620342,1.101
0.0034941608729386173,1.102
0.0034769236718938867,1.103
0.003460508603618028,1.104
0.0034449217851016487,1.105
0.0034301677622760604,1.106
0.0034162506191424977,1.107
0.00340317485859487,1.108
0.0033909454555111048,1.109
0.0033795670685413054,1.11
0.0033690431105643827,1.111
0.003359375715067642,1.112
0.0033505668426762787,1.113
0.003342619716645364,1.114
0.0033355397771274303,1.115
0.0033293349294481484,1.116
0.0033240151590321885,1.117
0.0033195916438210566,1.118
0.0033160755115849384,1.119
0.003313476555156311,1.12
0.003311802539774721,1.121
0.0033110595189437533,1.122
0.0033112527864152556,1.123
0.0033123878188567745,1.124
0.0033144709172885415,1.125
0.003317509500143271,1.126
0.003321512036673863,1.127
0.003326487624327833,1.128
0.0033324452502069115,1.129
0.003339392840176541,1.13
0.003347336309911703,1.131
0.0033562789126128888,1.132
0.0033662209763262512,1.133
0.0033771598306866534,1.134
0.0033890898283283387,1.135
0.0034020025296429123,1.136
0.0034158869166732264,1.137
0.0034307293965512497,1.138
0.003446513655527381,1.139
0.003463220715642385,1.14
0.0034808293721606655,1.141
0.003499316784845554,1.142
0.003518658922795429,1.143
0.0035388307614040017,1.144
0.003559806258741812,1.145
0.003581558172398302,1.146
0.0036040577801212787,1.147
0.0036272745519263217,1.148
0.0036511758050327093,1.149
0.0036757263666533776,1.15
0.0037008882729001645,1.151
0.0037266205371034684,1.152
0.0037528790173505617,1.153
0.003779616392533315,1.154
0.0038067822169082837,1.155
0.003834322970881132,1.156
0.0038621820179186544,1.157
0.003890299566401923,1.158
0.0039186130370679915,1.159
0.0039470581781710186,1.16
0.0039755708080072465,1.161
0.0040040887193909195,1.162
0.004032553197344952,1.163
0.004060909614077938,1.164
0.004089106696063453,1.165
0.004117094634236807,1.166
0.004144823414906523,1.167
0.004172243177621727,1.168
0.00419930672402839,1.169
0.004225972461157418,1.17
0.004252206189704072,1.171
0.004277981198585638,1.172
0.004303276772501335,1.173
0.0043280755464442065,1.174
0.00435236054026151,1.175
0.004376113161668457,1.176
0.004399313043325645,1.177
0.004421939206082704,1.178
0.004443971433272311,1.179
0.004465391315680787,1.18
0.004486182926343135,1.181
0.0045063331083916676,1.182
0.004525831287657053,1.183
0.004544668726670831,1.184
0.004562837213383085,1.185
0.004580327412688977,1.186
0.004597127568829401,1.187
0.0046132233260374215,1.188
0.004628598601933482,1.189
0.004643236660803175,1.19
0.004657120728300719,1.191
0.004670234052562565,1.192
0.004682559574564884,1.193
0.004694079415545242,1.194
0.00470477436726129,1.195
0.00471462350415582,1.196
0.0047236039538915845,1.197
0.004731690788730071,1.198
0.004738856950414919,1.199
0.0047450731013075655,1.2
0.004750307299465377,1.201
0.004754524481990806,1.202
0.004757686040331428,1.203
0.004759750053630528,1.204
0.004760672489903324,1.205
0.004760409129888542,1.206
0.0047589177914211245,1.207
0.004756160520958782,1.208
0.004752105398986319,1.209
0.004746727544685455,1.21
0.004740008936170164,1.211
0.004731936798387256,1.212
0.004722500845822257,1.213
0.004711690936754396,1.214
0.004699497291422691,1.215
0.004685913601878252,1.216
0.004670941082856551,1.217
0.004654591488113898,1.218
0.004636888300584127,1.219
0.004617866016747591,1.22
0.0045975677997683135,1.221
0.004576042040742789,1.222
0.004553338664633154,1.223
0.00452950643444638,1.224
0.004504592233455651,1.225
0.0044786419190718085,1.226
0.004451701419648054,1.227
0.004423817280285645,1.228
0.004395036679609592,1.229
0.004365407187749459,1.23
0.0043349764993467835,1.231
0.004303792293885603,1.232
0.004271902279515188,1.233
0.004239354394504094,1.234
0.004206197087353353,1.235
0.004172479572339921,1.236
0.004138251955282301,1.237
0.00410356514024141,1.238
0.00406847045979951,1.239
0.0040330190121762016,1.24
0.003997260721951519,1.241
0.003961243330761229,1.242
0.00392501191830032,1.243
0.0038886094636506508,1.244
0.0038520781936924376,1.245
0.003815461045830073,1.246
0.0037788027917505787,1.247
0.0037421506238326566,1.248
0.0037055541431242813,1.249
0.00366906481295295,1.25
0.0036327350382643164,1.251
0.0035966170759310153,1.252
0.0035607619720367067,1.253
0.0035252186645185796,1.254
0.0034900333359474947,1.255
0.0034552490934931183,1.256
0.003420905992759353,1.257
0.0033870412854900777,1.258
0.003353689732064362,1.259
0.003320883896828866,1.26
0.0032886544002104544,1.261
0.003257030117073414,1.262
0.003226038323732637,1.263
0.0031957048055050877,1.264
0.00316605393501575,1.265
0.0031371087201832186,1.266
0.00310889080835165,1.267
0.003081420428496124,1.268
0.003054716259610983,1.269
0.003028795226369352,1.27
0.00300367223742292,1.271
0.002979359892698924,1.272
0.0029558682210119496,1.273
0.00293320456391239,1.274
0.002911373671639765,1.275
0.0028903779392135203,1.276
0.002870217685829224,1.277
0.002850891451170941,1.278
0.002832396300785385,1.279
0.0028147281024439833,1.28
0.002797881705191054,1.281
0.002781850940476204,1.282
0.0027666283831771585,1.283
0.002752204929595003,1.284
0.0027385694819968684,1.285
0.002725709039007957,1.286
0.0027136091007288537,1.287
0.0027022540007935244,1.288
0.0026916268943222963,1.289
0.0026817094215981375,1.29
0.0026724813498364606,1.291
0.0026639205489852515,1.292
0.00265600328996817,1.293
0.0026487044849609035,1.294
0.0026419975853286207,1.295
0.002635854277353993,1.296
0.00263024442189305,1.297
0.0026251364398056014,1.298
0.00262049780088557,1.299
0.0026162951554295814,1.3
0.002612494020159268,1.301
0.00260905843334987,1.302
0.0026059511598211836,1.303
0.0026031345289022996,1.304
0.002600571432291095,1.305
0.002598226028193303,1.306
0.002596063974596355,1.307
0.0025940521720983854,1.308
0.0025921580849916446,1.309
0.002590348785785846,1.31
0.002588590007611805,1.311
0.0025868456429182377,1.312
0.0025850778757314607,1.313
0.002583247621964743,1.314
0.0025813149166372534,1.315
0.0025792392222974934,1.316
0.0025769797982595536,1.317
0.002574496260021563,1.318
0.0025717493897761956,1.319
0.002568702145102645,1.32
0.0025653206932658174,1.321
0.0025615752224385233,1.322
0.0025574402810997726,1.323
0.0025528944687601444,1.324
0.0025479194093686974,1.325
0.002542498173557025,1.326
0.0025366138951322384,1.327
0.0025302497207767027,1.328
0.002523390449381352,1.329
0.0025160250009275244,1.33
0.0025081486948786555,1.331
0.0024997648174429937,1.332
0.0024908852094968352,1.333
0.002481529721678322,1.334
0.0024717245707915744,1.335
0.0024614998422453484,1.336
0.0024508868557041176,1.337
0.002439916706674377,1.338
0.0024286206494993005,1.339
0.0024170313614020576,1.34
0.0024051838149865825,1.341
0.002393115398565335,1.342
0.002380865455344684,1.343
0.002368474480546003,1.344
0.0023559832057970472,1.345
0.002343431752184177,1.346
0.0023308589672226495,1.347
0.002318301994020551,1.348
0.002305796067611355,1.349
0.002293374500504298,1.35
0.002281068802756311,1.351
0.0022689088734251595,1.352
0.0022569231966415174,1.353
0.0022451389781113023,1.354
0.0022335821717672346,1.355
0.0022222773777421903,1.356
0.0022112476404006253,1.357
0.0022005142249367335,1.358
0.0021900964821956518,1.359
0.0021800119030476696,1.36
0.0021702764029556654,1.361
0.0021609047744500526,1.362
0.002151911141598289,1.363
0.0021433092013288285,1.364
0.0021351120741152133,1.365
0.002127331862021318,1.366
0.0021199794730979273,1.367
0.0021130651702271274,1.368
0.002106599564367422,1.369
0.002100594464713024,1.37
0.0020950632932226158,1.371
0.0020900210277209233,1.372
0.002085483750040544,1.373
0.002081467945367765,1.374
0.0020779897153224347,1.375
0.0020750640677491008,1.376
0.002072704456566725,1.377
0.002070922658199976,1.378
0.002069728873198315,1.379
0.002069131863571956,1.38
0.002069139039789392,1.381
0.0020697565058288856,1.382
0.0020709890848812328,1.383
0.002072840339574181,1.384
0.002075312594222562,1.385
0.002078406962813232,1.386
0.0020821233848115042,1.387
0.0020864606666276325,1.388
0.002091416516066845,1.389
0.002096987545024385,1.39
0.0021031692128912157,1.391
0.0021099556972423122,1.392
0.0021173397047325763,1.393
0.0021253122576412684,1.394
0.0021338625096426647,1.395
0.0021429776537086457,1.396
0.0021526429435854023,1.397
0.002162841790162692,1.398
0.0021735559061459033,1.399
0.0021847655209577864,1.4
0.0021964496909805528,1.401
0.002208586693145844,1.402
0.0022211544381043656,1.403
0.002234130789910308,1.404
0.002247493661324256,1.405
0.002261220790564124,1.406
0.0022752892195259428,1.407
0.0022896747284354693,1.408
0.002304351644524195,1.409
0.0023192931457880588,1.41
0.002334471689059417,1.411
0.0023498591479068176,1.412
0.002365426535409544,1.413
0.0023811434894229905,1.414
0.0023969779579652594,1.415
0.002412896353078411,1.416
0.0024288639084442554,1.417
0.0024448448351119157,1.418
0.0024608021346094354,1.419
0.0024766972105647617,1.42
0.002492489684410388,1.421
0.0025081377368340336,1.422
0.002523598832964207,1.423
0.0025388305136275877,1.424
0.0025537911247255846,1.425
0.002568440475264394,1.426
0.0025827404004160432,1.427
0.002596655159186393,1.428
0.0026101515440266998,1.429
0.0026231985484153502,1.43
0.0026357664526996854,1.431
0.0026478255500673336,1.432
0.002659345481895638,1.433
0.0026702960524380703,1.434
0.0026806491188873594,1.435
0.0026903804792493885,1.436
0.002699471139088178,1.437
0.0027079078440790916,1.438
0.0027156829707626093,1.439
0.0027227939462491505,1.44
0.002729242357883186,1.441
0.002735032859638069,1.442
0.0027401719343614277,1.443
0.0027446665500903446,1.444
0.0027485228896733127,1.445
0.00275174564944928,1.446
0.0027543382951411973,1.447
0.0027563039957138277,1.448
0.0027576466348205094,1.449
0.00275837156336517,1.45
0.002758486017169691,1.451
0.0027579992147318813,1.452
0.002756922194378842,1.453
0.0027552674722319957,1.454
0.0027530486082811036,1.455
0.002750279768420531,1.456
0.00274697536437551,1.457
0.002743149829374119,1.458
0.0027388175396815314,1.459
0.0027339928332409335,1.46
0.0027286900322282706,1.461
0.002722923366999247,1.462
0.002716706724912283,1.463
0.0027100531894899073,1.464
0.002702974451939679,1.465
0.0026954804228634935,1.466
0.002687579436741107,1.467
0.0026792790777950197,1.468
0.0026705873056431556,1.469
0.0026615135802182974,1.47
0.00265206981296326,1.471
0.002642271003519346,1.472
0.002632135439343228,1.473
0.0026216843957835544,1.474
0.002610941361889883,1.475
0.0025999309044958305,1.476
0.0025886773883784333,1.477
0.002577203948008262,1.478
0.002565532129131483,1.479
0.0025536821804608358,1.48
0.0025416735196484175,1.481
0.002529525006222142,1.482
0.002517255006996545,1.483
0.0025048813862456163,1.484
0.002492421547588641,1.485
0.002479892601003399,1.486
0.0024673116420633385,1.487
0.0024546960444391907,1.488
0.0024420636168366867,1.489
0.00242943248355573,1.49
0.0024168206109275122,1.491
0.002404245102405621,1.492
0.0023917217233620845,1.493
0.0023792651006167083,1.494
0.0023668894733920396,1.495
0.00235460948061232,1.496
0.0023424406152005666,1.497
0.0023303992252821813,1.498
0.002318502070372206,1.499
0.002306765552186301,1.5
0.002295204944295418,1.501
0.002283834088372086,1.502
0.002272665709140373,1.503
0.0022617119865829148,1.504
0.002250984987640769,1.505
0.0022404968368847328,1.506
0.0022302596339344493,1.507
0.002220285140834746,1.508
0.002210584282047204,1.509
0.0022011666067774716,1.51
0.0021920400288289333,1.511
0.002183211013873888,1.512
0.002174684977178729,1.513
0.002166466570209709,1.514
0.0021585597599738304,1.515
0.0021509677492393057,1.516
0.0021436928267644017,1.517
0.002136736248895691,1.518
0.0021300982310837775,1.519
0.0021237780757877786,1.52
0.0021177744002326836,1.521
0.0021120853813512007,1.522
0.00210670892738109,1.523
0.0021016427117001414,1.524
0.002096884039275472,1.525
0.00209242954129436,1.526
0.0020882747540284415,1.527
0.0020844137835292686,1.528
0.0020808393038373157,1.529
0.002077542886524015,1.53
0.0020745153926493955,1.531
0.0020717471936930925,1.532
0.002069228166369152,1.533
0.0020669475141080265,1.534
0.002064893513881245,1.535
0.0020630533028378178,1.536
0.002061412806957998,1.537
0.002059956877009849,1.538
0.002058669637342697,1.539
0.002057534982120001,1.54
0.002056537097636544,1.541
0.0020556608730954045,1.542
0.002054892086586647,1.543
0.002054217294433881,1.544
0.0020536233890300075,1.545
0.002053096912973309,1.546
0.00205262351517172,1.547
0.0020521880282629375,1.548
0.0020517751663559278,1.549
0.002051370344364899,1.55
0.002050960187655584,1.551
0.002050532613715958,1.552
0.002050076545941227,1.553
0.002049581397679853,1.554
0.0020490365048328896,1.555
0.002048430680389508,1.556
0.0020477520091582812,1.557
0.0020469879037086926,1.558
0.002046125332526345,1.559
0.0020451510472836443,1.56
0.0020440516072898728,1.561
0.002042813082169843,1.562
0.0020414206428503107,1.563
0.0020398586133503482,1.564
0.0020381112959249985,1.565
0.0020361641706648456,1.566
0.0020340048225992572,1.567
0.00203162318188582,1.568
0.0020290108891334612,1.569
0.002026160095650945,1.57
0.0020230628089513043,1.571
0.002019711622883351,1.572
0.002016101224381725,1.573
0.0020122295003146998,1.574
0.0020080977111681044,1.575
0.0020037097606182565,1.576
0.001999070851376031,1.577
0.001994186145505984,1.578
0.0019890602151661505,1.579
0.001983697474158018,1.58
0.0019781029354606094,1.581
0.0019722826546388905,1.582
0.00196624376063061,1.583
0.001959994237430962,1.584
0.001953542632176876,1.585
0.001946897809845627,1.586
0.0019400687824478761,1.587
0.001933064558501768,1.588
0.0019258939238708818,1.589
0.0019185650883326228,1.59
0.0019110852403762257,1.591
0.001903460216990265,1.592
0.0018956944787247314,1.593
0.0018877913162095566,1.594
0.0018797530659154932,1.595
0.0018715812318065214,1.596
0.001863276537667845,1.597
0.00185483893975486,1.598
0.0018462675824933016,1.599
0.0018375606458267114,1.6
0.001828715100512005,1.601
0.0018197265665622015,1.602
0.0018105894635583805,1.603
0.001801297342392673,1.604
0.0017918431000508678,1.605
0.0017822189009068232,1.606
0.0017724159491723335,1.607
0.001762424570321705,1.608
0.0017522348991017849,1.609
0.0017418379323709669,1.61
0.0017312265037048137,1.611
0.0017203959117464392,1.612
0.0017093440786229216,1.613
0.0016980711919597415,1.614
0.0016865788672087941,1.615
0.0016748690732324547,1.616
0.0016629434096953784,1.617
0.001650803239495757,1.618
0.001638450482378937,1.619
0.001625888468851513,1.62
0.0016131225012749127,1.621
0.0016001600770101886,1.622
0.001587010823081682,1.623
0.0015736861999509511,1.624
0.0015601990184955098,1.625
0.0015465627956908327,1.626
0.001532791022873057,1.627
0.0015188966073878105,1.628
0.00150489183134847,1.629
0.0014907888420640104,1.63
0.0014766002971854913,1.631
0.001462339813388989,1.632
0.0014480221071900838,1.633
0.0014336628551369862,1.634
0.001419278359104635,1.635
0.0014048851317521695,1.636
0.0013904995093508073,1.637
0.0013761373597220787,1.638
0.0013618138995243607,1.639
0.0013475435875058151,1.64
0.001333340032183026,1.641
0.0013192158788621182,1.642
0.0013051827464277185,1.643
0.0012912513444462506,1.644
0.0012774317898464269,1.645
0.0012637340006703157,1.646
0.0012501680343077206,1.647
0.0012367442943199756,1.648
0.0012234735695450037,1.649
0.0012103669004559186,1.65
0.001197435304245934,1.651
0.0011846894270656591,1.652
0.0011721392144885443,1.653
0.0011597936809461702,1.654
0.0011476608130895018,1.655
0.0011357475823910706,1.656
0.0011240599975947993,1.657
0.001112603130869664,1.658
0.0011013811339587796,1.659
0.0010903973518157039,1.66
0.0010796545960440503,1.661
0.0010691555014000406,1.662
0.001058902833036063,1.663
0.0010488996539892144,1.664
0.0010391493194601698,1.665
0.001029655316597378,1.666
0.001020421010562833,1.667
0.0010114493717846887,1.668
0.0010027427387640068,1.669
0.000994302649968171,1.67
0.0009861297892718444,1.671
0.000978224072527199,1.672
0.0009705848393602215,1.673
0.000963211094401883,1.674
0.0009561017644105051,1.675
0.0009492559333036439,1.676
0.0009426729941663383,1.677
0.0009363526497039642,1.678
0.0009302947121144076,1.679
0.0009244987730422887,1.68
0.0009189640201335694,1.681
0.0009136894212963562,1.682
0.0009086741303447508,1.683
0.000903917809519523,1.684
0.0008994207348572704,1.685
0.0008951837148689657,1.686
0.0008912079084254937,1.687
0.0008874946297220074,1.688
0.0008840452020673609,1.689
0.0008808608882596473,1.69
0.0008779428944119649,1.691
0.0008752924187098194,1.692
0.0008729106974430234,1.693
0.0008707989909366554,1.694
0.0008689584560308812,1.695
0.0008673899295392074,1.696
0.0008660938155526225,1.697
0.0008650702813885591,1.698
0.0008643197134078298,1.699
0.0008638432020616523,1.7
0.0008636428755078573,1.701
0.0008637220008677103,1.702
0.0008640848395820929,1.703
0.0008647362970550208,1.704
0.0008656814505557926,1.705
0.0008669251158125521,1.706
0.0008684716680399831,1.707
0.0008703251739880061,1.708
0.0008724896388886296,1.709
0.0008749691619634807,1.71
0.0008777679462783876,1.711
0.00088089018528396,1.712
0.0008843398603546196,1.713
0.0008881205049286287,1.714
0.0008922350329089198,1.715
0.000896685715952092,1.716
0.0009014742825013337,1.717
0.0009066020288583508,1.718
0.0009120698609784001,1.719
0.0009178782415543888,1.72
0.0009240270641455965,1.721
0.0009305155429544427,1.722
0.000937342213845868,1.723
0.0009445050286711306,1.724
0.0009520014306389601,1.725
0.0009598283323310981,1.726
0.0009679820077064259,1.727
0.0009764579828758285,1.728
0.000985251017058731,1.729
0.0009943551760164223,1.73
0.001003763919803241,1.731
0.0010134701440552927,1.732
0.001023466160743857,1.733
0.0010337436172633996,1.734
0.00104429339152516,1.735
0.0010551055883528857,1.736
0.0010661697465490505,1.737
0.0010774752141933326,1.738
0.001089011563866533,1.739
0.0011007689421803084,1.74
0.0011127382745536021,1.741
0.0011249112720265846,1.742
0.0011372802319102792,1.743
0.001149837671156578,1.744
0.0011625758739302022,1.745
0.0011754865002646928,1.746
0.0011885604351897902,1.747
0.0012017879140569828,1.748
0.0012151587588910536,1.749
0.0012286625584862372,1.75
0.0012422887400733713,1.751
0.0012560265330920904,1.752
0.0012698648364642441,1.753
0.0012837920129161213,1.754
0.0012977956462129879,1.755
0.0013118623269570751,1.756
0.0013259775574836765,1.757
0.0013401258003239054,1.758
0.0013542905800066664,1.759
0.0013684545254135053,1.76
0.0013825993130956408,1.761
0.0013967056008560154,1.762
0.001410753137852605,1.763
0.0014247211377012726,1.764
0.0014385888046430924,1.765
0.0014523358520008006,1.766
0.0014659429082995495,1.767
0.0014793917331639703,1.768
0.0014926651692172494,1.769
0.0015057467778211064,1.77
0.0015186202259599782,1.771
0.0015312687911497144,1.772
0.0015436755066535134,1.773
0.0015558240666934335,1.774
0.0015677000665811924,1.775
0.0015792920726590879,1.776
0.0015905922180337552,1.777
0.0016015961786214744,1.778
0.0016123025229571551,1.779
0.0016227115678444988,1.78
0.0016328240847427308,1.781
0.001642640477127933,1.782
0.00165216084928519,1.783
0.0016613856694883038,1.784
0.0016703164219316858,1.785
0.001678955947011694,1.786
0.0016873084591531487,1.787
0.0016953793228837856,1.788
0.001703174700279837,1.789
0.0017107011876790743,1.79
0.0017179655261203384,1.791
0.001724974398818629,1.792
0.0017317342438969508,1.793
0.0017382509607641763,1.794
0.0017445295339250607,1.795
0.001750573917490066,1.796
0.0017563874571879287,1.797
0.0017619736096623547,1.798
0.0017673365224021547,1.799
0.0017724812824085067,1.8
0.0017774138562312548,1.801
0.0017821408310156467,1.802
0.0017866690873713225,1.803
0.0017910054979558842,1.804
0.0017951566850905626,1.805
0.0017991288220925346,1.806
0.0018029274451402911,1.807
0.0018065572503330439,1.808
0.0018100218634648192,1.809
0.0018133236034897722,1.81
0.0018164633487187123,1.811
0.0018194406581505695,1.812
0.0018222541884151018,1.813
0.0018249023097090305,1.814
0.0018273837962144697,1.815
0.001829698477545022,1.816
0.0018318477324914817,1.817
0.0018338347199825195,1.818
0.0018356642875856498,1.819
0.0018373425548159226,1.82
0.0018388762181171885,1.821
0.0018402717273134851,1.822
0.0018415346856613711,1.823
0.001842669831509508,1.824
0.0018436815539278628,1.825
0.0018445745501576034,1.826
0.0018453543206104967,1.827
0.0018460274137616986,1.828
0.0018466014256888514,1.829
0.0018470847935558477,1.83
0.0018474864522410779,1.831
0.0018478154386478976,1.832
0.0018480805211340925,1.833
0.001848289903518633,1.834
0.001848451015141154,1.835
0.0018485703641730779,1.836
0.0018486534117801222,1.837
0.0018487044225965964,1.838
0.0018487262846793508,1.839
0.001848720391588402,1.84
0.001848686727932091,1.841
0.0018486241781869954,1.842
0.0018485309291536856,1.843
0.0018484048261422866,1.844
0.0018482436043441516,1.845
0.00184804496006044,1.846
0.001847806457256962,1.847
0.001847525290612445,1.848
0.0018471979429216287,1.849
0.0018468197997796123,1.85
0.0018463848388197792,1.851
0.0018458855187087023,1.852
0.0018453128619440001,1.853
0.0018446565966482686,1.854
0.0018439052680235967,1.855
0.0018430463409847067,1.856
0.0018420663476237371,1.857
0.0018409511018295998,1.858
0.001839685950532567,1.859
0.0018382559790744446,1.86
0.001836646059847257,1.861
0.0018348406420672129,1.862
0.0018328233510970854,1.863
0.0018305768150850762,1.864
0.0018280831373691786,1.865
0.001825324913074597,1.866
0.00182228636242772,1.867
0.0018189542563260554,1.868
0.0018153184341797941,1.869
0.0018113717618958897,1.87
0.0018071094462197262,1.871
0.0018025278613499622,1.872
0.0017976235767141792,1.873
0.0017923934736909278,1.874
0.001786836045971378,1.875
0.00178095308285337,1.876
0.0017747509652131167,1.877
0.001768241261246781,1.878
0.001761440553461032,1.879
0.0017543695427737031,1.88
0.001747051580916117,1.881
0.0017395110143226629,1.882
0.001731772074777749,1.883
0.0017238588382720219,1.884
0.001715795886738574,1.885
0.0017076089034588342,1.886
0.0016993248443708709,1.887
0.0016909717426897642,1.888
0.0016825783106955887,1.889
0.0016741734825747039,1.89
0.0016657859881105714,1.891
0.0016574439875715293,1.892
0.0016491747561737072,1.893
0.001641004410176658,1.894
0.0016329577247060267,1.895
0.0016250581122466028,1.896
0.0016173277357415595,1.897
0.0016097876475340495,1.898
0.0016024578846702826,1.899
0.0015953575207374412,1.9
0.0015885046895231564,1.901
0.0015819165780951217,1.902
0.0015756093670395673,1.903
0.0015695981095843114,1.904
0.0015638966309953692,1.905
0.0015585176029784278,1.906
0.0015534728482267015,1.907
0.0015487737581771853,1.908
0.0015444316720722314,1.909
0.001540458131190869,1.91
0.0015368649730182085,1.911
0.0015336642614890608,1.912
0.0015308680756486652,1.913
0.0015284881985067784,1.914
0.0015265357589161188,1.915
0.0015250208950296524,1.916
0.0015239525422522098,1.917
0.0015233384361451933,1.918
0.0015231853170614388,1.919
0.0015234992459528124,1.92
0.0015242859668766558,1.921
0.0015255512958107242,1.922
0.0015273015187825237,1.923
0.001529543765875646,1.924
0.0015322863102904922,1.925
0.0015355387326154268,1.926
0.001539311898911094,1.927
0.0015436177303168252,1.928
0.0015484687846517668,1.929
0.0015538777090887527,1.93
0.0015598566585690867,1.931
0.0015664168416909259,1.932
0.0015735683807499275,1.933
0.0015813205104963865,1.934
0.001589681940847337,1.935
0.0015986612201056261,1.936
0.0016082670416406328,1.937
0.0016185084622839382,1.938
0.001629394988583997,1.939
0.0016409364947797347,1.94
0.001653142961737737,1.941
0.0016660240595815004,1.942
0.0016795886662831112,1.943
0.0016938445237869523,1.944
0.001708798203179896,1.945
0.0017244553120013685,1.946
0.0017408207265530104,1.947
0.0017578987158043896,1.948
0.0017756929372594722,1.949
0.0017942063154169163,1.95
0.0018134408102453293,1.951
0.001833397135434235,1.952
0.0018540746155472983,1.953
0.0018754713554116342,1.954
0.0018975846562586086,1.955
0.001920411465853044,1.956
0.001943948705197252,1.957
0.0019681933953390267,1.958
0.0019931425635942176,1.959
0.0020187929643859983,1.96
0.002045140688771539,1.961
0.0020721807418785645,1.962
0.0020999066625528736,1.963
0.0021283102896217996,1.964
0.002157381789455743,1.965
0.002187109959823476,1.966
0.0022174826991260875,1.967
0.0022484874979104815,1.968
0.002280111843230734,1.969
0.00231234348262957,1.97
0.002345170567801978,1.971
0.002378581749755245,1.972
0.002412566287357909,1.973
0.0024471141655135354,1.974
0.002482216141423853,1.975
0.002517863596922834,1.976
0.002554048097896328,1.977
0.0025907606611191903,1.978
0.0026279909795072346,1.979
0.0026657271048347647,1.98
0.0027039558287564754,1.981
0.002742663442454603,1.982
0.002781836486154997,1.983
0.002821462402082084,1.984
0.0028615301300008666,1.985
0.0029020306389817073,1.986
0.0029429573155128922,1.987
0.0029843060666050855,1.988
0.003026074988406435,1.989
0.0030682635115861626,1.99
0.003110871125573019,1.991
0.003153896216619727,1.992
0.0031973358202879573,1.993
0.00324118649255944,1.994
0.003285445634415692,1.995
0.0033301125706551257,1.996
0.00337518914946557,1.997
0.0034206798655935385,1.998
0.003466591563547521,1.999
0.0035129328021978232,2.0
0.003559712960354644,2.001
0.0036069411545751663,2.002
0.003654625086764348,2.003
0.0037027701149844926,2.004
0.0037513789330703815,2.005
0.0038004518981746708,2.006
0.003849987596085733,2.007
0.003899983259068222,2.008
0.003950434925518783,2.009
0.004001337359903665,2.01
0.004052683788058203,2.011
0.004104465532167784,2.012
0.004156671635253584,2.013
0.0042092885468502815,2.014
0.004262299912686115,2.015
0.0043156864805378335,2.016
0.004369426105216054,2.017
0.0044234938133957385,2.018
0.004477861878870373,2.019
0.004532499860627529,2.02
0.00458737456980047,2.021
0.00464244995869348,2.022
0.004697686960399812,2.023
0.0047530433348644775,2.024
0.004808473578674084,2.025
0.004863928923569112,2.026
0.004919357388673875,2.027
0.004974703780353906,2.028
0.005029909474714652,2.029
0.005084912017542029,2.03
0.005139645132777903,2.031
0.005194039809509523,2.032
0.005248026407242372,2.033
0.005301537227783144,2.034
0.005354509072630014,2.035
0.005406885376060074,2.036
0.005458617506266449,2.037
0.005509664890797049,2.038
0.005559993741905609,2.039
0.005609574320822694,2.04
0.005658377520826418,2.041
0.005706373113970919,2.042
0.005753531560788385,2.043
0.0057998283356790175,2.044
0.005845248320910155,2.045
0.005889788834904411,2.046
0.005933460781987149,2.047
0.005976287750842527,2.048
0.006018303188783495,2.049
0.006059546071726237,2.05
0.006100056254174596,2.051
0.006139871777646479,2.052
0.006179029470577107,2.053
0.006217567358742783,2.054
0.006255526620423435,2.055
0.0062929522661836065,2.056
0.006329892700289701,2.057
0.006366398484858471,2.058
0.006402520627541083,2.059
0.006438308669126059,2.06
0.006473808834676415,2.061
0.006509062623212741,2.062
0.006544106222433824,2.063
0.006578970668028166,2.064
0.006613682145302026,2.065
0.006648261923067342,2.066
0.006682725937831588,2.067
0.006717084544844915,2.068
0.006751342924453242,2.069
0.00678550201598333,2.07
0.006819559467896764,2.071
0.006853510241579888,2.072
0.006887346713495137,2.073
0.006921058229137718,2.074
0.0069546301599959035,2.075
0.0069880427928659845,2.076
0.00702127078900656,2.077
0.007054283675586548,2.078
0.007087046934974934,2.079
0.0071195230125756705,2.08
0.0071516719905442986,2.081
0.00718345194242005,2.082
0.0072148190442144315,2.083
0.007245727532097567,2.084
0.007276129558140861,2.085
0.007305974928776254,2.086
0.007335210647812847,2.087
0.0073637801455882475,2.088
0.007391622238270845,2.089
0.007418670415354673,2.09
0.007444853349717057,2.091
0.007470096813192725,2.092
0.00749432626823568,2.093
0.0075174692932748685,2.094
0.007539457284920484,2.095
0.007560226033813637,2.096
0.007579714879519347,2.097
0.0075978643151916984,2.098
0.007614612872657469,2.099
0.007629895841897481,2.1
0.007643647703074697,2.101
0.007655806857660534,2.102
0.007666320006055701,2.103
0.007675144797068389,2.104
0.007682250270021941,2.105
0.007687614889326576,2.106
0.007691222363752243,2.107
0.007693056872170405,2.108
0.007693101251528478,2.109
0.007691340133333646,2.11
0.00768776557088618,2.111
0.007682381504570797,2.112
0.0076752054515556115,2.113
0.007666267215437698,2.114
0.007655604993391216,2.115
0.007643260062302527,2.116
0.007629272383369103,2.117
0.007613679372694911,2.118
0.00759651747361938,2.119
0.007577823909707986,2.12
0.007557636721469658,2.121
0.007535992978479339,2.122
0.007512926252225371,2.123
0.007488465125531579,2.124
0.007462633498062762,2.125
0.007435451336095303,2.126
0.007406934488300986,2.127
0.0073770942288296296,2.128
0.007345938209424832,2.129
0.007313473278466268,2.13
0.0072797090436178685,2.131
0.007244660895044033,2.132
0.007208351798300594,2.133
0.007170812507161381,2.134
0.007132080014695919,2.135
0.007092194332672671,2.136
0.007051194836097431,2.137
0.007009119013347791,2.138
0.006966005261454188,2.139
0.006921897797853629,2.14
0.006876850749041485,2.141
0.006830930083777517,2.142
0.0067842131962373015,2.143
0.006736786411085266,2.144
0.006688741046707749,2.145
0.006640169069680515,2.146
0.006591159894899326,2.147
0.006541799547377641,2.148
0.006492171712789821,2.149
0.006442359079653096,2.15
0.006392443998529281,2.151
0.006342508430657608,2.152
0.006292633438498374,2.153
0.006242898452199723,2.154
0.0061933805075136935,2.155
0.006144153592847797,2.156
0.006095288172962331,2.157
0.0060468508922244535,2.158
0.0059989044197728695,2.159
0.005951507389050002,2.16
0.005904714393177295,2.161
0.005858576004919897,2.162
0.0058131387858337625,2.163
0.005768445240470663,2.164
0.00572453366990764,2.165
0.005681437892536283,2.166
0.0056391868898136915,2.167
0.005597804602046718,2.168
0.005557310076220427,2.169
0.005517717882046257,2.17
0.005479038562823202,2.171
0.005441279006779591,2.172
0.005404442752201028,2.173
0.005368530275617914,2.174
0.005333539306267928,2.175
0.005299465181926046,2.176
0.005266301221939642,2.177
0.005234039060279991,2.178
0.005202668868644543,2.179
0.005172179409562968,2.18
0.005142557885016712,2.181
0.0051137895789960764,2.182
0.005085857326058358,2.183
0.005058740864208347,2.184
0.005032416170415801,2.185
0.005006854973003088,2.186
0.004982024667132579,2.187
0.004957888653244103,2.188
0.004934406884260561,2.189
0.004911536438756674,2.19
0.004889232091425044,2.191
0.0048674469260102686,2.192
0.004846133055674984,2.193
0.004825242512063741,2.194
0.004804728319357248,2.195
0.004784545683100084,2.196
0.004764653118288131,2.197
0.004745013261166959,2.198
0.004725593100456547,2.199
0.004706363437146475,2.2
0.004687297499489534,2.201
0.004668368915753362,2.202
0.004649549965654244,2.203
0.0046308115349979915,2.204
0.004612125229592562,2.205
0.004593466583844338,2.206
0.004574818107973341,2.207
0.004556171557179711,2.208
0.004537529118219436,2.209
0.004518903315469223,2.21
0.00450031561386518,2.211
0.0044817939128197915,2.212
0.004463369325928699,2.213
0.0044450730006428164,2.214
0.004426934174992768,2.215
0.004408980124931041,2.216
0.004391237234954596,2.217
0.004373732026402879,2.218
0.00435649174147121,2.219
0.00433954461022249,2.22
0.0043229199706031245,2.221
0.0043066483431257125,2.222
0.004290761494545094,2.223
0.004275292476668554,2.224
0.00426027560082233,2.225
0.004245746300294168,2.226
0.004231740837441817,2.227
0.004218295827060667,2.228
0.004205447568618907,2.229
0.004193231200620464,2.23
0.004181679747299976,2.231
0.004170823324597613,2.232
0.004160688936676723,2.233
0.004151300989314034,2.234
0.004142682134935776,2.235
0.0041348540217284535,2.236
0.004127837785771136,2.237
0.004121654253320426,2.238
0.004116323844715326,2.239
0.004111866203015377,2.24
0.004108299611602387,2.241
0.00410564030769736,2.242
0.004103901823883472,2.243
0.004103094479022251,2.244
0.004103225090813037,2.245
0.00410429691241341,2.246
0.004106309733475624,2.247
0.0041092600537694784,2.248
0.004113141241013026,2.249
0.004117943614329236,2.25
0.004123654432067713,2.251
0.0041302577882407245,2.252
0.00413773442778307,2.253
0.004146061520662342,2.254
0.004155212524066496,2.255
0.00416515727824315,2.256
0.0041758623343622625,2.257
0.0041872913938937485,2.258
0.0041994057728483815,2.259
0.00421216487202301,2.26
0.004225526658489581,2.261
0.004239448165012137,2.262
0.004253886003288912,2.263
0.004268796860189397,2.264
0.004284137907748288,2.265
0.004299867021037896,2.266
0.004315942673814348,2.267
0.00433232337007945,2.268
0.0043489666039699055,2.269
0.004365827922113854,2.27
0.004382861229071096,2.271
0.004400020866738298,2.272
0.004417264695930635,2.273
0.004434556988485466,2.274
0.004451870283260348,2.275
0.004469185649738302,2.276
0.004486491079478687,2.277
0.004503778371176509,2.278
0.004521040168829551,2.279
0.004538269478637323,2.28
0.0045554621551243835,2.281
0.004572620366253003,2.282
0.004589754968480927,2.283
0.00460688600444081,2.284
0.00462404120257395,2.285
0.00464125281229795,2.286
0.004658554343192472,2.287
0.004675979780287475,2.288
0.004693566135027619,2.289
0.004711357209449852,2.29
0.004729406101516528,2.291
0.004747775565990368,2.292
0.004766536335473328,2.293
0.004785763876435231,2.294
0.004805534672419233,2.295
0.004825923920608513,2.296
0.004847005789790314,2.297
0.00486885519710324,2.298
0.0048915493483656656,2.299
0.004915168353199377,2.3
0.004939795020549361,2.301
0.004965514082216839,2.302
0.004992411084061946,2.303
0.00502057114769129,2.304
0.0050500777563597336,2.305
0.005081011668617271,2.306
0.005113450020377911,2.307
0.005147465654330235,2.308
0.0051831267019300225,2.309
0.005220496389667815,2.31
0.005259632995366731,2.311
0.005300589913644656,2.312
0.005343415809712085,2.313
0.005388154793158726,2.314
0.005434846520481072,2.315
0.005483526162078803,2.316
0.00553422421383854,2.317
0.0055869662353156034,2.318
0.005641772716080251,2.319
0.005698659194334274,2.32
0.005757636531536444,2.321
0.005818711207062224,2.322
0.005881885609702986,2.323
0.005947158347819485,2.324
0.006014524575938074,2.325
0.006083976304652719,2.326
0.006155502639404795,2.327
0.006229089890302383,2.328
0.006304721509740998,2.329
0.006382377845102826,2.33
0.006462035735141631,2.331
0.006543668017044311,2.332
0.006627243029040922,2.333
0.0067127241844704396,2.334
0.006800069667015959,2.335
0.006889232266251537,2.336
0.0069801593426220745,2.337
0.007072792882798956,2.338
0.007167069585299889,2.339
0.007262920908268215,2.34
0.007360273015205506,2.341
0.007459046563824867,2.342
0.007559156296863803,2.343
0.007660510518795002,2.344
0.007763010790787512,2.345
0.007866552116354904,2.346
0.00797102343637012,2.347
0.008076308043358842,2.348
0.008182283729027663,2.349
0.008288822722008374,2.35
0.008395791643490752,2.351
0.008503051828806363,2.352
0.008610460382487696,2.353
0.008717872211531159,2.354
0.0088251430177676,2.355
0.008932132884769442,2.356
0.00903870977185735,2.357
0.009144752034411249,2.358
0.009250149089751476,2.359
0.009354799543947061,2.36
0.009458606804388271,2.361
0.009561474423190329,2.362
0.009663305601727533,2.363
0.009764008878970306,2.364
0.009863506834621208,2.365
0.009961743413901393,2.366
0.010058687690294842,2.367
0.010154333477944522,2.368
0.0102486950452464,2.369
0.010341799920176267,2.37
0.010433680517326604,2.371
0.010524367344469066,2.372
0.01061388640784047,2.373
0.010702260503794228,2.374
0.010789511352932345,2.375
0.01087566035447797,2.376
0.010960727885860813,2.377
0.011044731885508596,2.378
0.011127686438657136,2.379
0.011209600943596467,2.38
0.011290480218369368,2.381
0.011370325654016418,2.382
0.011449137256723797,2.383
0.011526916174219694,2.384
0.011603667112850878,2.385
0.011679399973993015,2.386
0.011754130105217387,2.387
0.011827876755657135,2.388
0.011900659589651991,2.389
0.011972494309725702,2.39
0.01204339057541449,2.391
0.012113354645425529,2.392
0.012182395068743673,2.393
0.012250528006146871,2.394
0.012317780264107998,2.395
0.012384189355598523,2.396
0.012449800393613588,2.397
0.0125146605505624,2.398
0.012578813886447698,2.399
0.012642300512308809,2.4
0.012705160965972743,2.401
0.012767442349330726,2.402
0.012829202557784244,2.403
0.012890511152844434,2.404
0.012951446633712237,2.405
0.013012090768672623,2.406
0.01307252295385586,2.407
0.013132819236500583,2.408
0.013193057400059646,2.409
0.013253324257417615,2.41
0.013313720728734766,2.411
0.013374362989712391,2.412
0.013435379704575092,2.413
0.013496906115428439,2.414
0.013559076824729559,2.415
0.01362202052007359,2.416
0.013685859173851603,2.417
0.013750710623965975,2.418
0.013816691311581164,2.419
0.013883917344159096,2.42
0.013952503881921971,2.421
0.014022563409725465,2.422
0.014094203457997508,2.423
0.0141675242334173,2.424
0.014242616470753287,2.425
0.014319559670276196,2.426
0.01439842078707277,2.427
0.014479253397462605,2.428
0.014562097282918329,2.429
0.014646978258545251,2.43
0.014733908133820512,2.431
0.014822884821737622,2.432
0.014913892563626956,2.433
0.015006902162275088,2.434
0.015101871165734053,2.435
0.015198744011007148,2.436
0.0152974521528493,2.437
0.015397914170484552,2.438
0.015500035774103022,2.439
0.015603709559780158,2.44
0.015708814494345205,2.441
0.015815215607634624,2.442
0.015922764607227656,2.443
0.01603130155173646,2.444
0.016140657067011975,2.445
0.016250654553516864,2.446
0.01636111204237403,2.447
0.016471843459204955,2.448
0.016582659088759787,2.449
0.016693365042467635,2.45
0.01680376153620277,2.451
0.016913640086697965,2.452
0.01702278092273132,2.453
0.01713095296748617,2.454
0.017237917310279086,2.455
0.017343432387684658,2.456
0.01744725857651689,2.457
0.017549161092660512,2.458
0.0176489109473753,2.459
0.01774628417471973,2.46
0.017841059864176324,2.461
0.01793301757494142,2.462
0.018021934477912532,2.463
0.018107582198814264,2.464
0.01818972328233718,2.465
0.018268108356365508,2.466
0.018342476545840137,2.467
0.018412560508247532,2.468
0.018478094501352887,2.469
0.018538823091294718,2.47
0.018594509216180253,2.471
0.018644940988325715,2.472
0.018689936709474404,2.473
0.018729347484040468,2.474
0.018763056586690717,2.475
0.018790974557648776,2.476
0.0188130291012936,2.477
0.018829152440880847,2.478
0.018839275976055992,2.479
0.018843340092519523,2.48
0.018841313810412798,2.481
0.018833213068623452,2.482
0.018819111138358286,2.483
0.018799138995110834,2.484
0.018773475844445355,2.485
0.01874233220255052,2.486
0.018705930674140194,2.487
0.01866449251295607,2.488
0.01861823520023177,2.489
0.018567377204657336,2.49
0.01851214205590074,2.491
0.01845275807637139,2.492
0.018389454409689227,2.493
0.018322455102258446,2.494
0.018251973288088398,2.495
0.01817820766416585,2.496
0.018101341700367615,2.497
0.018021543796621815,2.498
0.017938967721846895,2.499
0.01785375490807888,2.5
0.017766039287722777,2.501
0.0176759532919139,2.502
0.017583633254597532,2.503
0.017489223102776858,2.504
0.017392875788128773,2.505
0.01729475239734356,2.506
0.017195019285233013,2.507
0.017093843811087327,2.508
0.0169913892987141,2.509
0.01688781014447008,2.51
0.016783248844823583,2.511
0.016677836459383946,2.512
0.016571695868252943,2.513
0.01646494574530379,2.514
0.016357703761524713,2.515
0.01625008845407694,2.516
0.01614221962071753,2.517
0.016034217430865937,2.518
0.015926200764160348,2.519
0.015818285435434325,2.52
0.01571058287096291,2.521
0.015603199517965185,2.522
0.015496236927293197,2.523
0.01538979216939844,2.524
0.015283958084972163,2.525
0.015178822835851945,2.526
0.015074468293051157,2.527
0.014970967557967098,2.528
0.014868383612250041,2.529
0.014766771301175086,2.53
0.014666182284348904,2.531
0.014566670562872891,2.532
0.014468296575096148,2.533
0.014371128832603997,2.534
0.014275242697238757,2.535
0.014180716484099916,2.536
0.014087625987839438,2.537
0.013996039919405956,2.538
0.013906018790225808,2.539
0.013817616969329365,2.54
0.013730885091418118,2.541
0.013645870694010468,2.542
0.013562616837978813,2.543
0.013481159469372407,2.544
0.013401524957173025,2.545
0.013323729203266523,2.546
0.013247778087850213,2.547
0.013173667734686536,2.548
0.013101384465293842,2.549
0.013030906257226084,2.55
0.012962206690017738,2.551
0.012895260025269787,2.552
0.012830045304235147,2.553
0.012766548019794075,2.554
0.01270475863999618,2.555
0.012644668363752765,2.556
0.012586264889524157,2.557
0.012529532472473957,2.558
0.012474457478519826,2.559
0.012421036007329495,2.56
0.012369279640571539,2.561
0.012319217574450135,2.562
0.01227089484794221,2.563
0.012224367168052919,2.564
0.012179693675781597,2.565
0.012136930248452655,2.566
0.012096126475254975,2.567
0.01205732681500991,2.568
0.012020572973099827,2.569
0.011985904842486503,2.57
0.011953359774625671,2.571
0.01192297100195553,2.572
0.011894766020025382,2.573
0.01186876554955752,2.574
0.011844983427470358,2.575
0.011823427490105192,2.576
0.01180410125543965,2.577
0.011787006015627014,2.578
0.011772142844451204,2.579
0.011759514022529862,2.58
0.011749123474650824,2.581
0.011740975958766497,2.582
0.011735074906316163,2.583
0.011731419335286162,2.584
0.011730001457195455,2.585
0.01173080693240488,2.586
0.011733817719724234,2.587
0.011739015390686596,2.588
0.011746383006227913,2.589
0.01175590490953759,2.59
0.011767564563241453,2.591
0.011781341174145166,2.592
0.01179720668262485,2.593
0.011815124693148554,2.594
0.011835051139434997,2.595
0.01185693482843638,2.596
0.011880716771644907,2.597
0.011906329304572654,2.598
0.011933696621340958,2.599
0.011962736773141282,2.6
0.011993363681212859,2.601
0.012025487975783657,2.602
0.012059016440296026,2.603
0.012093850421466271,2.604
0.012129883810980383,2.605
0.012167001238320997,2.606
0.012205076942089957,2.607
0.012243974483213453,2.608
0.012283547159690794,2.609
0.012323638810945845,2.61
0.01236408470536965,2.611
0.012404712315211395,2.612
0.012445341876437862,2.613
0.012485786631068195,2.614
0.012525852562318071,2.615
0.012565337467669553,2.616
0.012604029957958538,2.617
0.012641710069779164,2.618
0.012678152700787891,2.619
0.012713133140165894,2.62
0.012746433054235408,2.621
0.012777845658285953,2.622
0.012807179201729413,2.623
0.012834258237060933,2.624
0.012858922594264802,2.625
0.012881024361743185,2.626
0.012900423355115624,2.627
0.012916981520641604,2.628
0.012930557314430251,2.629
0.012941002728010815,2.63
0.012948165415168418,2.631
0.012951895214081207,2.632
0.012952052456945513,2.633
0.012948516259093061,2.634
0.012941191778103607,2.635
0.012930015448391556,2.636
0.012914957183120789,2.637
0.012896018729013749,2.638
0.012873227765653687,2.639
0.012846627940076164,2.64
0.012816267610647282,2.641
0.012782194199492567,2.642
0.012744458486303971,2.643
0.012703124222824784,2.644
0.012658275875406489,2.645
0.012610021689047147,2.646
0.012558492248726735,2.647
0.012503835568623145,2.648
0.01244621018021982,2.649
0.012385777708014719,2.65
0.012322696307878857,2.651
0.012257116332664224,2.652
0.012189178886264404,2.653
0.01211901628776856,2.654
0.012046752710743474,2.655
0.011972504136240443,2.656
0.011896377685464189,2.657
0.011818470710836717,2.658
0.011738870296590924,2.659
0.011657653769705775,2.66
0.011574890118194658,2.661
0.011490641665554968,2.662
0.01140496540810642,2.663
0.011317913605382578,2.664
0.01122953327780228,2.665
0.01113986482466863,2.666
0.011048941417667806,2.667
0.010956791237465848,2.668
0.010863442644148064,2.669
0.010768930457791225,2.67
0.010673301451917984,2.671
0.010576617751631323,2.672
0.010478957301179339,2.673
0.010380411110983763,2.674
0.010281077604095825,2.675
0.010181055908494335,2.676
0.010080442187448132,2.677
0.009979331702302571,2.678
0.009877824274514446,2.679
0.009776029103860601,2.68
0.009674067173953794,2.681
0.00957207114694872,2.682
0.009470183081521012,2.683
0.009368550525692783,2.684
0.009267321742653666,2.685
0.009166641468302471,2.686
0.009066649154119833,2.687
0.008967480213703263,2.688
0.008869268409191312,2.689
0.008772147393502759,2.69
0.008676250860373514,2.691
0.008581711492109888,2.692
0.008488659046981716,2.693
0.008397218233556126,2.694
0.008307507437006572,2.695
0.008219638927954739,2.696
0.008133719936395806,2.697
0.008049853559215352,2.698
0.007968139065516902,2.699
0.007888671621928495,2.7
0.007811541571854584,2.701
0.007736833498650544,2.702
0.007664625478969298,2.703
0.007594988928959767,2.704
0.007527989030889004,2.705
0.0074636853604650435,2.706
0.007402132449596809,2.707
0.00734338026313682,2.708
0.007287474586688352,2.709
0.007234457218914798,2.71
0.007184365791787729,2.711
0.00713723315518804,2.712
0.007093086700963838,2.713
0.007051948306728688,2.714
0.007013835009163506,2.715
0.006978759652269388,2.716
0.006946730778903067,2.717
0.006917751915239704,2.718
0.006891821215669165,2.719
0.006868932074531574,2.72
0.006849074126186898,2.721
0.006832233774463796,2.722
0.006818394012495924,2.723
0.006807533693480424,2.724
0.0067996265909592785,2.725
0.00679464078318747,2.726
0.006792538728215898,2.727
0.006793277856390533,2.728
0.006796811295540397,2.729
0.006803088577460467,2.73
0.006812056346087029,2.731
0.006823659078513124,2.732
0.006837839787064285,2.733
0.006854540642349418,2.734
0.006873703429586444,2.735
0.006895269700939869,2.736
0.006919180416897619,2.737
0.0069453748218729254,2.738
0.006973788827121802,2.739
0.007004354400726599,2.74
0.007037001348786811,2.741
0.007071660835545372,2.742
0.007108268859675112,2.743
0.007146768494376696,2.744
0.007187110421589762,2.745
0.007229251768149478,2.746
0.0072731536900341835,2.747
0.007318778422953978,2.748
0.007366086525855476,2.749
0.007415034789429236,2.75
0.00746557486960958,2.751
0.007517652459864324,2.752
0.007571207091217066,2.753
0.0076261730395164725,2.754
0.007682481567772025,2.755
0.0077400640963002035,2.756
0.00779885556228854,2.757
0.00785879722032471,2.758
0.0079198382767004,2.759
0.007981936038702377,2.76
0.008045054610162099,2.761
0.008109162431557161,2.762
0.008174229072934818,2.763
0.008240221871823921,2.764
0.008307103517030439,2.765
0.008374831670365799,2.766
0.008443360429924112,2.767
0.008512642315877703,2.768
0.00858262980111769,2.769
0.008653276220910125,2.77
0.008724536214998118,2.771
0.008796365860521174,2.772
0.008868722569806153,2.773
0.008941564714985356,2.774
0.009014850877763835,2.775
0.009088538645547126,2.776
0.009162582965996823,2.777
0.009236934176134642,2.778
0.009311536104627361,2.779
0.009386325054981113,2.78
0.00946123011056533,2.781
0.009536174170714689,2.782
0.009611074913946801,2.783
0.009685845466774015,2.784
0.009760394905995918,2.785
0.009834628774141992,2.786
0.009908449770473239,2.787
0.009981758700812055,2.788
0.010054455636020525,2.789
0.010126441064723176,2.79
0.01019761667757069,2.791
0.010267885345852518,2.792
0.010337149897298429,2.793
0.010405310646502908,2.794
0.01047226284782667,2.795
0.010537896462566797,2.796
0.010602099412393776,2.797
0.010664762778098824,2.798
0.010725785759270728,2.799
0.010785079287173108,2.8
0.010842567814620821,2.801
0.01089818898788166,2.802
0.010951891073159215,2.803
0.011003628152302011,2.804
0.01105335428121245,2.805
0.011101020266026319,2.806
0.01114657619377574,2.807
0.011189978140632594,2.808
0.011231194870785662,2.809
0.011270211871048704,2.81
0.011307031909923253,2.811
0.011341672190975809,2.812
0.01137415873257983,2.813
0.011404519468501599,2.814
0.011432779116309348,2.815
0.011458958807251705,2.816
0.011483080094428671,2.817
0.01150517009271559,2.818
0.011525265222387485,2.819
0.011543412807904736,2.82
0.011559670467211146,2.821
0.011574103370564229,2.822
0.011586779564282213,2.823
0.011597764635190053,2.824
0.01160711913183629,2.825
0.011614901351043296,2.826
0.01162117377548167,2.827
0.011626009555603351,2.828
0.011629496948442784,2.829
0.011631740852422901,2.83
0.011632861010057833,2.831
0.011632986933654173,2.832
0.011632250929119578,2.833
0.011630782980484314,2.834
0.01162871112909634,2.835
0.011626166446936982,2.836
0.011623288344897658,2.837
0.011620227249601572,2.838
0.011617144108776477,2.839
0.011614207291546729,2.84
0.011611587851378677,2.841
0.011609454314964282,2.842
0.011607968328728447,2.843
0.011607282274711847,2.844
0.011607538643373275,2.845
0.011608870020089085,2.846
0.011611399548989139,2.847
0.011615242334376942,2.848
0.011620507118327149,2.849
0.011627296995315405,2.85
0.011635708644432339,2.851
0.011645830830672044,2.852
0.011657743948808494,2.853
0.011671521460938004,2.854
0.011687231955965235,2.855
0.011704940188980889,2.856
0.011724706662660258,2.857
0.011746586188460363,2.858
0.011770626165179845,2.859
0.011796865292368095,2.86
0.011825333138985959,2.861
0.011856050574207437,2.862
0.011889030709691412,2.863
0.011924279816596793,2.864
0.011961797708361591,2.865
0.012001577290263776,2.866
0.012043603328754163,2.867
0.012087851027037591,2.868
0.012134285293728128,2.869
0.0121828608641697,2.87
0.012233522442253184,2.871
0.012286204513562427,2.872
0.012340831728420754,2.873
0.012397320548731317,2.874
0.012455581509374597,2.875
0.012515520913870388,2.876
0.012577041179494992,2.877
0.01264003949997871,2.878
0.012704405619336029,2.879
0.012770021256213529,2.88
0.012836763030827002,2.881
0.012904507537199027,2.882
0.01297313587189181,2.883
0.013042536014412385,2.884
0.013112602410788753,2.885
0.013183232679518904,2.886
0.013254322501386593,2.887
0.013325761594364929,2.888
0.013397433662561862,2.889
0.01346921986397459,2.89
0.013541002697955296,2.891
0.013612668046481115,2.892
0.013684104843174527,2.893
0.013755202529051712,2.894
0.013825846985817415,2.895
0.013895917019346482,2.896
0.013965284184179843,2.897
0.014033816485489658,2.898
0.014101383495444932,2.899
0.01416786024516478,2.9
0.014233128678074525,2.901
0.014297076254215526,2.902
0.014359591704474067,2.903
0.014420559451746919,2.904
0.01447985672189069,2.905
0.014537356286442328,2.906
0.014592932792820978,2.907
0.014646468671892218,2.908
0.014697857582119968,2.909
0.0147470048975904,2.91
0.014793825306189362,2.911
0.014838238071698899,2.912
0.014880160924129004,2.913
0.014919504388401351,2.914
0.01495616929100576,2.915
0.014990048683510367,2.916
0.015021032375820101,2.917
0.01504901187595282,2.918
0.015073885075644817,2.919
0.015095560543291264,2.92
0.015113961042591604,2.921
0.015129025734222435,2.922
0.015140710449144093,2.923
0.015148985407158538,2.924
0.015153829796124034,2.925
0.015155224332488636,2.926
0.015153147069577237,2.927
0.015147578073598138,2.928
0.015138511784280011,2.929
0.015125970557104853,2.93
0.01511001395383857,2.931
0.015090741123760156,2.932
0.015068285563985621,2.933
0.015042803332867725,2.934
0.015014458739713564,2.935
0.014983414959946853,2.936
0.01494983427560493,2.937
0.01491388403352018,2.938
0.014875741423572666,2.939
0.014835594393798088,2.94
0.014793639409414213,2.941
0.014750077433948702,2.942
0.014705109391922978,2.943
0.014658932075891288,2.944
0.014611735109239988,2.945
0.014563699230750635,2.946
0.014514995846329972,2.947
0.014465787512926577,2.948
0.014416228813852502,2.949
0.014366467000121435,2.95
0.014316641840467149,2.951
0.01426688439804615,2.952
0.014217315345593532,2.953
0.014168044579834544,2.954
0.014119173248504398,2.955
0.014070797117371884,2.956
0.014023009491096397,2.957
0.013975902763360344,2.958
0.013929568277147454,2.959
0.013884094397016222,2.96
0.013839563377551621,2.961
0.013796049092484214,2.962
0.013753618002006068,2.963
0.013712333329902383,2.964
0.013672260116300421,2.965
0.013633468992208473,2.966
0.013596037601786357,2.967
0.013560049181321074,2.968
0.013525588306555264,2.969
0.013492735615683316,2.97
0.013461565802832273,2.971
0.013432151428409382,2.972
0.013404569681290758,2.973
0.013378907661912163,2.974
0.013355264235110062,2.975
0.013333748329880114,2.976
0.013314474370465746,2.977
0.01329755614740414,2.978
0.01328310111472764,2.979
0.013271207402815755,2.98
0.01326196405435642,2.981
0.013255452471387754,2.982
0.013251747207459585,2.983
0.013250915933126599,2.984
0.013253019021808435,2.985
0.013258109051447226,2.986
0.013266230346999166,2.987
0.01327741854801714,2.988
0.013291700096505465,2.989
0.013309091514416877,2.99
0.013329598472777683,2.991
0.013353215014519571,2.992
0.013379923410436846,2.993
0.013409694514687095,2.994
0.01344248792801292,2.995
0.013478251918980217,2.996
0.013516924151770254,2.997
0.01355843394534943,2.998
0.013602705314448151,2.999
0.013649659366293426,3.0
0.013699215035304163,3.001
0.013751287761856634,3.002
0.013805786628003199,3.003
0.013862611797021607,3.004
0.013921654286803763,3.005
0.013982798059976091,3.006
0.014045922588490252,3.007
0.014110904506998813,3.008
0.014177618167690137,3.009
0.014245935368853888,3.01
0.014315724524632652,3.011
0.014386849439506208,3.012
0.014459167741792065,3.013
0.01453252899160979,3.014
0.014606772604756735,3.015
0.014681726151937953,3.016
0.01475720487695091,3.017
0.014833012675390554,3.018
0.014908943922666756,3.019
0.014984785618546144,3.02
0.015060319853190056,3.021
0.015135326722391323,3.022
0.015209587621856178,3.023
0.015282888591775486,3.024
0.015355023146263379,3.025
0.015425793874470111,3.026
0.015495012074348577,3.027
0.01556249479043867,3.028
0.015628059424299536,3.029
0.015691518687511983,3.03
0.015752680859966756,3.031
0.015811357275620365,3.032
0.01586737337204873,3.033
0.015920578485524303,3.034
0.015970851759978776,3.035
0.016018103001213924,3.036
0.01606226818578055,3.037
0.01610330037170797,3.038
0.016141158315995,3.039
0.016175797398366457,3.04
0.01620716732794292,3.041
0.016235216225633144,3.042
0.016259896597848687,3.043
0.016281170136143115,3.044
0.016299011182734434,3.045
0.016313409410463355,3.046
0.016324371784216585,3.047
0.016331923335024087,3.048
0.01633610590601045,3.049
0.016336973964450777,3.05
0.01633458733579602,3.051
0.016329003805716495,3.052
0.016320277803804985,3.053
0.016308467957641803,3.054
0.016293648635960882,3.055
0.016275918881107944,3.056
0.016255405689267893,3.057
0.016232261210542318,3.058
0.016206654748529267,3.059
0.016178761918211864,3.06
0.01614875554369861,3.061
0.016116803361734825,3.062
0.016083073011027047,3.063
0.01604773966121253,3.064
0.016010992011738768,3.065
0.01597303525154045,3.066
0.015934090711331016,3.067
0.01589439216552445,3.068
0.015854179142812373,3.069
0.015813689039219748,3.07
0.01577315216549144,3.071
0.01573279278346746,3.072
0.01569283406484785,3.073
0.015653502583906697,3.074
0.01561503012965532,3.075
0.015577652731810292,3.076
0.015541607453433475,3.077
0.015507127743714693,3.078
0.015474438631621021,3.079
0.015443753617384882,3.08
0.015415274105941828,3.081
0.015389189953100318,3.082
0.015365679296330663,3.083
0.015344907679161024,3.084
0.015327027812095289,3.085
0.015312180562236885,3.086
0.01530049622472921,3.087
0.01529209487023948,3.088
0.015287085581347443,3.089
0.015285565864498982,3.09
0.015287623307111302,3.091
0.015293340302107312,3.092
0.015302800682426728,3.093
0.015316096443883364,3.094
0.015333332920515457,3.095
0.015354630936652607,3.096
0.0153801248188269,3.097
0.015409956025683326,3.098
0.015444265030705454,3.099
0.01548318792980545,3.1
0.01552686164872627,3.101
0.01557543359960993,3.102
0.015629069465095277,3.103
0.015687956523115866,3.104
0.01575230237652865,3.105
0.015822329753740583,3.106
0.015898268670487457,3.107
0.015980347851958378,3.108
0.01606878810393863,3.109
0.016163799848847357,3.11
0.01626558416994414,3.111
0.016374334469120993,3.112
0.01649023685916273,3.113
0.016613469339634427,3.114
0.01674420042325332,3.115
0.016882587749965948,3.116
0.01702877699297296,3.117
0.01718290111371894,3.118
0.01734507983365666,3.119
0.01751541910608751,3.12
0.017694010413037437,3.121
0.017880929862696997,3.122
0.018076237261400827,3.123
0.018279975501780173,3.124
0.018492170681855595,3.125
0.018712833312907223,3.126
0.018941960783784424,3.127
0.019179540961133813,3.128
0.019425556492046844,3.129
0.019679989129453273,3.13
0.019942823291563397,3.131
0.02021404810814402,3.132
0.020493657356935122,3.133
0.02078164689812024,3.134
0.02107800944647894,3.135
0.02138272817521297,3.136
0.02169577382775098,3.137
0.022017108990467604,3.138
0.022346697143765363,3.139
0.022684511417360283,3.14
0.023030540013714622,3.141
0.023384787102936774,3.142
0.02374726907073378,3.143
0.024118007163455264,3.144
0.024497018412795227,3.145
0.024884307023579185,3.146
0.025279858118522097,3.147
0.02568363448867555,3.148
0.026095575283672418,3.149
0.026515595300060917,3.15
0.026943584937543022,3.151
0.027379411930552093,3.152
0.027822925640898798,3.153
0.028273963678153703,3.154
0.028732359593804446,3.155
0.02919794976461105,3.156
0.029670577519229645,3.157
0.030150093028070098,3.158
0.030636348275874862,3.159
0.03112918811876595,3.16
0.03162844197620458,3.161
0.03213392251760936,3.162
0.03264543240860004,3.163
0.033162773088986915,3.164
0.03368574941882672,3.165
0.03421416815833208,3.166
0.034747831008244974,3.167
0.03528652467925097,3.168
0.035830012197820206,3.169
0.036378029096346805,3.17
0.036930283836560746,3.171
0.03748645848806163,3.172
0.03804620724529769,3.173
0.038609153375153415,3.174
0.039174886271848286,3.175
0.03974296011130337,3.176
0.04031289500687628,3.177
0.040884180743257593,3.178
0.04145628233967191,3.179
0.04202864608338929,3.18
0.04260070439607172,3.181
0.043171877942940765,3.182
0.04374157371164603,3.183
0.044309178649629556,3.184
0.04487405170127046,3.185
0.04543552132268404,3.186
0.045992892669440205,3.187
0.046545459951330276,3.188
0.047092516945775036,3.189
0.047633362520368705,3.19
0.048167300793220395,3.191
0.048693636643708925,3.192
0.04921166801447925,3.193
0.04972067674099783,3.194
0.05021991956048569,3.195
0.05070862052546607,3.196
0.051185965251680156,3.197
0.0516510967754868,3.198
0.052103113823294606,3.199
0.052541074736816684,3.2
0.052964010619114474,3.201
0.05337094853603843,3.202
0.0537609426579995,3.203
0.05413310874486383,3.204
0.054486654800531005,3.205
0.05482089928081721,3.206
0.05513526914128145,3.207
0.05542927326795473,3.208
0.05570245970093449,3.209
0.05595438849129972,3.21
0.05618465044986163,3.211
0.05639292229481158,3.212
0.05657902279538954,3.213
0.05674294531403198,3.214
0.05688485907360419,3.215
0.05700508062180721,3.216
0.057104023208120594,3.217
0.057182138920127114,3.218
0.05723987627690059,3.219
0.057277669627518506,3.22
0.057295952138195085,3.221
0.05729517038161592,3.222
0.057275788872376124,3.223
0.05723828599559304,3.224
0.05718314653237295,3.225
0.0571108555623597,3.226
0.057021897296046516,3.227
0.05691676053701413,3.228
0.05679595021737993,3.229
0.05666000216326152,3.23
0.05650949648351203,3.231
0.056345064297679284,3.232
0.056167383218402187,3.233
0.055977158945430455,3.234
0.0557750982809335,3.235
0.05556189328780975,3.236
0.05533823435851728,3.237
0.05510484473267923,3.238
0.054862514081435144,3.239
0.05461211655131824,3.24
0.05435460926152926,3.241
0.05409101306508344,3.242
0.05382238129962983,3.243
0.05354976599601965,3.244
0.0532741943904145,3.245
0.05299666369931508,3.246
0.052718148467402595,3.247
0.05243960863961837,3.248
0.05216199271373281,3.249
0.05188623659221599,3.25
0.051613259968977594,3.251
0.051343961616362885,3.252
0.0510792145051158,3.253
0.05081986135857634,3.254
0.0505667109908267,3.255
0.050320535574519855,3.256
0.050082068807347536,3.257
0.04985200478942993,3.258
0.04963099729930659,3.259
0.0494196590934501,3.26
0.049218560879924024,3.261
0.04902822981354455,3.262
0.04884914803073719,3.263
0.048681752494631,3.264
0.04852643681388154,3.265
0.048383554162715725,3.266
0.04825342009156557,3.267
0.048136314738219034,3.268
0.04803248439228748,3.269
0.04794214246905643,3.27
0.04786546993721029,3.271
0.047802615117114186,3.272
0.04775369266341622,3.273
0.04771878165269557,3.274
0.04769792301902494,3.275
0.04769111688151763,3.276
0.04769832032674438,3.277
0.047719445908929924,3.278
0.04775436077702138,3.279
0.0478028863207614,3.28
0.04786479849250919,3.281
0.04793982892863819,3.282
0.048027666599405515,3.283
0.04812795953691486,3.284
0.04824031639626577,3.285
0.0483643079556839,3.286
0.04849946901177365,3.287
0.0486453013524685,3.288
0.048801278452299576,3.289
0.04896685214020686,3.29
0.04914146073169727,3.291
0.04932453716935668,3.292
0.04951551494747265,3.293
0.04971382935353136,3.294
0.049918911910359194,3.295
0.05013017885537465,3.296
0.05034702218267674,3.297
0.05056881550430865,3.298
0.05079493683439391,3.299
0.0510247975732357,3.3
0.05125786579924116,3.301
0.051493677455336506,3.302
0.051731833335970596,3.303
0.051971982945663554,3.304
0.05221379849477788,3.305
0.05245694653796976,3.306
0.0527010722760628,3.307
0.05294580820572605,3.308
0.05319080155868561,3.309
0.053435746241653655,3.31
0.053680410107593245,3.311
0.05392465278784474,3.312
0.054168429956651123,3.313
0.05441178090028589,3.314
0.054654798585726666,3.315
0.05489759116003627,3.316
0.055140260204426264,3.317
0.05538291516124114,3.318
0.05562571140364649,3.319
0.055868885253502185,3.32
0.05611277175718056,3.321
0.056357802595494166,3.322
0.05660448603557773,3.323
0.05685337376227974,3.324
0.05710502362282307,3.325
0.057359973436521675,3.326
0.05761873777412089,3.327
0.0578818228691519,3.328
0.05814974465499146,3.329
0.05842304085623226,3.33
0.05870227587451039,3.331
0.05898803922257085,3.332
0.05928093817776135,3.333
0.05958158539028639,3.334
0.05989058243394427,3.335
0.06020850219330233,3.336
0.060535876948912395,3.337
0.06087319807287493,3.338
0.061220924364962855,3.339
0.06157949036169051,3.34
0.06194930927573494,3.341
0.06233077029921812,3.342
0.06272423227859467,3.343
0.06313001623921499,3.344
0.06354839869246497,3.345
0.063979606566698,3.346
0.06442381364799665,3.347
0.06488113800828732,3.348
0.06535163999301823,3.349
0.06583532063060157,3.35
0.06633212053861379,3.351
0.06684191942919154,3.352
0.06736453616674187,3.353
0.06789972906890586,3.354
0.06844719586921653,3.355
0.06900657276639495,3.356
0.06957743311789978,3.357
0.070159288253121,3.358
0.0707515927225644,3.359
0.07135375375033486,3.36
0.07196514306388425,3.361
0.07258510913273984,3.362
0.07321298749642782,3.363
0.07384810648473387,3.364
0.07448978589771585,3.365
0.07513732714973252,3.366
0.07578999707616513,3.367
0.07644701546103955,3.368
0.0771075584392745,3.369
0.07777077808941109,3.37
0.07843582676104138,3.371
0.0791018756937085,3.372
0.0797681235236387,3.373
0.08043379375335935,3.374
0.08109812242616833,3.375
0.08176033913012705,3.376
0.0824196455308144,3.377
0.08307519557647372,3.378
0.08372608030403009,3.379
0.08437131811822857,3.38
0.08500984974062037,3.381
0.08564053758740713,3.382
0.08626217163794772,3.383
0.08687348498092386,3.384
0.08747318110171232,3.385
0.08805997250064862,3.386
0.08863262689784836,3.387
0.08919001370743687,3.388
0.08973114078881145,3.389
0.09025517065267784,3.39
0.09076140694072883,3.391
0.09124924637985306,3.392
0.09171811303853769,3.393
0.0921674279674776,3.394
0.09259665250554198,3.395
0.09300537503848855,3.396
0.09339338658191405,3.397
0.09376071953566646,3.398
0.09410764526356116,3.399
0.09443463400337339,3.4
0.09474228704711231,3.401
0.09503125766066163,3.402
0.0953021876214676,3.403
0.09555568720400887,3.404
0.0957923595113604,3.405
0.09601284156680841,3.406
0.09621783878584228,3.407
0.09640814694291017,3.408
0.09658466116722114,3.409
0.09674837048264286,3.41
0.09690033650258108,3.411
0.09704165641892716,3.412
0.09717341784424001,3.413
0.0972966672172634,3.414
0.09741241195617259,3.415
0.09752164923706935,3.416
0.0976253957271307,3.417
0.09772470150612877,3.418
0.09782064550399841,3.419
0.09791431561324059,3.42
0.09800677859452366,3.421
0.09809904879124172,3.422
0.09819206981853984,3.423
0.0982867166231075,3.424
0.09838380881850668,3.425
0.09848412272490603,3.426
0.09858839876252284,3.427
0.09869734616820133,3.428
0.09881164679941465,3.429
0.09893195844030732,3.43
0.09905891672623358,3.431
0.09919313412138896,3.432
0.09933519440872875,3.433
0.09948564159061542,3.434
0.0996449638421341,3.435
0.09981357896073315,3.436
0.09999183296216818,3.437
0.10018001634014813,3.438
0.10037838917772966,3.439
0.10058720420401948,3.44
0.10080672301686847,3.441
0.10103722389189182,3.442
0.10127900006590354,3.443
0.10153234790760601,3.444
0.10179754548182447,3.445
0.10207482552345598,3.446
0.10236435378612165,3.447
0.10266622482523367,3.448
0.10298047436748124,3.449
0.10330709520182166,3.45
0.10364604651595702,3.451
0.10399725522597246,3.452
0.104360611542972,3.453
0.10473596131754861,3.454
0.10512309688704037,3.455
0.10552174668409199,3.456
0.1059315636103795,3.457
0.10635211596374881,3.458
0.10678288876110054,3.459
0.10722329843656746,3.46
0.10767271395990576,3.461
0.10813047456762676,3.462
0.10859589753396842,3.463
0.10906827230552998,3.464
0.10954684190042353,3.465
0.11003078346707397,3.466
0.11051920788732203,3.467
0.11101118554605935,3.468
0.11150578401157663,3.469
0.11200210023761055,3.47
0.1124992792144942,3.471
0.11299651605202572,3.472
0.11349303984666405,3.473
0.1139880792719389,3.474
0.11448082104770953,3.475
0.11497039254794142,3.476
0.11545589056071376,3.477
0.11593643811837126,3.478
0.11641123686446614,3.479
0.11687959828868001,3.48
0.11734094870288803,3.481
0.11779480807111085,3.482
0.11824074841645305,3.483
0.11867834132408081,3.484
0.11910710791315061,3.485
0.11952648865947721,3.486
0.11993584203019804,3.487
0.12033446221048631,3.488
0.12072160182050556,3.489
0.12109649589890857,3.49
0.12145838927027167,3.491
0.12180656780303432,3.492
0.12214039090709149,3.493
0.1224593201319744,3.494
0.12276293754085169,3.495
0.12305094786722431,3.496
0.12332316026507822,3.497
0.12357944835998418,3.498
0.12381969457231722,3.499
0.12404374256282107,3.5
0.12425139281527761,3.501
0.12444245087351155,3.502
0.12461680038219228,3.503
0.12477446983312014,3.504
0.1249156788417458,3.505
0.12504085794801004,3.506
0.12515063859182596,3.507
0.12524581391020836,3.508
0.12532727569017132,3.509
0.12539593931095222,3.51
0.12545268073039534,3.511
0.12549831459675367,3.512
0.12553361733732343,3.513
0.1255593671501926,3.514
0.1255763749258127,3.515
0.12558549981628112,3.516
0.12558765117043963,3.517
0.12558377869769644,3.518
0.12557485258058299,3.519
0.12556183509062374,3.52
0.12554564579494412,3.521
0.12552712868296012,3.522
0.12550703867906754,3.523
0.12548605592350567,3.524
0.12546481279597518,3.525
0.12544391341509828,3.526
0.1254239371562819,3.527
0.12540542563373636,3.528
