VaMe,time
-0.013170361683620194,0.001
-0.012572232978151127,0.002
-0.01197850477535567,0.003
-0.0113897935478269,0.004
-0.010806686699546923,0.005
-0.010229735590627748,0.006
-0.009659449237433752,0.007
-0.009096288862193866,0.008
-0.008540663649033981,0.009
-0.00799292832496908,0.01
-0.007453383350778235,0.011
-0.006922278428278291,0.012
-0.006399819684008803,0.013
-0.0058861802033587434,0.014
-0.005381510965691403,0.015
-0.0048859457271761275,0.016
-0.004399596539521175,0.017
-0.003922544970235797,0.018
-0.0034548359415545508,0.019
-0.002996476725248295,0.02
-0.002547440724348951,0.021
-0.002107674715293352,0.022
-0.001677107598816147,0.023
-0.0012556580353266635,0.024
-0.0008432383992072836,0.025
-0.00043975505009550485,0.026
-4.5107759271366164e-05,0.027
0.00034080948820152974,0.028
0.0007181064814393248,0.029
0.001086894896347401,0.03
0.0014472875878336693,0.031
0.0017993989573073079,0.032
0.0021433455044811162,0.033
0.0024792459340413327,0.034
0.002807220627550952,0.035
0.003127390521574502,0.036
0.003439875983888742,0.037
0.0037447967785775235,0.038
0.00404227351696803,0.039
0.004332429709555774,0.04
0.0046153932708555435,0.041
0.004891296885996806,0.042
0.005160277081121736,0.043
0.0054224720836233975,0.044
0.005678019164406413,0.045
0.00592705310454559,0.046
0.006169706972872838,0.047
0.006406114439875343,0.048
0.006636412106443321,0.049
0.006860741114676782,0.05
0.007079247854853519,0.051
0.0072920836549182815,0.052
0.007499403373925178,0.053
0.007701362895528606,0.054
0.007898116074493063,0.055
0.008089812782364755,0.056
0.008276599439988644,0.057
0.008458621274584481,0.058
0.008636024342905342,0.059
0.008808956132286197,0.06
0.008977564518357236,0.061
0.009141995348035456,0.062
0.009302389585179944,0.063
0.009458881633033708,0.064
0.009611599496519845,0.065
0.009760665436719055,0.066
0.009906195671007758,0.067
0.01004829951154775,0.068
0.01018707946710002,0.069
0.010322632810559118,0.07
0.01045505329232353,0.071
0.01058443132861169,0.072
0.010710852480638947,0.073
0.010834396215102642,0.074
0.010955137180613642,0.075
0.011073148589889068,0.076
0.011188505354962398,0.077
0.011301285357000224,0.078
0.011411568587349711,0.079
0.011519434595012782,0.08
0.011624958980719522,0.081
0.011728210051683284,0.082
0.011829247028589649,0.083
0.01192812017513893,0.084
0.012024871567105187,0.085
0.01211953519203485,0.086
0.012212136178253834,0.087
0.012302689620983926,0.088
0.012391199685361709,0.089
0.01247765927513322,0.09
0.012562049958919783,0.091
0.012644342204486219,0.092
0.012724496482532495,0.093
0.012802465220858747,0.094
0.012878194811232764,0.095
0.012951626723115162,0.096
0.013022696921616048,0.097
0.013091333931340638,0.098
0.013157458199929714,0.099
0.013220985187511913,0.1
0.01328183088734268,0.101
0.013339916428219101,0.102
0.013395169541755894,0.103
0.013447522211460937,0.104
0.01349690553088317,0.105
0.013543245074717037,0.106
0.013586460059644916,0.107
0.013626465804448776,0.108
0.01366317617289492,0.109
0.013696503975525624,0.11
0.013726359641489114,0.111
0.013752649359608788,0.112
0.013775273888433946,0.113
0.013794128960219983,0.114
0.01380910774812909,0.115
0.013820105272742146,0.116
0.013827023929620156,0.117
0.013829778634563547,0.118
0.013828299622045834,0.119
0.0138225309451539,0.12
0.013812424472161048,0.121
0.013797934079200415,0.122
0.013779017836956323,0.123
0.01375565018271082,0.124
0.01372783746081847,0.125
0.013695629187232388,0.126
0.013659121385066064,0.127
0.013618451391881628,0.128
0.013573785563353915,0.129
0.013525303878135077,0.13
0.01347318836663521,0.131
0.01341762061457808,0.132
0.01335878601142965,0.133
0.013296878071356164,0.134
0.013232099255841458,0.135
0.013164658728118268,0.136
0.013094768614972234,0.137
0.013022640142755533,0.138
0.012948480526564688,0.139
0.012872490939124017,0.14
0.012794865460455617,0.141
0.012715790693446367,0.142
0.012635445685531169,0.143
0.012554001845690388,0.144
0.012471622645518111,0.145
0.01238846302886254,0.146
0.012304668604177452,0.147
0.012220374820516784,0.148
0.0121357063988509,0.149
0.012050777279291037,0.15
0.011965691226975932,0.151
0.011880543011001164,0.152
0.011795419788902667,0.153
0.011710402112702295,0.154
0.011625563939336827,0.155
0.01154097164817786,0.156
0.011456683483375186,0.157
0.011372751159166321,0.158
0.011289223493263723,0.159
0.011206150319317338,0.16
0.011123585149408373,0.161
0.011041585840575857,0.162
0.010960213046539958,0.163
0.010879526759755254,0.164
0.010799582386912133,0.165
0.01072042895314485,0.166
0.010642110573703593,0.167
0.010564669257651288,0.168
0.010488146729210893,0.169
0.010412584730051,0.17
0.010338024211284328,0.171
0.010264503888762608,0.172
0.010192058508983621,0.173
0.010120716997577679,0.174
0.01005050089519372,0.175
0.009981424109716008,0.176
0.00991349474190991,0.177
0.009846718507374114,0.178
0.009781102781417642,0.179
0.009716660576342394,0.18
0.00965341378379473,0.181
0.009591394885566283,0.182
0.009530646436442495,0.183
0.00947121798019883,0.184
0.009413161131038445,0.185
0.009356525541275307,0.186
0.009301358768087244,0.187
0.009247709714215527,0.188
0.009195632351292426,0.189
0.00914518728411961,0.19
0.009096440906936802,0.191
0.009049462972671491,0.192
0.00900432364106516,0.193
0.008961090950837082,0.194
0.008919829275889427,0.195
0.008880598850481543,0.196
0.008843456054074893,0.197
0.008808453938007207,0.198
0.00877564246808837,0.199
0.008745068095804694,0.2
0.008716772597038956,0.201
0.00869079184647296,0.202
0.00866715579698299,0.203
0.008645890194203618,0.204
0.008627019138304281,0.205
0.00861056733445243,0.206
0.008596561481797056,0.207
0.00858503062954052,0.208
0.008576005491545472,0.209
0.008569516885107984,0.21
0.008565593631459716,0.211
0.008564260398646361,0.212
0.008565536027073882,0.213
0.008569432785689625,0.214
0.008575956728324462,0.215
0.008585108906727838,0.216
0.008596886794153045,0.217
0.008611285068157535,0.218
0.008628295079922377,0.219
0.008647903403554138,0.22
0.008670091356345548,0.221
0.008694836807888927,0.222
0.008722117131485645,0.223
0.008751911379124809,0.224
0.008784200916247636,0.225
0.008818968619620577,0.226
0.008856197036357498,0.227
0.0088958660085918,0.228
0.008937950318594741,0.229
0.008982418078243928,0.23
0.009029230485521705,0.231
0.009078342852485039,0.232
0.00912970623362336,0.233
0.009183269136572227,0.234
0.009238979098994272,0.235
0.009296783932842235,0.236
0.009356632353570789,0.237
0.009418473677375716,0.238
0.009482256326603137,0.239
0.009547925387433723,0.24
0.00961542061493143,0.241
0.009684676569672472,0.242
0.009755624764434968,0.243
0.009828195962372008,0.244
0.009902321105834243,0.245
0.00997793051149685,0.246
0.01005495161358275,0.247
0.010133306187972358,0.248
0.01021290875873608,0.249
0.010293667136504581,0.25
0.010375484063573902,0.251
0.010458258507354122,0.252
0.010541886182420005,0.253
0.010626259475593544,0.254
0.01071126697931309,0.255
0.010796792763814877,0.256
0.010882715409562356,0.257
0.010968906739343663,0.258
0.011055230409848823,0.259
0.01114154110423346,0.26
0.011227685008652686,0.261
0.011313501201318096,0.262
0.011398822938044543,0.263
0.01148347812112659,0.264
0.011567288661677805,0.265
0.011650069002718987,0.266
0.011731625054277058,0.267
0.011811754890841849,0.268
0.01189025100737572,0.269
0.011966902626352872,0.27
0.012041496694483067,0.271
0.012113816817942966,0.272
0.012183640915195523,0.273
0.012250741032886476,0.274
0.012314888315259237,0.275
0.012375861735612411,0.276
0.012433456839104644,0.277
0.012487491662016365,0.278
0.012537807987118815,0.279
0.012584266825044375,0.28
0.01262673955295102,0.281
0.012665101272782966,0.282
0.01269923407826494,0.283
0.01272904013984595,0.284
0.012754457112814503,0.285
0.012775469038806584,0.286
0.012792109639812255,0.287
0.01280445728957957,0.288
0.012812622744087964,0.289
0.012816733333224641,0.29
0.012816920696169866,0.291
0.012813318104332288,0.292
0.012806065642745997,0.293
0.012795316237338697,0.294
0.012781238278935665,0.295
0.012764014931211636,0.296
0.012743841565461843,0.297
0.012720922602300216,0.298
0.01269546861188843,0.299
0.012667694029725797,0.3
0.012637815437334571,0.301
0.012606050101026606,0.302
0.012572614363521683,0.303
0.012537721531701079,0.304
0.012501579191425038,0.305
0.012464386742257324,0.306
0.012426334764152735,0.307
0.012387606854599578,0.308
0.012348382602353334,0.309
0.012308840066901115,0.31
0.012269157136686495,0.311
0.012229511724688365,0.312
0.012190080935518575,0.313
0.012151039468661461,0.314
0.012112557605983157,0.315
0.012074799163730785,0.316
0.01203791974882658,0.317
0.012002065533064528,0.318
0.011967372569164105,0.319
0.011933966479765407,0.32
0.011901962239819064,0.321
0.011871463949016735,0.322
0.011842564940822668,0.323
0.011815348612700033,0.324
0.011789889783641101,0.325
0.011766256012096628,0.326
0.011744508409511923,0.327
0.011724701675530922,0.328
0.011706883277538944,0.329
0.011691092099854463,0.33
0.01167735746162386,0.331
0.011665699292604408,0.332
0.011656129204942852,0.333
0.011648651570145292,0.334
0.011643264097987712,0.335
0.01163995795222623,0.336
0.011638717674878379,0.337
0.011639521249761267,0.338
0.011642340555135728,0.339
0.01164714224566141,0.34
0.011653888849992746,0.341
0.01166253967738762,0.342
0.011673051062505076,0.343
0.011685375561926682,0.344
0.011699460091890324,0.345
0.011715243985944769,0.346
0.011732658765920003,0.347
0.011751630343785407,0.348
0.01177208239640496,0.349
0.01179393935871441,0.35
0.011817128385433922,0.351
0.011841580117847113,0.352
0.011867228219441962,0.353
0.011894007771260703,0.354
0.011921852725540706,0.355
0.011950692706980175,0.356
0.01198044998967278,0.357
0.012011038359577628,0.358
0.012042364917424738,0.359
0.012074333844245284,0.36
0.012106850563612374,0.361
0.012139825521797277,0.362
0.012173177152491855,0.363
0.012206833561345876,0.364
0.012240732522370916,0.365
0.012274819495448347,0.366
0.012309043541016204,0.367
0.012343352064816078,0.368
0.012377687524177481,0.369
0.012411989009223183,0.37
0.012446197528643555,0.371
0.012480261166531725,0.372
0.01251413751868527,0.373
0.01254779278881436,0.374
0.012581197984902216,0.375
0.012614323419335374,0.376
0.012647133722506915,0.377
0.012679585834555565,0.378
0.012711630205883747,0.379
0.012743212750326572,0.38
0.012774275302210864,0.381
0.012804754135820053,0.382
0.012834577681967323,0.383
0.012863665863682603,0.384
0.01289193253535448,0.385
0.012919289681338786,0.386
0.01294565109954002,0.387
0.012970934327871034,0.388
0.012995060231394549,0.389
0.01301794993884501,0.39
0.01303952052835218,0.391
0.013059683847506822,0.392
0.013078351822692812,0.393
0.013095446161238542,0.394
0.013110907982032922,0.395
0.01312470454182109,0.396
0.013136831528440389,0.397
0.013147310171215272,0.398
0.013156179547420634,0.399
0.013163486235722274,0.4
0.013169275986307783,0.401
0.01317359199808329,0.402
0.013176479372042735,0.403
0.013177991088006756,0.404
0.013178192140122712,0.405
0.013177161323099098,0.406
0.013174991048880223,0.407
0.013171785467917025,0.408
0.013167657083546697,0.409
0.013162722068422972,0.41
0.01315709482929484,0.411
0.013150883448824043,0.412
0.01314418834980489,0.413
0.013137104643970578,0.414
0.013129725845463826,0.415
0.013122146531265125,0.416
0.013114463072967942,0.417
0.013106772365577566,0.418
0.013099168769802999,0.419
0.013091740292162807,0.42
0.013084566217933191,0.421
0.013077717697534073,0.422
0.013071260051053187,0.423
0.013065254463971164,0.424
0.013059757950338207,0.425
0.01305482160086541,0.426
0.01305048814972497,0.427
0.013046790982232118,0.428
0.013043755740668345,0.429
0.013041403105922634,0.43
0.013039750652834584,0.431
0.013038812874444845,0.432
0.01303859932326146,0.433
0.013039111784738848,0.434
0.013040342767005938,0.435
0.013042276713777714,0.436
0.013044892408317714,0.437
0.013048164234963126,0.438
0.01305206152961946,0.439
0.01305654648324456,0.44
0.013061571743490995,0.441
0.013067079047966923,0.442
0.013072999144490706,0.443
0.013079252041665138,0.444
0.01308574704559836,0.445
0.01309238317134452,0.446
0.013099050791582169,0.447
0.013105634871024016,0.448
0.013112019369924514,0.449
0.013118091737654372,0.45
0.013123746124255814,0.451
0.013128884075789955,0.452
0.013133411962634551,0.453
0.013137235930769878,0.454
0.013140258043606294,0.455
0.013142377659261528,0.456
0.013143497634456651,0.457
0.013143531258020673,0.458
0.013142406757336664,0.459
0.013140068427475442,0.46
0.013136474375975902,0.461
0.013131591168505844,0.462
0.013125386806670566,0.463
0.013117826042599522,0.464
0.013108872074791974,0.465
0.013098493834980882,0.466
0.013086674261560773,0.467
0.013073415901583774,0.468
0.013058742377270057,0.469
0.013042695396573213,0.47
0.013025327735272985,0.471
0.013006694490819615,0.472
0.012986847802351625,0.473
0.012965838854152286,0.474
0.012943724692243442,0.475
0.012920574581013377,0.476
0.012896473133944616,0.477
0.012871519808018338,0.478
0.012845825161807408,0.479
0.012819504725450088,0.48
0.012792672204066395,0.481
0.01276543497287192,0.482
0.012737893817194403,0.483
0.012710145388129548,0.484
0.012682284387590234,0.485
0.012654404149146831,0.486
0.012626595844365427,0.487
0.012598946928171987,0.488
0.012571539393083465,0.489
0.012544448264838852,0.49
0.012517740617015239,0.491
0.012491475244602129,0.492
0.0124657030099626,0.493
0.012440467750191005,0.494
0.01241580752533864,0.495
0.012391755913517941,0.496
0.012368343028314917,0.497
0.012345595937174122,0.498
0.012323538188554134,0.499
0.012302188218195427,0.5
0.012281557097031276,0.501
0.012261647529691782,0.502
0.012242455831529967,0.503
0.012223976131460782,0.504
0.012206204635084643,0.505
0.012189142443177182,0.506
0.012172796236065866,0.507
0.012157176641538134,0.508
0.012142294619658087,0.509
0.012128157001764183,0.51
0.012114763352234539,0.511
0.012102105813851549,0.512
0.012090171184249368,0.513
0.012078943205901633,0.514
0.012068404019756493,0.515
0.0120585347973833,0.516
0.012049315794329494,0.517
0.012040725988483828,0.518
0.012032742377714088,0.519
0.012025338967760741,0.52
0.012018485503372917,0.521
0.012012146051098673,0.522
0.012006277575043044,0.523
0.01200082863059964,0.524
0.011995738259937697,0.525
0.011990935146994071,0.526
0.011986337087185966,0.527
0.01198185081522197,0.528
0.011977372171172401,0.529
0.011972786460883192,0.53
0.011967968722217589,0.531
0.011962783693680465,0.532
0.011957085902729422,0.533
0.01195072086696987,0.534
0.011943527968999692,0.535
0.011935344617017727,0.536
0.011926010919703214,0.537
0.011915374211077386,0.538
0.011903292906208373,0.539
0.011889639275005694,0.54
0.011874300731939718,0.541
0.011857179106570326,0.542
0.011838187196366985,0.543
0.011817242865254492,0.544
0.011794264348850083,0.545
0.01176917243169222,0.546
0.011741900588254603,0.547
0.011712407863907592,0.548
0.011680688612174278,0.549
0.011646776100739038,0.55
0.011610739307868328,0.551
0.011572673899605678,0.552
0.011532689857793486,0.553
0.011490900043755754,0.554
0.01144741476893117,0.555
0.011402343362725218,0.556
0.011355798135506462,0.557
0.011307896459538525,0.558
0.011258760428258924,0.559
0.011208515110122207,0.56
0.011157286320131578,0.561
0.011105198568557255,0.562
0.011052373520143892,0.563
0.010998928996107436,0.564
0.01094497833687819,0.565
0.010890629853983985,0.566
0.01083598614126194,0.567
0.01078114315020403,0.568
0.010726189089318234,0.569
0.010671203335974792,0.57
0.010616255617559786,0.571
0.010561405619248766,0.572
0.01050670299255317,0.573
0.010452187770872763,0.574
0.010397891278516596,0.575
0.010343837422289974,0.576
0.01029004401972117,0.577
0.010236523768069506,0.578
0.01018328448981599,0.579
0.010130328396389478,0.58
0.010077650797901882,0.581
0.010025239888172053,0.582
0.009973078961635424,0.583
0.009921150451135981,0.584
0.009869440280721276,0.585
0.009817941585986114,0.586
0.009766657239368785,0.587
0.009715600696222201,0.588
0.00966479480923196,0.589
0.00961426845765715,0.59
0.009564051740435557,0.591
0.009514172450104419,0.592
0.009464656838479647,0.593
0.009415534333757943,0.594
0.009366842865135077,0.595
0.009318631994143244,0.596
0.009270962847727446,0.597
0.009223904912223678,0.598
0.009177530731756962,0.599
0.009131911062187062,0.6
0.009087113354650072,0.601
0.009043203645937203,0.602
0.009000248920539572,0.603
0.008958317464762486,0.604
0.008917476869891753,0.605
0.00887779098912727,0.606
0.008839318198657218,0.607
0.008802112041600542,0.608
0.008766222533581926,0.609
0.008731696052927089,0.61
0.008698573987296591,0.611
0.008666892221989417,0.612
0.008636682855655367,0.613
0.008607977078806088,0.614
0.008580807384661117,0.615
0.008555208360096343,0.616
0.008531216077862835,0.617
0.008508866348088794,0.618
0.00848819226314212,0.619
0.008469221906670807,0.62
0.008451977514435258,0.621
0.008436476541577288,0.622
0.008422733571328767,0.623
0.008410761812634001,0.624
0.008400573756123556,0.625
0.008392181028508043,0.626
0.008385593623542307,0.627
0.008380818767763601,0.628
0.008377859670997344,0.629
0.008376714323804027,0.63
0.008377374422669642,0.631
0.008379824603440295,0.632
0.008384042335039879,0.633
0.008389998603599614,0.634
0.008397659034747334,0.635
0.008406984980454467,0.636
0.008417934273041414,0.637
0.00843046146639208,0.638
0.008444517484689168,0.639
0.008460048764852722,0.64
0.008476996162545592,0.641
0.0084952940224507,0.642
0.008514869827224079,0.643
0.008535644709775286,0.644
0.008557534870160288,0.645
0.00858045365949622,0.646
0.008604313869109627,0.647
0.008629029657180813,0.648
0.008654517578809782,0.649
0.008680696337641026,0.65
0.008707485093060156,0.651
0.008734800774693064,0.652
0.00876255612207688,0.653
0.008790660424275598,0.654
0.008819022919133813,0.655
0.008847556934932325,0.656
0.00887618311378986,0.657
0.00890483107031425,0.658
0.008933439372543142,0.659
0.008961953981757177,0.66
0.008990325438637497,0.661
0.009018505126603639,0.662
0.009046441457147702,0.663
0.009074077930005378,0.664
0.009101354552181124,0.665
0.00912821169571201,0.666
0.009154594409690634,0.667
0.009180456046255801,0.668
0.009205760697310205,0.669
0.009230484052630229,0.67
0.00925461242502529,0.671
0.009278139908834724,0.672
0.00930106388619245,0.673
0.00932338011673579,0.674
0.009345080364061044,0.675
0.009366154508264227,0.676
0.009386595321285583,0.677
0.009406402804802184,0.678
0.00942558660264111,0.679
0.009444166146650128,0.68
0.009462168611092543,0.681
0.009479625126557286,0.682
0.009496566191329048,0.683
0.009513018014856019,0.684
0.009529001555340446,0.685
0.009544534164841514,0.686
0.009559631991822599,0.687
0.009574311690454852,0.688
0.00958859117513687,0.689
0.009602489592320872,0.69
0.00961602668077097,0.691
0.009629221666240199,0.692
0.009642091817333486,0.693
0.009654650792376294,0.694
0.009666906926904566,0.695
0.009678861634620492,0.696
0.009690508169206658,0.697
0.00970183104180156,0.698
0.009712806129527827,0.699
0.009723401169312548,0.7
0.009733576416720438,0.701
0.009743285513863548,0.702
0.009752476628965622,0.703
0.00976109380204892,0.704
0.009769078313283016,0.705
0.009776369809347816,0.706
0.009782906901105911,0.707
0.00978862699121697,0.708
0.009793465179177068,0.709
0.00979735236479139,0.71
0.009800213531325864,0.711
0.009801967982216837,0.712
0.009802532364068578,0.713
0.009801825401801259,0.714
0.009799772742566241,0.715
0.009796310847497637,0.716
0.009791389150310742,0.717
0.009784969820905326,0.718
0.009777024743862358,0.719
0.0097675302241993,0.72
0.009756462187345757,0.721
0.00974379592826292,0.722
0.009729511225592,0.723
0.009713599145689896,0.724
0.009696066693889047,0.725
0.00967693791865797,0.726
0.009656251575167763,0.727
0.00963405609271591,0.728
0.00961040317674994,0.729
0.009585342322865623,0.73
0.009558918828860553,0.731
0.009531175657988559,0.732
0.009502156791615644,0.733
0.009471909974418569,0.734
0.009440488470989494,0.735
0.009407952035143618,0.736
0.009374367130718804,0.737
0.009339806295330972,0.738
0.009304346507126046,0.739
0.009268066518338988,0.74
0.00923104347324974,0.741
0.009193350018544362,0.742
0.009155053706807907,0.743
0.00911621917206585,0.744
0.00907691154015781,0.745
0.009037199369350712,0.746
0.008997156380041485,0.747
0.008956861686094377,0.748
0.008916398375738346,0.749
0.008875850523308944,0.75
0.008835299546145788,0.751
0.008794822089221962,0.752
0.008754490852626653,0.753
0.008714376960618888,0.754
0.008674551514886124,0.755
0.008635085368621455,0.756
0.008596047327643923,0.757
0.008557501697797683,0.758
0.0085195067255995,0.759
0.008482114771113825,0.76
0.008445373310519614,0.761
0.008409325433838499,0.762
0.00837400939181459,0.763
0.008339457583671979,0.764
0.008305696071179394,0.765
0.008272745596568518,0.766
0.008240623912222527,0.767
0.00820934853396688,0.768
0.008178939265781032,0.769
0.008149420084487363,0.77
0.008120819993604598,0.771
0.008093172489240635,0.772
0.008066513405674616,0.773
0.008040877686579614,0.774
0.00801629718119649,0.775
0.007992801468929767,0.776
0.007970420953470314,0.777
0.007949189646240968,0.778
0.007929145993086277,0.779
0.007910331568727327,0.78
0.007892788179600723,0.781
0.007876554552964965,0.782
0.007861664420632405,0.783
0.007848146851256909,0.784
0.00783602760299299,0.785
0.007825329896637865,0.786
0.007816074148032624,0.787
0.007808276850775594,0.788
0.007801949129329019,0.789
0.007797095897995602,0.79
0.007793716098200777,0.791
0.007791803304977587,0.792
0.007791345751068943,0.793
0.007792325718781155,0.794
0.0077947191154703055,0.795
0.007798495843269267,0.796
0.007803620523269112,0.797
0.007810052724647524,0.798
0.007817746510619955,0.799
0.007826650067275415,0.8
0.007836706442772444,0.801
0.007847855534009502,0.802
0.007860036517801846,0.803
0.007873189875839211,0.804
0.00788725848424681,0.805
0.00790218745243571,0.806
0.00791792258154061,0.807
0.007934407877682506,0.808
0.007951583764679377,0.809
0.007969387997718378,0.81
0.007987759481622303,0.811
0.008006643327853245,0.812
0.008025995472359923,0.813
0.008045785891640213,0.814
0.00806599983972963,0.815
0.008086636831434242,0.816
0.008107707459072657,0.817
0.008129228436874933,0.818
0.008151217166884328,0.819
0.008173688660744203,0.82
0.008196656867745079,0.821
0.008220138966369438,0.822
0.008244159638280284,0.823
0.008268753679846466,0.824
0.00829396650146165,0.825
0.008319852490598014,0.826
0.008346471555335046,0.827
0.008373884622339666,0.828
0.008402149647997188,0.829
0.008431319976167754,0.83
0.008461445218333105,0.831
0.008492572816162593,0.832
0.008524748699591734,0.833
0.008558016866048561,0.834
0.008592418316013869,0.835
0.008627989788811238,0.836
0.008664762639186098,0.837
0.00870276202799402,0.838
0.008742006425363194,0.839
0.008782507284438358,0.84
0.008824268701290999,0.841
0.008867287111667184,0.842
0.008911551482960295,0.843
0.008957044370518813,0.844
0.009003743582043002,0.845
0.009051623867478875,0.846
0.00910065819263184,0.847
0.009150818345443304,0.848
0.009202074764390144,0.849
0.009254395577957165,0.85
0.009307744918667718,0.851
0.00936208111109283,0.852
0.009417356266310213,0.853
0.009473518375968663,0.854
0.00953051511858807,0.855
0.00958829775306859,0.856
0.009646823932673784,0.857
0.009706058661395128,0.858
0.009765972965587085,0.859
0.009826540454769182,0.86
0.009887732851833343,0.861
0.00994951647736593,0.862
0.010011851006404032,0.863
0.010074689524192892,0.864
0.01013797819399672,0.865
0.010201655752758524,0.866
0.010265654132788274,0.867
0.010329900121706705,0.868
0.01039431665167248,0.869
0.010458822605173486,0.87
0.010523331315280042,0.871
0.010587749616756256,0.872
0.010651979447676256,0.873
0.010715921708533548,0.874
0.010779480303165069,0.875
0.01084256462848129,0.876
0.010905089674741601,0.877
0.010966973500218687,0.878
0.011028132961759054,0.879
0.011088480462006566,0.88
0.011147924434475926,0.881
0.011206372978118887,0.882
0.011263737564737145,0.883
0.011319934555221607,0.884
0.011374883871175424,0.885
0.011428505327090357,0.886
0.011480714993385533,0.887
0.011531425107561132,0.888
0.011580548487129689,0.889
0.011628004614779096,0.89
0.011673724219496726,0.891
0.011717651032930558,0.892
0.011759740545687245,0.893
0.011799956094464542,0.894
0.011838263105792352,0.895
0.011874623505117485,0.896
0.01190899357403037,0.897
0.011941326784951313,0.898
0.011971579473302655,0.899
0.011999716616021365,0.9
0.012025716743200365,0.901
0.012049575715505027,0.902
0.012071308953923353,0.903
0.012090951661596057,0.904
0.012108556721595843,0.905
0.012124190281772676,0.906
0.012137925434169219,0.907
0.012149835273021313,0.908
0.012159988113683734,0.909
0.012168447318843824,0.91
0.012175274899686093,0.911
0.012180535900499731,0.912
0.012184301715747485,0.913
0.01218665215054879,0.914
0.012187676534347023,0.915
0.012187474127883001,0.916
0.012186153835192727,0.917
0.01218383294308015,0.918
0.012180634427570317,0.919
0.012176682530982669,0.92
0.012172097829032235,0.921
0.012166995250275628,0.922
0.012161487051867533,0.923
0.012155688103378356,0.924
0.01214971959289325,0.925
0.012143709587913257,0.926
0.012137790583497348,0.927
0.01213209488123751,0.928
0.012126749548492426,0.929
0.012121873472204342,0.93
0.012117577500223338,0.931
0.012113965774646587,0.932
0.012111136108172212,0.933
0.012109179071399603,0.934
0.01210817642831861,0.935
0.012108199664863489,0.936
0.012109309138049402,0.937
0.012111553815420024,0.938
0.012114971294565529,0.939
0.012119588032941945,0.94
0.01212541977711123,0.941
0.012132471963505897,0.942
0.012140739882407436,0.943
0.012150208596012225,0.944
0.01216085271745853,0.945
0.012172636164227991,0.946
0.012185511924652814,0.947
0.01219942182655126,0.948
0.012214296460568737,0.949
0.012230055663143344,0.95
0.012246609893477643,0.951
0.012263862494528944,0.952
0.012281712592747566,0.953
0.012300058260963346,0.954
0.012318799405567443,0.955
0.012337839730552079,0.956
0.012357087175775624,0.957
0.012376452425105208,0.958
0.012395845422273058,0.959
0.012415171141491828,0.96
0.012434327857748471,0.961
0.012453210056951056,0.962
0.012471714082910607,0.963
0.012489743338116628,0.964
0.01250721155946589,0.965
0.012524043778033388,0.966
0.012540174871762599,0.967
0.012555545907661161,0.968
0.012570098828456562,0.969
0.012583771291586072,0.97
0.012596495029547107,0.971
0.012608199491034476,0.972
0.01261881857377966,0.973
0.012628297245284721,0.974
0.012636596396372586,0.975
0.01264369505800956,0.976
0.012649589297400744,0.977
0.012654287527468689,0.978
0.012657803209890815,0.979
0.012660148676980808,0.98
0.012661334874834089,0.981
0.012661377472241685,0.982
0.012660304646085809,0.983
0.012658162059937054,0.984
0.01265501350635941,0.985
0.012650937442072956,0.986
0.01264602047584252,0.987
0.012640349749434869,0.988
0.012634007123861032,0.989
0.0126270674092947,0.99
0.012619599810000695,0.991
0.012611669785070296,0.992
0.012603339729515496,0.993
0.012594668626366072,0.994
0.012585711266863659,0.995
0.012576517464955592,0.996
0.012567131490798926,0.997
0.012557591791671225,0.998
0.012547930980514627,0.999
0.012538176035958989,1.0
0.012528348645304171,1.001
0.012518465616137727,1.002
0.012508539277035852,1.003
0.012498577780684573,1.004
0.012488585214855822,1.005
0.01247856142377688,1.006
0.012468501449113096,1.007
0.012458394516822806,1.008
0.012448222526066323,1.009
0.012437958331925488,1.01
0.012427564830124352,1.011
0.012416995762381209,1.012
0.012406197880618133,1.013
0.012395113346947127,1.014
0.012383681582781936,1.015
0.012371840188087955,1.016
0.012359524741721696,1.017
0.012346667506887189,1.018
0.012333195308503056,1.019
0.012319027096314996,1.02
0.012304071930573524,1.021
0.012288227925579097,1.022
0.012271382001394087,1.023
0.012253410203795572,1.024
0.012234178919455588,1.025
0.012213547174477302,1.026
0.012191369518582752,1.027
0.012167498787160598,1.028
0.012141788151381118,1.029
0.012114091927943237,1.03
0.012084264663708632,1.031
0.012052158482342054,1.032
0.012017620460169331,1.033
0.011980493543675669,1.034
0.011940622774824848,1.035
0.011897864757329077,1.036
0.01185209709571204,1.037
0.011803225553719834,1.038
0.011751187343877341,1.039
0.011695949441724241,1.04
0.011637501671030347,1.041
0.011575846220636227,1.042
0.011510988843195853,1.043
0.011442937951057691,1.044
0.011371711852625439,1.045
0.011297348098189506,1.046
0.01121990970456958,1.047
0.011139486846703225,1.048
0.011056194427132295,1.049
0.01097016645601322,1.05
0.010881548449493196,1.051
0.010790489347399205,1.052
0.010697135243177123,1.053
0.010601627315436079,1.054
0.010504103906285424,1.055
0.010404704050514283,1.056
0.010303570209825029,1.057
0.010200849740384953,1.058
0.010096695268647427,1.059
0.009991264142349484,1.06
0.00988471712788072,1.061
0.009777216544766914,1.062
0.009668924043435782,1.063
0.009559998215886245,1.064
0.009450592297484869,1.065
0.009340852556638954,1.066
0.00923091808700765,1.067
0.00912092194470655,1.068
0.009010992707682542,1.069
0.008901255639481132,1.07
0.008791833196371841,1.071
0.00868284490128959,1.072
0.008574406712415295,1.073
0.0084666300776152,1.074
0.008359620869688233,1.075
0.008253478394649376,1.076
0.008148294736619014,1.077
0.008044154684148356,1.078
0.007941136167600202,1.079
0.007839310835372775,1.08
0.00773874445568462,1.081
0.007639497033951323,1.082
0.007541622642610602,1.083
0.00744516903864343,1.084
0.00735017726271378,1.085
0.00725668143170164,1.086
0.007164708761944366,1.087
0.007074279821279803,1.088
0.006985409168953117,1.089
0.0068981064531402,1.09
0.006812377751545388,1.091
0.0067282268346630075,1.092
0.00664565607039922,1.093
0.006564666756410338,1.094
0.006485258774108927,1.095
0.006407429606196906,1.096
0.006331173006758137,1.097
0.006256477909262354,1.098
0.0061833279823690695,1.099
0.006111701627697769,1.1
0.006041572254975033,1.101
0.005972909212781992,1.102
0.005905679478999052,1.103
0.0058398494542629365,1.104
0.0057753860210793635,1.105
0.0057122563085783935,1.106
0.005650426328438131,1.107
0.00558986000612411,1.108
0.005530520413914875,1.109
0.005472373095620919,1.11
0.005415389680311616,1.111
0.005359550249213728,1.112
0.005304843856028377,1.113
0.005251267194758686,1.114
0.005198821778747476,1.115
0.005147510464363883,1.116
0.005097334859420005,1.117
0.005048295016051985,1.118
0.0050003911317112355,1.119
0.004953625691929141,1.12
0.004908004959424104,1.121
0.004863539636721433,1.122
0.004820244869732846,1.123
0.004778139798279832,1.124
0.004737246839655131,1.125
0.004697590825897803,1.126
0.004659198028511131,1.127
0.004622095021894747,1.128
0.0045863073262402765,1.129
0.004551858126526757,1.13
0.0045187679300041335,1.131
0.004487055646323927,1.132
0.004456740366223874,1.133
0.004427842745143054,1.134
0.004400385435326952,1.135
0.004374392449253503,1.136
0.004349887663192154,1.137
0.0043268932230182255,1.138
0.004305428948549013,1.139
0.004285513039923202,1.14
0.0042671632018074805,1.141
0.004250397295380251,1.142
0.004235233355349695,1.143
0.004221689157299053,1.144
0.004209781546935044,1.145
0.004199525721358575,1.146
0.004190934612425951,1.147
0.004184018478873581,1.148
0.0041787847658181065,1.149
0.004175238227883429,1.15
0.004173381237027958,1.151
0.0041732141275126235,1.152
0.0041747353902324,1.153
0.004177941528447071,1.154
0.004182826576974111,1.155
0.0041893817723798795,1.156
0.004197596040394492,1.157
0.004207457338922981,1.158
0.004218954245573303,1.159
0.0042320772111851465,1.16
0.00424681920458785,1.161
0.00426317564306175,1.162
0.004281143585805957,1.163
0.0043007202492458445,1.164
0.004321901315832064,1.165
0.004344680172016919,1.166
0.004369048769410684,1.167
0.004394999345303063,1.168
0.0044225258437384585,1.169
0.004451624589089461,1.17
0.004482294222197455,1.171
0.004514535028096973,1.172
0.004548347860969653,1.173
0.004583732917355671,1.174
0.0046206886168286745,1.175
0.004659210794925639,1.176
0.004699292290191496,1.177
0.004740922860034639,1.178
0.004784089262564624,1.179
0.00482877533978001,1.18
0.0048749620114812795,1.181
0.004922627173622586,1.182
0.004971745535219233,1.183
0.005022288414246439,1.184
0.005074223468565616,1.185
0.005127514345817017,1.186
0.005182120411308793,1.187
0.005237996892419826,1.188
0.00529509560812738,1.189
0.0053533660892185015,1.19
0.005412756772538388,1.191
0.005473216021324332,1.192
0.005534692773447187,1.193
0.005597136677096589,1.194
0.005660497674022965,1.195
0.005724725099030264,1.196
0.005789766449034432,1.197
0.005855566028795586,1.198
0.005922063792409632,1.199
0.005989194798100198,1.2
0.006056889409765133,1.201
0.006125073927199188,1.202
0.006193671349813956,1.203
0.0062626022590791,1.204
0.00633178583239231,1.205
0.006401140855730721,1.206
0.006470586489344761,1.207
0.00654004252130967,1.208
0.006609428925170518,1.209
0.006678664687847125,1.21
0.006747666104579841,1.211
0.006816345143339209,1.212
0.006884608681949844,1.213
0.006952358689098269,1.214
0.0070194924120768895,1.215
0.0070859020534347695,1.216
0.007151474961305228,1.217
0.007216095577523946,1.218
0.007279648894291173,1.219
0.007342024219726409,1.22
0.007403118220671778,1.221
0.0074628364364231325,1.222
0.007521092608625231,1.223
0.007577805525230733,1.224
0.007632894702292045,1.225
0.0076862788416641814,1.226
0.00773787984264324,1.227
0.0077876301272676906,1.228
0.007835479169040508,1.229
0.007881397069573106,1.23
0.007925374576128416,1.231
0.00796741966417404,1.232
0.008007551456576448,1.233
0.008045793181864692,1.234
0.00808216719954104,1.235
0.008116694493130997,1.236
0.008149397637582177,1.237
0.008180304205350037,1.238
0.00820944879334487,1.239
0.008236873461342614,1.24
0.00826262684482911,1.241
0.008286762249968318,1.242
0.008309335072773925,1.243
0.008330399912898478,1.244
0.008350007761286358,1.245
0.00836820371344912,1.246
0.008385025662375027,1.247
0.00840050391617064,1.248
0.008414661234364719,1.249
0.008427513182855555,1.25
0.008439069006922519,1.251
0.008449332788402349,1.252
0.008458304392320466,1.253
0.00846597986764315,1.254
0.008472351120977705,1.255
0.008477404935572499,1.256
0.008481122044292695,1.257
0.008483477347982403,1.258
0.00848444155406308,1.259
0.008483983333913545,1.26
0.008482070976265821,1.261
0.008478673069822204,1.262
0.008473758146922491,1.263
0.008467293456357947,1.264
0.008459243196699504,1.265
0.008449566613636704,1.266
0.008438216476705269,1.267
0.008425138523881754,1.268
0.008410272090346926,1.269
0.008393551625975252,1.27
0.008374908856081971,1.271
0.008354275598765693,1.272
0.008331587133213606,1.273
0.008306785673237616,1.274
0.008279823212138538,1.275
0.00825066288007183,1.276
0.008219278059724108,1.277
0.008185648834093284,1.278
0.008149756947758156,1.279
0.008111583293125986,1.28
0.008071111103407325,1.281
0.008028332825933066,1.282
0.007983256303504545,1.283
0.00793590788453185,1.284
0.007886331977903838,1.285
0.007834587422825055,1.286
0.0077807416332997216,1.287
0.007724864222825004,1.288
0.007667022699706089,1.289
0.007607281879073658,1.29
0.007545705741497661,1.291
0.0074823592355829785,1.292
0.007417308905603674,1.293
0.0073506225422881434,1.294
0.00728236832900999,1.295
0.007212613868360355,1.296
0.00714142534612892,1.297
0.007068866966696046,1.298
0.006995000704165206,1.299
0.006919886367572344,1.3
0.006843581964304541,1.301
0.006766144334218356,1.302
0.00668762999244965,1.303
0.00660809605968073,1.304
0.006527601093073762,1.305
0.006446205583288163,1.306
0.0063639718781044905,1.307
0.006280963350627931,1.308
0.006197242745935996,1.309
0.006112870185119469,1.31
0.006027902247301594,1.311
0.005942393185657357,1.312
0.0058563975185141745,1.313
0.005769972523683055,1.314
0.005683179892636892,1.315
0.005596086365534512,1.316
0.005508763353995247,1.317
0.005421285699467286,1.318
0.00533372981640581,1.319
0.005246171522865641,1.32
0.005158684046928882,1.321
0.005071336978256385,1.322
0.00498419652396386,1.323
0.004897326464078404,1.324
0.004810789020475914,1.325
0.004724645394387731,1.326
0.004638956027661379,1.327
0.004553780659335111,1.328
0.004469178237076413,1.329
0.004385206732572431,1.33
0.00430192289897469,1.331
0.004219381994655469,1.332
0.004137637486193162,1.333
0.0040567407404500525,1.334
0.003976740719905506,1.335
0.0038976837048926532,1.336
0.003819613081802279,1.337
0.0037425692524183465,1.338
0.0036665897186170583,1.339
0.0035917093623090454,1.34
0.0035179608787702164,1.341
0.0034453752612721633,1.342
0.0033739822052814014,1.343
0.00330381031016225,1.344
0.0032348869950453796,1.345
0.003167238101512432,1.346
0.0031008873523245607,1.347
0.0030358561432994933,1.348
0.002972163988517696,1.349
0.0029098293185399215,1.35
0.0028488701147557404,1.351
0.002789304118110625,1.352
0.0027311485539262418,1.353
0.0026744195133192035,1.354
0.0026191314402510546,1.355
0.0025652971682419536,1.356
0.0025129284269129024,1.357
0.0024620363478877793,1.358
0.0024126316575881334,1.359
0.0023647245399951674,1.36
0.0023183242793500453,1.361
0.002273438818074971,1.362
0.002230074361857696,1.363
0.0021882351397927596,1.364
0.002147923344412714,1.365
0.0021091391649690236,1.366
0.002071880813484819,1.367
0.0020361445300614823,1.368
0.002001924614756051,1.369
0.0019692135102201687,1.37
0.001938001913579037,1.371
0.0019082788972501067,1.372
0.0018800320480870018,1.373
0.001853247645620758,1.374
0.0018279108886635057,1.375
0.0018040061588265044,1.376
0.0017815172922926118,1.377
0.0017604278238797465,1.378
0.0017407211672274604,1.379
0.0017223806992587175,1.38
0.001705389727674009,1.381
0.0016897313375923556,1.382
0.001675388133818465,1.383
0.0016623419151202744,1.384
0.0016505733443801386,1.385
0.0016400617014992488,1.386
0.0016307847682664528,1.387
0.0016227188270373435,1.388
0.0016158387530758346,1.389
0.0016101181805474006,1.39
0.0016055296607160737,1.391
0.001602044712504908,1.392
0.0015996337317729019,1.393
0.001598265821600779,1.394
0.0015979086598963508,1.395
0.0015985284662974675,1.396
0.001600090087399779,1.397
0.0016025572609742423,1.398
0.0016058930699104084,1.399
0.0016100604631272303,1.4
0.0016150226740339474,1.401
0.0016207434039365721,1.402
0.0016271867018633566,1.403
0.0016343165505895436,1.404
0.001642096311654348,1.405
0.0016504883681138175,1.406
0.0016594542063146781,1.407
0.0016689547662867947,1.408
0.00167895069402396,1.409
0.0016894022804262987,1.41
0.001700269132022275,1.411
0.0017115099168294845,1.412
0.0017230825409171853,1.413
0.0017349446809648839,1.414
0.0017470542988828942,1.415
0.0017593698940172441,1.416
0.0017718504642701741,1.417
0.0017844552492261453,1.418
0.00179714336215092,1.419
0.0018098734108346981,1.42
0.001822603169110272,1.421
0.0018352893096620416,1.422
0.0018478871780259756,1.423
0.0018603506404969389,1.424
0.0018726321422245838,1.425
0.00188468308134807,1.426
0.0018964544341609887,1.427
0.0019078974586307323,1.428
0.0019189642817762373,1.429
0.0019296081530140801,1.43
0.001939783146350698,1.431
0.001949443426839655,1.432
0.0019585429353273487,1.433
0.001967036381208769,1.434
0.0019748813272450158,1.435
0.0019820403988133647,1.436
0.0019884828585346446,1.437
0.0019941851383426493,1.438
0.0019991301396351385,1.439
0.0020033053413135355,1.44
0.0020067003772131684,1.441
0.002009305684246506,1.442
0.002011113336948837,1.443
0.0020121191990619897,1.444
0.002012324765173715,1.445
0.00201173791102948,1.446
0.002010372470977489,1.447
0.0020082468166368896,1.448
0.0020053818191549827,1.449
0.002001798932784624,1.45
0.001997519358751001,1.451
0.0019925645315514917,1.452
0.00198695709365534,1.453
0.0019807215216601295,1.454
0.0019738842389476845,1.455
0.0019664733618216137,1.456
0.001958518247284164,1.457
0.0019500489977664986,1.458
0.0019410960424886753,1.459
0.0019316898638366547,1.46
0.0019218608776563572,1.461
0.0019116394222874191,1.462
0.0019010557784858192,1.463
0.0018901401405258512,1.464
0.0018789224859223246,1.465
0.0018674323355195518,1.466
0.0018556984401598537,1.467
0.001843748458681038,1.468
0.0018316086938226187,1.469
0.0018193039256244518,1.47
0.001806857334774573,1.471
0.001794290474387179,1.472
0.0017816232872109145,1.473
0.0017688742512020495,1.474
0.0017560607236637704,1.475
0.0017431994198879375,1.476
0.0017303068542891774,1.477
0.0017173995532499394,1.478
0.0017044938923611687,1.479
0.0016916056504396018,1.48
0.0016787497744452883,1.481
0.0016659407535604737,1.482
0.001653193334630983,1.483
0.0016405230340938172,1.484
0.0016279462000728018,1.485
0.0016154796629418268,1.486
0.0016031401398393774,1.487
0.001590943610735592,1.488
0.0015789048563968286,1.489
0.0015670372582617402,1.49
0.0015553528535839699,1.491
0.0015438625654148708,1.492
0.0015325765046058165,1.493
0.0015215042560129699,1.494
0.0015106550909073327,1.495
0.0015000380784018867,1.496
0.0014896620959417215,1.497
0.0014795357615911705,1.498
0.0014696673262995388,1.499
0.0014600645662546288,1.5
0.001450734699925323,1.501
0.0014416843280873335,1.502
0.0014329193731807347,1.503
0.0014244449884267504,1.504
0.0014162654164498183,1.505
0.0014083838237964478,1.506
0.001400802220058055,1.507
0.0013935215555457442,1.508
0.0013865419478297219,1.509
0.0013798629112742715,1.51
0.0013734835117219367,1.511
0.001367402420139146,1.512
0.0013616178593550941,1.513
0.0013561274519054915,1.514
0.0013509280014780188,1.515
0.0013460152990096106,1.516
0.0013413840849020215,1.517
0.0013370282158095192,1.518
0.001332940958383232,1.519
0.0013291153264957352,1.52
0.0013255444363945426,1.521
0.0013222218639436336,1.522
0.0013191419680267924,1.523
0.0013163001313713234,1.524
0.0013136928713130993,1.525
0.0013113177870812053,1.526
0.00130917332978994,1.527
0.0013072584027089098,1.528
0.0013055718338464727,1.529
0.0013041118656039147,1.53
0.0013028759035859064,1.531
0.0013018605875546607,1.532
0.0013010619186462323,1.533
0.0013004752133587735,1.534
0.0013000950367227388,1.535
0.0012999154381002486,1.536
0.0012999305507805062,1.537
0.001300135309580023,1.538
0.0013005260141433406,1.539
0.0013011005798365543,1.54
0.001301858412596224,1.541
0.0013027999294401029,1.542
0.001303925850378712,1.543
0.0013052365513865707,1.544
0.0013067318422736419,1.545
0.0013084112354773806,1.546
0.0013102743767963241,1.547
0.0013123213233143577,1.548
0.001314552600032434,1.549
0.0013169690850121142,1.55
0.0013195717904520745,1.551
0.0013223616060451676,1.552
0.0013253390539165783,1.553
0.0013285040792494417,1.554
0.0013318558767427308,1.555
0.0013353927360748967,1.556
0.0013391119024719466,1.557
0.0013430095096690878,1.558
0.0013470806741764044,1.559
0.0013513197701951398,1.56
0.0013557208218036132,1.561
0.0013602779320631402,1.562
0.0013649856728460681,1.563
0.00136983935513492,1.564
0.0013748351095116274,1.565
0.0013799697450510961,1.566
0.001385240416774732,1.567
0.0013906441944964028,1.568
0.0013961776585166901,1.569
0.0014018366333294005,1.57
0.0014076161175889826,1.571
0.0014135104027793997,1.572
0.001419513323782098,1.573
0.0014256185701324372,1.574
0.0014318200005233274,1.575
0.001438111919342854,1.576
0.0014444892759784935,1.577
0.0014509477442206898,1.578
0.001457483648730339,1.579
0.0014640937316434254,1.58
0.0014707747822809405,1.581
0.001477523174112476,1.582
0.0014843344174809065,1.583
0.0014912029335997668,1.584
0.0014981221524866446,1.585
0.001505084773156305,1.586
0.0015120829765120102,1.587
0.0015191085223801237,1.588
0.0015261527292510415,1.589
0.0015332063332520068,1.59
0.0015402592477275537,1.591
0.0015473003564279834,1.592
0.0015543175802093152,1.593
0.0015612983402405283,1.594
0.0015682302942032235,1.595
0.001575102132504653,1.596
0.0015819042521930584,1.597
0.0015886291244996751,1.598
0.0015952711674712147,1.599
0.0016018260403943979,1.6
0.0016082897273120484,1.601
0.001614658310165869,1.602
0.0016209288978104486,1.603
0.0016271010403162592,1.604
0.0016331776758930485,1.605
0.001639165207218042,1.606
0.0016450727247156608,1.607
0.001650910677781906,1.608
0.0016566896719389114,1.609
0.0016624201082784886,1.61
0.0016681126734481258,1.611
0.0016737790072970332,1.612
0.0016794320410117888,1.613
0.001685085986776439,1.614
0.00169075614502065,1.615
0.0016964586755945353,1.616
0.001702210420457636,1.617
0.001708028801317919,1.618
0.0017139317709787996,1.619
0.001719937782173272,1.62
0.0017260657476014958,1.621
0.0017323349812907837,1.622
0.0017387651139438211,1.623
0.0017453759600064929,1.624
0.0017521872992308665,1.625
0.0017592185414969815,1.626
0.001766488300930195,1.627
0.0017740140357810367,1.628
0.0017818119691984631,1.629
0.0017898973069849474,1.63
0.0017982845179216876,1.631
0.001806987449318758,1.632
0.0018160192025194577,1.633
0.0018253918368307362,1.634
0.0018351161336234096,1.635
0.001845201653482466,1.636
0.001855657046732387,1.637
0.0018664903666209484,1.638
0.0018777091891903402,1.639
0.001889320475013275,1.64
0.0019013302289201562,1.641
0.001913743177423433,1.642
0.0019265627150673577,1.643
0.0019397911115827345,1.644
0.0019534297225261687,1.645
0.001967478993841253,1.646
0.0019819382479751213,1.647
0.00199680544411416,1.648
0.002012077212104637,1.649
0.0020277492745522613,1.65
0.0020438170808532415,1.651
0.0020602764329591483,1.652
0.0020771239896681497,1.653
0.002094357582159461,1.654
0.0021119762831322284,1.655
0.002129980196520829,1.656
0.002148369968072985,1.657
0.002167146052417571,1.658
0.0021863079341389717,1.659
0.0022058537640224827,1.66
0.002225780691200124,1.661
0.002246085578136206,1.662
0.002266765618094362,1.663
0.002287818647149379,1.664
0.0023092431113087373,1.665
0.0023310376948195936,1.666
0.0023532006582513104,1.667
0.002375729088894451,1.668
0.0023986185113676734,1.669
0.0024218631319072193,1.67
0.002445456425884661,1.671
0.0024693916296810205,1.672
0.00249366198308983,1.673
0.0025182607503192894,1.674
0.0025431810878175786,1.675
0.002568415841588262,1.676
0.002593957350057698,1.677
0.0026197973058720617,1.678
0.0026459266954101265,1.679
0.0026723357960605322,1.68
0.002699014181435779,1.681
0.002725950674015845,1.682
0.002753133194400901,1.683
0.0027805484801078847,1.684
0.002808181674923915,1.685
0.0028360158808620234,1.686
0.0028640319165397286,1.687
0.002892208455614093,1.688
0.002920522401995086,1.689
0.0029489492298271722,1.69
0.0029774631422572907,1.691
0.0030060370131763355,1.692
0.0030346421272662585,1.693
0.0030632477753128376,1.694
0.003091820841632752,1.695
0.0031203256204609332,1.696
0.003148723994416875,1.697
0.00317697583929187,1.698
0.003205039444149588,1.699
0.00323287183623843,1.7
0.003260428947355126,1.701
0.0032876655707678635,1.702
0.0033145351009070756,1.703
0.0033409891105106006,1.704
0.0033669768766246997,1.705
0.003392444992284279,1.706
0.0034173371830614643,1.707
0.0034415943933788166,1.708
0.0034651551357070248,1.709
0.0034879560285991386,1.71
0.0035099324017018835,1.711
0.0035310188204603393,1.712
0.0035511493773301454,1.713
0.003570257609745083,1.714
0.0035882759487878995,1.715
0.003605134921353897,1.716
0.0036207629128419297,1.717
0.0036350871557817304,1.718
0.003648035630284967,1.719
0.0036595391362185814,1.72
0.0036695330830597743,1.721
0.0036779586927086104,1.722
0.0036847632809489223,1.723
0.0036898993024146727,1.724
0.0036933222250581624,1.725
0.003694988541439794,1.726
0.0036948561646294635,1.727
0.00369288794627557,1.728
0.00368905651222557,1.729
0.003683348154597885,1.73
0.0036757645991443494,1.731
0.003666322294429692,1.732
0.0036550494212859376,1.733
0.003641981315532301,1.734
0.003627155801373368,1.735
0.003610610765505882,1.736
0.0035923849667582083,1.737
0.0035725203351920087,1.738
0.0035510636943658683,1.739
0.0035280674105976225,1.74
0.0035035892175122644,1.741
0.003477691470146257,1.742
0.00345044004043258,1.743
0.003421903010423806,1.744
0.0033921492780400464,1.745
0.003361247165465864,1.746
0.00332926322323186,1.747
0.0032962616388302413,1.748
0.0032623044729807728,1.749
0.003227452367800473,1.75
0.003191765209813864,1.751
0.003155302522638737,1.752
0.003118123561273498,1.753
0.0030802871397751174,1.754
0.003041851273910356,1.755
0.003002872755958001,1.756
0.002963406785442071,1.757
0.002923506751666745,1.758
0.0028832242099384874,1.759
0.0028426090323560105,1.76
0.0028017096665953803,1.761
0.0027605734148995263,1.762
0.0027192466508694315,1.763
0.0026777749160122126,1.764
0.002636202873296646,1.765
0.0025945741334989394,1.766
0.0025529310003311427,1.767
0.00251131418927975,1.768
0.00246976255897193,1.769
0.0024283128904600557,1.77
0.002386999788845916,1.771
0.0023458557681211886,1.772
0.0023049114618708794,1.773
0.002264195824102107,1.774
0.0022237362180820204,1.775
0.0021835583583114963,1.776
0.002143686182386476,1.777
0.0021041418620295752,1.778
0.002064946091273096,1.779
0.0020261185454787892,1.78
0.0019876783237405228,1.781
0.0019496442801987253,1.782
0.001912035215732515,1.783
0.0018748699263813806,1.784
0.001838167124813343,1.785
0.0018019452613518684,1.786
0.0017662222735729237,1.787
0.0017310152928937605,1.788
0.0016963403426531276,1.789
0.0016622121001417035,1.79
0.0016286438244566088,1.791
0.0015956474613602742,1.792
0.0015632337983254709,1.793
0.001531412542653147,1.794
0.0015001922848902416,1.795
0.0014695803936436496,1.796
0.001439582967875748,1.797
0.0014102049298649415,1.798
0.001381450179006853,1.799
0.001353321680591264,1.8
0.0013258214579089061,1.801
0.0012989505318247029,1.802
0.001272708874015065,1.803
0.0012470954326817083,1.804
0.0012221082624910243,1.805
0.001197744756691307,1.806
0.0011740019476212222,1.807
0.0011508768190891926,1.808
0.0011283665692851546,1.809
0.0011064687806582889,1.81
0.0010851814849178183,1.811
0.0010645031386835664,1.812
0.0010444325357442086,1.813
0.0010249686773855192,1.814
0.0010061106130312648,1.815
0.0009878572583255421,1.816
0.0009702072012644714,1.817
0.0009531585167429315,1.818
0.0009367086148741623,1.819
0.0009208541390877203,1.82
0.0009055909130521236,1.821
0.0008909139284874989,1.822
0.0008768173741354318,1.823
0.0008632947143903402,1.824
0.0008503388177142303,1.825
0.0008379421113098318,1.826
0.0008260967169745788,1.827
0.0008147945208924499,1.828
0.0008040271518610807,1.829
0.0007937858771113703,1.83
0.0007840614573172276,1.831
0.0007748440207196451,1.832
0.0007661229988384039,1.833
0.0007578871290603877,1.834
0.000750124536010422,1.835
0.0007428229222096944,1.836
0.0007359698569346854,1.837
0.0007295531003735673,1.838
0.0007235608888567474,1.839
0.0007179821156556309,1.84
0.0007128063660585779,1.841
0.0007080238069467135,1.842
0.0007036249744732249,1.843
0.0006996005325523521,1.844
0.0006959410793602446,1.845
0.0006926370566073793,1.846
0.0006896787761309234,1.847
0.0006870565397912132,1.848
0.0006847608081935777,1.849
0.0006827823731337863,1.85
0.0006811124988368864,1.851
0.0006797430081701019,1.852
0.0006786662957772651,1.853
0.0006778752506962433,1.854
0.0006773630747345333,1.855
0.0006771230071956427,1.856
0.0006771480467038946,1.857
0.0006774308368993634,1.858
0.0006779637779544426,1.859
0.0006787392226955114,1.86
0.0006797495914337286,1.861
0.0006809873476225841,1.862
0.0006824448444777729,1.863
0.0006841141284462664,1.864
0.0006859868652470756,1.865
0.0006880544620527102,1.866
0.0006903082624032122,1.867
0.0006927396667173229,1.868
0.0006953401524020485,1.869
0.0006981012433149571,1.87
0.0007010144908553477,1.871
0.0007040715125835234,1.872
0.0007072641005109192,1.873
0.0007105843790181488,1.874
0.0007140249743796286,1.875
0.0007175791545051184,1.876
0.0007212409032941951,1.877
0.0007250049061631564,1.878
0.0007288664420362133,1.879
0.000732821199675517,1.88
0.0007368650554036188,1.881
0.0007409938588079219,1.882
0.000745203271684844,1.883
0.0007494886947076871,1.884
0.0007538452971310894,1.885
0.0007582681386787949,1.886
0.0007627523443115701,1.887
0.0007672932714807864,1.888
0.0007718866059612604,1.889
0.0007765283381940832,1.89
0.0007812145996190772,1.891
0.0007859413932927765,1.892
0.0007907043511595452,1.893
0.0007954986738595276,1.894
0.000800319246224814,1.895
0.0008051607630473176,1.896
0.0008100177442121948,1.897
0.0008148844384937105,1.898
0.0008197546651910932,1.899
0.0008246216683983438,1.9
0.0008294780900258143,1.901
0.0008343161270076676,1.902
0.0008391278420727433,1.903
0.0008439055644864492,1.904
0.0008486423300256955,1.905
0.0008533322906124183,1.906
0.0008579709949534027,1.907
0.0008625554442824088,1.908
0.0008670838690890199,1.909
0.0008715552396965144,1.91
0.0008759686627368771,1.911
0.0008803229932781144,1.912
0.0008846168743360572,1.913
0.000888849014133087,1.914
0.0008930183820571041,1.915
0.0008971242094628075,1.916
0.0009011658310242505,1.917
0.0009051424177794138,1.918
0.0009090526917299589,1.919
0.0009128948114878433,1.92
0.0009166665623715369,1.921
0.0009203657526947163,1.922
0.0009239906323679013,1.923
0.0009275402359868416,1.924
0.0009310146099066178,1.925
0.0009344149029524118,1.926
0.0009377433251674118,1.927
0.0009410030015295636,1.928
0.0009441977623968309,1.929
0.0009473319132296392,1.93
0.000950410011097336,1.931
0.0009534366524733451,1.932
0.0009564162595622458,1.933
0.0009593528517736463,1.934
0.0009622498239359015,1.935
0.0009651098025723207,1.936
0.0009679346094093562,1.937
0.0009707252669816094,1.938
0.0009734820307417287,1.939
0.0009762045362125732,1.94
0.0009788920824338855,1.941
0.0009815439333733568,1.942
0.0009841594902806792,1.943
0.0009867382504508122,1.944
0.0009892795604837165,1.945
0.0009917823048901599,1.946
0.0009942447571040052,1.947
0.0009966646643666786,1.948
0.0009990393819664975,1.949
0.0010013658652983561,1.95
0.0010036405194065222,1.951
0.00100585905690123,1.952
0.0010080165126605384,1.953
0.0010101074146228646,1.954
0.001012126007065523,1.955
0.0010140664653614064,1.956
0.0010159230970683217,1.957
0.0010176905176676554,1.958
0.0010193637636531168,1.959
0.0010209382985752059,1.96
0.0010224098850281531,1.961
0.001023774325932086,1.962
0.0010250271267023844,1.963
0.001026163213300601,1.964
0.0010271768613112687,1.965
0.0010280618288391397,1.966
0.0010288115054895124,1.967
0.0010294189041216298,1.968
0.0010298765084634826,1.969
0.0010301762243578136,1.97
0.0010303096833672839,1.971
0.0010302688500661446,1.972
0.0010300467016125404,1.973
0.0010296378082318496,1.974
0.001029038709032471,1.975
0.0010282479972144405,1.976
0.001027266059198863,1.977
0.0010260944616043704,1.978
0.0010247351654252997,1.979
0.0010231900520413283,1.98
0.0010214611138700275,1.981
0.0010195510295803684,1.982
0.0010174635785329897,1.983
0.001015203638177888,1.984
0.0010127767865510042,1.985
0.0010101887069172658,1.986
0.001007444766394507,1.987
0.001004550037073016,1.988
0.001001509620651914,1.989
0.0009983289548390788,1.99
0.000995013960073624,1.991
0.000991571062267303,1.992
0.0009880071652310517,1.993
0.0009843296242119464,1.994
0.0009805462340559778,1.995
0.0009766652132220798,1.996
0.0009726951503891517,1.997
0.0009686448849304241,1.998
0.0009645233115906705,1.999
0.0009603391248620968,2.0
0.0009561005443585624,2.001
0.0009518150857605828,2.002
0.0009474894339332425,2.003
0.0009431294323923872,2.004
0.0009387401892236702,2.005
0.0009343262969863525,2.006
0.0009298921134674601,2.007
0.0009254420171408637,2.008
0.0009209805834017226,2.009
0.0009165126701768702,2.01
0.0009120434211927152,2.011
0.0009075781971189722,2.012
0.0009031224414868956,2.013
0.0008986814919143297,2.014
0.0008942603568243793,2.015
0.0008898634985245117,2.016
0.0008854946946523764,2.017
0.0008811570293315453,2.018
0.0008768529743435144,2.019
0.0008725844696682268,2.02
0.000868352949231137,2.021
0.0008641593070466302,2.022
0.0008600038223858699,2.023
0.00085588607470851,2.024
0.0008518048891932772,2.025
0.0008477583523021774,2.026
0.0008437439146151193,2.027
0.0008397585774933191,2.028
0.0008357991593287067,2.029
0.0008318626360067612,2.03
0.0008279465325230713,2.031
0.0008240493171534526,2.032
0.0008201707294835293,2.033
0.0008163119694628029,2.034
0.0008124756921962738,2.035
0.0008086657904439661,2.036
0.0008048869935863752,2.037
0.0008011443519370353,2.038
0.0007974427417438505,2.039
0.0007937865961754034,2.04
0.0007901799394271651,2.041
0.0007866265445412776,2.042
0.0007831300095622657,2.043
0.0007796937043800871,2.044
0.0007763206269876535,2.045
0.0007730132419360156,2.046
0.0007697733956869489,2.047
0.0007666023390263197,2.048
0.0007635007902038078,2.049
0.0007604689836284943,2.05
0.0007575067223443506,2.051
0.0007546134725719675,2.052
0.0007517885099309731,2.053
0.000749031091400139,2.054
0.0007463406071210087,2.055
0.0007437166719347035,2.056
0.0007411591405167879,2.057
0.0007386680573017707,2.058
0.000736243573812801,2.059
0.000733885878007186,2.06
0.0007315951787232938,2.061
0.0007293717702408332,2.062
0.0007272161709096264,2.063
0.0007251292962171047,2.064
0.0007231126050986934,2.065
0.0007211681616698863,2.066
0.0007192985838658629,2.067
0.0007175068912711039,2.068
0.0007157962983141699,2.069
0.0007141700151913258,2.07
0.0007126311129594425,2.071
0.0007111824812626106,2.072
0.0007098268679492589,2.073
0.000708566960075619,2.074
0.0007074054590426045,2.075
0.000706345113785236,2.076
0.0007053886928853656,2.077
0.0007045388951946071,2.078
0.0007037982183534881,2.079
0.0007031688181356285,2.08
0.000702652391367839,2.081
0.0007022501034662831,2.082
0.0007019625657771568,2.083
0.0007017898530273281,2.084
0.0007017315418616524,2.085
0.0007017867536056537,2.086
0.0007019541979228316,2.087
0.0007022322269928255,2.088
0.0007026189086716194,2.089
0.0007031121123625509,2.09
0.0007037095873927955,2.091
0.0007044090135658546,2.092
0.0007052080175017187,2.093
0.00070610416605529,2.094
0.0007070949584585741,2.095
0.0007081778367907389,2.096
0.0007093502214714216,2.097
0.0007106095616391566,2.098
0.0007119533799037568,2.099
0.0007133792947672052,2.1
0.0007148850179866909,2.101
0.0007164683321141879,2.102
0.0007181270440397351,2.103
0.0007198588943451649,2.104
0.000721661403312578,2.105
0.0007235316825254737,2.106
0.000725466304725936,2.107
0.0007274612737144513,2.108
0.000729512027745105,2.109
0.000731613462354622,2.11
0.000733760050979883,2.111
0.0007359460623675624,2.112
0.0007381657715650011,2.113
0.0007404135787981204,2.114
0.0007426840083434576,2.115
0.0007449715949757696,2.116
0.0007472706878939033,2.117
0.0007495752291501065,2.118
0.000751878580409704,2.119
0.0007541734449118848,2.12
0.0007564519072641405,2.121
0.0007587056187511819,2.122
0.000760926119938281,2.123
0.000763105232657383,2.124
0.0007652354401957005,2.125
0.0007673101941096511,2.126
0.0007693241100451876,2.127
0.0007712730377142825,2.128
0.0007731540089680824,2.129
0.0007749650822110123,2.13
0.0007767051104180966,2.131
0.000778373463964085,2.132
0.0007799697412636766,2.133
0.0007814935024428851,2.134
0.0007829440603916264,2.135
0.000784320350426429,2.136
0.0007856208709209849,2.137
0.0007868436539341958,2.138
0.0007879862183089083,2.139
0.0007890455228722498,2.14
0.0007900180263547753,2.141
0.0007908999194278226,2.142
0.0007916874473667627,2.143
0.0007923771832301269,2.144
0.0007929661551004442,2.145
0.0007934517743901773,2.146
0.0007938315733816824,2.147
0.0007941029196806453,2.148
0.0007942630031335551,2.149
0.0007943092060584574,2.15
0.0007942396432810266,2.151
0.0007940536209536214,2.152
0.0007937519295944134,2.153
0.0007933369788509796,2.154
0.0007928127914598379,2.155
0.0007921848624821116,2.156
0.000791459878590312,2.157
0.0007906453007878492,2.158
0.0007897488564381222,2.159
0.0007887780807424228,2.16
0.0007877400980238231,2.161
0.0007866416627400825,2.162
0.0007854892500649996,2.163
0.0007842890152567094,2.164
0.0007830466556005928,2.165
0.0007817673550412306,2.166
0.0007804559231479786,2.167
0.000779117042896369,2.168
0.0007777554816091041,2.169
0.0007763761986306593,2.17
0.0007749843373148582,2.171
0.0007735851108655031,2.172
0.0007721836135669565,2.173
0.0007707846025246648,2.174
0.0007693923045683775,2.175
0.0007680103066931354,2.176
0.0007666415485350021,2.177
0.0007652883708764545,2.178
0.0007639525649589561,2.179
0.0007626354005637286,2.18
0.0007613376248978977,2.181
0.0007600594265223479,2.182
0.000758800392379114,2.183
0.0007575595414823648,2.184
0.0007563355019486965,2.185
0.0007551268012377969,2.186
0.0007539321823875647,2.187
0.0007527508698949528,2.188
0.0007515827360369072,2.189
0.0007504283541177474,2.19
0.0007492889665305765,2.191
0.0007481664242039019,2.192
0.0007470631588970381,2.193
0.0007459822282630012,2.194
0.0007449274313213377,2.195
0.0007439034456969251,2.196
0.0007429159121282953,2.197
0.0007419714028418432,2.198
0.0007410772520860751,2.199
0.0007402412754740676,2.2
0.0007394714383274911,2.201
0.0007387755425372412,2.202
0.0007381609851872634,2.203
0.0007376346075422691,2.204
0.0007372026179951355,2.205
0.0007368705558162612,2.206
0.0007366432693656055,2.207
0.0007365249024404299,2.208
0.0007365188981289882,2.209
0.0007366280293997746,2.21
0.0007368544528740409,2.211
0.0007371997693293333,2.212
0.0007376650696628957,2.213
0.0007382509483168285,2.214
0.0007389574766412568,2.215
0.000739784145993209,2.216
0.0007407298080972433,2.217
0.0007417926468633061,2.218
0.0007429702052654406,2.219
0.0007442594675410881,2.22
0.0007456569723664234,2.221
0.0007471589189513799,2.222
0.000748761233453221,2.223
0.000750459588674796,2.224
0.0007522494053004303,2.225
0.0007541258871082765,2.226
0.0007560841374456475,2.227
0.0007581193700589276,2.228
0.0007602271841270434,2.229
0.0007624038453376984,2.23
0.0007646465127961431,2.231
0.0007669533668047649,2.232
0.0007693236085722815,2.233
0.0007717573143719371,2.234
0.0007742551446306094,2.235
0.0007768179427204402,2.236
0.0007794463245119563,2.237
0.0007821404134400059,2.238
0.0007848997735124276,2.239
0.0007877234122643954,2.24
0.0007906097580496502,2.241
0.0007935566915665571,2.242
0.0007965617109960924,2.243
0.0007996221651280894,2.244
0.0008027354396907838,2.245
0.0008058990389279522,2.246
0.0008091105554870858,2.247
0.00081236754784072,2.248
0.0008156673598101515,2.249
0.0008190069206988191,2.25
0.0008223825706389597,2.251
0.0008257899674202087,2.252
0.0008292241003623036,2.253
0.0008326793652892028,2.254
0.0008361496272184662,2.255
0.0008396282234204572,2.256
0.0008431079031619554,2.257
0.000846580767549613,2.258
0.0008500383017417656,2.259
0.0008534715204319399,2.26
0.0008568711737847485,2.261
0.0008602279726851002,2.262
0.0008635328266387667,2.263
0.0008667770888843273,2.264
0.0008699527914566765,2.265
0.000873052849850477,2.266
0.000876071223131706,2.267
0.0008790030222101411,2.268
0.0008818445596134695,2.269
0.0008845933309275949,2.27
0.0008872479178004961,2.271
0.0008898078070695301,2.272
0.0008922731275616496,2.273
0.0008946443147722112,2.274
0.0008969217276530863,2.275
0.0008991052980544585,2.276
0.0009011943658785906,2.277
0.0009031877692138308,2.278
0.0009050840660817381,2.279
0.0009068817386791778,2.28
0.0009085793348141603,2.281
0.000910175540505978,2.282
0.0009116691661153021,2.283
0.0009130590282537081,2.284
0.0009143437291688696,2.285
0.0009155213948419145,2.286
0.000916589510056556,2.287
0.0009175449438432548,2.288
0.0009183841038978815,2.289
0.0009191031178976675,2.29
0.0009196980226574355,2.291
0.000920164984094276,2.292
0.0009205005506522068,2.293
0.0009207019137341144,2.294
0.0009207671334364906,2.295
0.0009206952930442657,2.296
0.000920486566150916,2.297
0.0009201422030618806,2.298
0.00091966445576381,2.299
0.0009190564570273427,2.3
0.00091832205317885,2.301
0.0009174655760571432,2.302
0.0009164915429671181,2.303
0.0009154043034543356,2.304
0.0009142077223677536,2.305
0.0009129050386082334,2.306
0.0009114989353164114,2.307
0.0009099916968995912,2.308
0.0009083853364412268,2.309
0.0009066816812528446,2.31
0.0009048824389863402,2.311
0.0009029892497574069,2.312
0.0009010037085820423,2.313
0.0008989273250863524,2.314
0.0008967613833483514,2.315
0.0008945067329996298,2.316
0.0008921636850716276,2.317
0.0008897321684729314,2.318
0.0008872120731712503,2.319
0.0008846035945086791,2.32
0.0008819074814945187,2.321
0.0008791251782558336,2.322
0.0008762588825918612,2.323
0.0008733115615807504,2.324
0.0008702869565076979,2.325
0.0008671895804469789,2.326
0.0008640246807751159,2.327
0.0008607981273978171,2.328
0.0008575162045584783,2.329
0.0008541853209024916,2.33
0.0008508116895552961,2.331
0.0008474010507419293,2.332
0.0008439585074598635,2.333
0.0008404885216243632,2.334
0.0008369950794989949,2.335
0.0008334819894372644,2.336
0.0008299532350056752,2.337
0.0008264132879349267,2.338
0.0008228672963793193,2.339
0.0008193210992538714,2.34
0.0008157810633258741,2.341
0.0008122537834852462,2.342
0.0008087457216022462,2.343
0.0008052628923305243,2.344
0.0008018107025858514,2.345
0.0007983939497324478,2.346
0.0007950168724772868,2.347
0.0007916831752112744,2.348
0.0007883960336800227,2.349
0.0007851581140001434,2.35
0.0007819716168840458,2.351
0.0007788383317720563,2.352
0.0007757596624246265,2.353
0.0007727365839175224,2.354
0.0007697695534575997,2.355
0.000766858499950788,2.356
0.0007640029896880331,2.357
0.0007612025050496399,2.358
0.0007584567087934742,2.359
0.0007557656247846541,2.36
0.0007531297164261699,2.361
0.0007505498717337633,2.362
0.0007480273272209957,2.363
0.0007455635717556653,2.364
0.000743160263385252,2.365
0.0007408191736863701,2.366
0.000738542158614961,2.367
0.0007363311503579231,2.368
0.0007341881673040693,2.369
0.0007321153402720904,2.37
0.0007301149505413977,2.371
0.0007281894717767927,2.372
0.0007263416029806308,2.373
0.0007245742720684011,2.374
0.0007228905869460043,2.375
0.0007212937242917014,2.376
0.0007197867741744163,2.377
0.0007183725826369727,2.378
0.0007170536350292237,2.379
0.0007158319983096452,2.38
0.0007147093084379201,2.381
0.0007136867719480772,2.382
0.0007127651587955354,2.383
0.0007119447882950202,2.384
0.0007112255323986161,2.385
0.0007106068644240187,2.386
0.0007100879653003878,2.387
0.0007096678769603102,2.388
0.000709345677368475,2.389
0.0007091206476240794,2.39
0.000708992406900325,2.391
0.0007089610034162161,2.392
0.0007090269635481072,2.393
0.000709191306411354,2.394
0.0007094555220717821,2.395
0.0007098214974359352,2.396
0.0007102913730459558,2.397
0.0007108673334073573,2.398
0.000711551361500939,2.399
0.000712345011880976,2.4
0.0007132492580745934,2.401
0.0007142644272165337,2.402
0.000715390190669884,2.403
0.0007166255879741479,2.404
0.000717969077722604,2.405
0.0007194185967511454,2.406
0.0007209716038716539,2.407
0.0007226250947575701,2.408
0.0007243755849211927,2.409
0.0007262190683689029,2.41
0.0007281509711129611,2.411
0.0007301661282937699,2.412
0.0007322588176101057,2.413
0.0007344228740203303,2.414
0.0007366518891144146,2.415
0.0007389394723538756,2.416
0.0007412795355687971,2.417
0.0007436665628373001,2.418
0.0007460958373615285,2.419
0.0007485636050109082,2.42
0.0007510671594760824,2.421
0.0007536048401198059,2.422
0.0007561759409152138,2.423
0.0007587805358805068,2.424
0.000761419234951028,2.425
0.0007640928957632114,2.426
0.0007668023257944804,2.427
0.0007695480104285025,2.428
0.0007723299137765366,2.429
0.0007751474154486716,2.43
0.000777999401875556,2.431
0.000780884443771951,2.432
0.0007838009642673129,2.433
0.0007867473258370232,2.434
0.0007897217856801316,2.435
0.000792722329068863,2.436
0.0007957465090889004,2.437
0.0007987914540470249,2.438
0.0008018540476697236,2.439
0.0008049311417046137,2.44
0.0008080196983080547,2.441
0.0008111168554689405,2.442
0.0008142199399787473,2.443
0.0008173264436082291,2.444
0.0008204339652121872,2.445
0.0008235401150502919,2.446
0.0008266423822678791,2.447
0.0008297379806632276,2.448
0.0008328237044742488,2.449
0.0008358958349527457,2.45
0.0008389501325683647,2.451
0.0008419819287636425,2.452
0.0008449863030550525,2.453
0.0008479583078888486,2.454
0.0008508931946513998,2.455
0.0008537866011559943,2.456
0.0008566346776329082,2.457
0.0008594341465488596,2.458
0.0008621823056701976,2.459
0.0008648769915406545,2.46
0.000867516523598624,2.461
0.0008700996503275764,2.462
0.0008726255168471352,2.463
0.0008750936627909974,2.464
0.0008775040401530963,2.465
0.0008798570244078557,2.466
0.00088215339117168,2.467
0.0008843942440802574,2.468
0.0008865808938135281,2.469
0.0008887146916000447,2.47
0.0008907968142009549,2.471
0.0008928280268334804,2.472
0.0008948085427040382,2.473
0.0008967381100877258,2.474
0.0008986163003573057,2.475
0.0009004428408425322,2.476
0.0009022178607447941,2.477
0.0009039419837387253,2.478
0.0009056162406291165,2.479
0.0009072418144294141,2.48
0.000908819689468348,2.481
0.0009103503511267405,2.482
0.000911833675923351,2.483
0.0009132689981461041,2.484
0.000914655216269326,2.485
0.0009159908574375206,2.486
0.0009172741193416844,2.487
0.0009185029319708634,2.488
0.0009196750595974587,2.489
0.0009207882377376901,2.49
0.0009218403243276377,2.491
0.0009228294449679245,2.492
0.0009237541210215968,2.493
0.000924613373714407,2.494
0.0009254067933199626,2.495
0.0009261345567236023,2.496
0.0009267973766578508,2.497
0.0009273963746030752,2.498
0.0009279328882170296,2.499
0.000928408252472058,2.5
0.0009288236203883191,2.501
0.0009291798935759721,2.502
0.000929477801260511,2.503
0.000929718109473613,2.504
0.0009299018902571396,2.505
0.0009300307614850013,2.506
0.0009301070243662472,2.507
0.0009301336586307156,2.508
0.0009301141639536839,2.509
0.0009300522545950606,2.51
0.0009299514762648876,2.511
0.0009298149405538082,2.512
0.0009296453533144879,2.513
0.0009294452544167852,2.514
0.0009292172134963294,2.515
0.0009289638154076981,2.516
0.0009286874469177996,2.517
0.0009283900687636576,2.518
0.0009280732147602024,2.519
0.0009277382603993623,2.52
0.0009273867658782558,2.521
0.00092702070182996,2.522
0.0009266424932261085,2.523
0.0009262548894174908,2.524
0.0009258607008694077,2.525
0.0009254624690242614,2.526
0.0009250621611376565,2.527
0.00092466098164817,2.528
0.0009242593133182108,2.529
0.0009238567356300944,2.53
0.0009234521117505883,2.531
0.0009230437583129564,2.532
0.0009226296574416618,2.533
0.0009222076554767311,2.534
0.0009217756254756576,2.535
0.0009213315889326264,2.536
0.0009208737959571325,2.537
0.0009204007688094489,2.538
0.0009199113212172637,2.539
0.0009194045677734775,2.54
0.0009188799298789088,2.541
0.0009183371304084488,2.542
0.0009177761565310492,2.543
0.0009171971672520164,2.544
0.0009166003325043584,2.545
0.0009159856090047777,2.546
0.0009153524930988276,2.547
0.0009146998459716594,2.548
0.0009140258809570951,2.549
0.0009133282898278254,2.55
0.0009126043996723012,2.551
0.0009118512833348149,2.552
0.0009110658022231477,2.553
0.0009102445759210813,2.554
0.0009093838755923363,2.555
0.0009084794620044573,2.556
0.0009075264462446274,2.557
0.0009065192747613976,2.558
0.000905451854965142,2.559
0.000904317737039678,2.56
0.0009031102702521235,2.561
0.0009018227015870406,2.562
0.0009004482086312655,2.563
0.0008989798750654346,2.564
0.0008974106392897538,2.565
0.0008957332628053413,2.566
0.0008939403676461125,2.567
0.0008920245801309209,2.568
0.0008899787922202773,2.569
0.000887796515986508,2.57
0.000885472271415359,2.571
0.0008830019269678858,2.572
0.0008803829187274012,2.573
0.0008776143106042593,2.574
0.0008746967086640068,2.575
0.0008716320773181378,2.576
0.0008684235057894194,2.577
0.000865074947899868,2.578
0.0008615909280299904,2.579
0.0008579761899695174,2.58
0.0008542353199986536,2.581
0.0008503725098046365,2.582
0.000846391620387621,2.583
0.0008422964727076853,2.584
0.0008380911342195267,2.585
0.0008337800442349504,2.586
0.0008293679400298001,2.587
0.0008248596131177442,2.588
0.0008202595905931531,2.589
0.0008155718989806038,2.59
0.000810800005338543,2.591
0.0008059468452674562,2.592
0.0008010148072127138,2.593
0.0007960057202212849,2.594
0.00079092097007291,2.595
0.0007857617136405482,2.596
0.0007805290349597213,2.597
0.00077522392327698,2.598
0.0007698471053507176,2.599
0.0007643989772148648,2.6
0.0007588798725633578,2.601
0.0007532906025216648,2.602
0.0007476330294139952,2.603
0.0007419105207451588,2.604
0.0007361282194780646,2.605
0.0007302930959605157,2.606
0.0007244137681423428,2.607
0.0007185001074871888,2.608
0.0007125626916628929,2.609
0.0007066122341727912,2.61
0.0007006591845396378,2.611
0.0006947135993233171,2.612
0.0006887851531278717,2.613
0.0006828831150743583,2.614
0.0006770163298353954,2.615
0.0006711933507543759,2.616
0.0006654227291464384,2.617
0.0006597133337787607,2.618
0.0006540746004193217,2.619
0.0006485166765477764,2.62
0.0006430504592057406,2.621
0.0006376875417672819,2.622
0.0006324400977513965,2.623
0.0006273207323246053,2.624
0.0006223423214149799,2.625
0.0006175178410824434,2.626
0.0006128601801650642,2.627
0.0006083819496441973,2.628
0.0006040953487854551,2.629
0.0006000121395716421,2.63
0.0005961436891035543,2.631
0.0005925009860777732,2.632
0.000589094601191724,2.633
0.0005859346639729908,2.634
0.0005830309343728997,2.635
0.000580392946865583,2.636
0.000578030141502256,2.637
0.0005759519235131404,2.638
0.0005741676369666561,2.639
0.000572686465754809,2.64
0.0005715172956874167,2.641
0.0005706685863966327,2.642
0.0005701482951378004,2.643
0.000569963863548882,2.644
0.0005701222616680081,2.645
0.0005706300845137365,2.646
0.0005714936852205384,2.647
0.0005727193248852246,2.648
0.0005743133360557363,2.649
0.0005762823059457338,2.65
0.0005786332780399804,2.651
0.0005813739573060987,2.652
0.0005845128909704536,2.653
0.0005880595874614633,2.654
0.0005920245369945163,2.655
0.0005964191148457432,2.656
0.000601255379057,2.657
0.0006065458026184016,2.658
0.0006123029922151786,2.659
0.0006185394412280494,2.66
0.000625267351943505,2.661
0.0006324985459491692,2.662
0.0006402444642267987,2.663
0.0006485162427087071,2.664
0.0006573248381836547,2.665
0.0006666811741133507,2.666
0.0006765962772117708,2.667
0.0006870813853587087,2.668
0.0006981480225279706,2.669
0.0007098080478057051,2.67
0.000722073685956921,2.671
0.0007349575381848004,2.672
0.0007484725626683249,2.673
0.0007626320132246016,2.674
0.0007774493320367159,2.675
0.0007929380021002981,2.676
0.000809111368728142,2.677
0.0008259824370929132,2.678
0.0008435636757378794,2.679
0.0008618669036784918,2.68
0.0008809033037714913,2.681
0.0009006834905109953,2.682
0.0009212175331175745,2.683
0.0009425149014493893,2.684
0.0009645843623274648,2.685
0.0009874338989823569,2.686
0.0010110707229206034,2.687
0.0010355013751941814,2.688
0.0010607318649357568,2.689
0.0010867678066778868,2.69
0.0011136145337394229,2.691
0.0011412771603714702,2.692
0.0011697605661316938,2.693
0.0011990692959024773,2.694
0.0012292074014138394,2.695
0.0012601782766413282,2.696
0.001291984543244139,2.697
0.0013246280218272757,2.698
0.0013581097942936776,2.699
0.0013924303378292776,2.7
0.0014275896976176233,2.701
0.0014635876596507807,2.702
0.0015004238846799962,2.703
0.0015380979726559725,2.704
0.0015766094457810751,2.705
0.0016159576606290245,2.706
0.001656141673332999,2.707
0.0016971600796500603,2.708
0.0017390108396527614,2.709
0.0017816910893416298,2.71
0.0018251969465666244,2.711
0.0018695233282316145,2.712
0.0019146637959923185,2.713
0.0019606104351502797,2.714
0.002007353754885104,2.715
0.0020548825881680725,2.716
0.002103183980186098,2.717
0.002152243093819427,2.718
0.0022020431875763124,2.719
0.00225256567778651,2.72
0.002303790225108218,2.721
0.0023556947652479355,2.722
0.0024082554280058658,2.723
0.0024614463661954663,2.724
0.00251523964301978,2.725
0.0025696053086949884,2.726
0.002624511597461285,2.727
0.0026799250806843634,2.728
0.002735810688700807,2.729
0.002792131592267401,2.73
0.002848848973663925,2.731
0.002905921749438244,2.732
0.002963306330209349,2.733
0.0030209565068979654,2.734
0.00307882352853292,2.735
0.00313685639002665,2.736
0.003195002298846928,2.737
0.0032532072556767776,2.738
0.003311416667526464,2.739
0.003369575901764137,2.74
0.003427630682438974,2.741
0.0034855272358415524,2.742
0.0035432121209142517,2.743
0.003600631730109063,2.744
0.0036577315036803336,2.745
0.0037144550073821554,2.746
0.003770743217470946,2.747
0.0038265343679157967,2.748
0.003881764313915687,2.749
0.003936366995612184,2.75
0.003990274660556949,2.751
0.004043417748132921,2.752
0.004095724473272926,2.753
0.004147120226196271,2.754
0.004197526980220701,2.755
0.004246862911839259,2.756
0.004295042368260587,2.757
0.004341976274897611,2.758
0.004387573046669511,2.759
0.0044317399316616945,2.76
0.0044743845478878745,2.761
0.0045154162745582515,2.762
0.004554747104608584,2.763
0.004592291559447225,2.764
0.004627965421964245,2.765
0.004661683956057997,2.766
0.004693361659349096,2.767
0.004722914973368873,2.768
0.004750266804216963,2.769
0.0047753506690231574,2.77
0.004798113142404131,2.771
0.004818514062821416,2.772
0.004836524476670643,2.773
0.00485212281714774,2.774
0.004865290421320307,2.775
0.004876008214669564,2.776
0.004884256042277375,2.777
0.004890014206120794,2.778
0.004893265536374556,2.779
0.004893997022761205,2.78
0.004892201006562329,2.781
0.004887876130725202,2.782
0.004881028091204768,2.783
0.004871670059739878,2.784
0.004859822510114858,2.785
0.004845512115449848,2.786
0.0048287694228134,2.787
0.004809625874032042,2.788
0.004788112474173257,2.789
0.004764262015927239,2.79
0.004738113668537647,2.791
0.00470971723993987,2.792
0.004679135489796064,2.793
0.004646443971852833,2.794
0.004611728509961607,2.795
0.004575080957564253,2.796
0.004536594685223424,2.797
0.004496362021842544,2.798
0.004454474635759921,2.799
0.004411025248767839,2.8
0.004366108720742502,2.801
0.004319822044244028,2.802
0.004272263566376111,2.803
0.004223531787708798,2.804
0.004173724032659342,2.805
0.00412293524762219,2.806
0.004071257210978137,2.807
0.004018778332655206,2.808
0.003965583869800156,2.809
0.003911756177785865,2.81
0.0038573747825575446,2.811
0.0038025162899006275,2.812
0.0037472542233814043,2.813
0.00369165887615071,2.814
0.003635797235159984,2.815
0.003579733003763828,2.816
0.0035235267215908816,2.817
0.0034672359622354614,2.818
0.003410915576232121,2.819
0.00335461793458209,2.82
0.0032983931194933594,2.821
0.0032422890141687753,2.822
0.003186351269343444,2.823
0.0031306231648363463,2.824
0.00307514542325841,2.825
0.003019956053574161,2.826
0.0029650902966017597,2.827
0.0029105807169485607,2.828
0.0028564574482775732,2.829
0.0028027485627776937,2.83
0.0027494805081463122,2.831
0.00269667854023436,2.832
0.0026443670779920277,2.833
0.0025925699143780003,2.834
0.0025413102261763677,2.835
0.002490610343615473,2.836
0.0024404913203940905,2.837
0.0023909725285462015,2.838
0.0023420715739143846,2.839
0.002293804534666021,2.84
0.002246186193217842,2.841
0.0021992299966690923,2.842
0.002152947820471022,2.843
0.00210734987692379,2.844
0.0020624449800763864,2.845
0.002018240983031452,2.846
0.0019747451061766026,2.847
0.0019319640720985617,2.848
0.0018899040860016975,2.849
0.0018485707229409334,2.85
0.0018079687852727768,2.851
0.0017681021811430013,2.852
0.0017289738516377221,2.853
0.0016905857471481843,2.854
0.0016529388333711651,2.855
0.0016160331032909194,2.856
0.001579867583435474,2.857
0.0015444403413452659,2.858
0.0015097485144199673,2.859
0.0014757883797979693,2.86
0.001442555469984084,2.861
0.0014100447166424373,2.862
0.001378250586493652,2.863
0.0013471671678922561,2.864
0.0013167881756364402,2.865
0.0012871068584657933,2.866
0.0012581158130049875,2.867
0.0012298067641255258,2.868
0.0012021704538666277,2.869
0.001175196725072235,2.87
0.001148874704268867,2.871
0.0011231929417455074,2.872
0.0010981394623553035,2.873
0.001073701740419723,2.874
0.0010498666217582694,2.875
0.001026620219517762,2.876
0.0010039478112893513,2.877
0.0009818337638155862,2.878
0.0009602615076185892,2.879
0.0009392135693473871,2.88
0.0009186716591552983,2.881
0.0008986168248166713,2.882
0.0008790296986335962,2.883
0.0008598908484989501,2.884
0.0008411812097805888,2.885
0.0008228825382219212,2.886
0.0008049777999227694,2.887
0.0007874514152228181,2.888
0.0007702893040093342,2.889
0.0007534787326058281,2.89
0.0007370080184591614,2.891
0.0007208661895515298,2.892
0.0007050427061634581,2.893
0.0006895273234120502,2.894
0.0006743101085736027,2.895
0.0006593815551933993,2.896
0.0006447326932263696,2.897
0.0006303550985983228,2.898
0.0006162407431314969,2.899
0.0006023817165930146,2.9
0.0005887700143962749,2.901
0.0005753976188639505,2.902
0.0005622568542683283,2.903
0.0005493407587291793,2.904
0.0005366432501949307,2.905
0.000524159013093238,2.906
0.0005118831624433073,2.907
0.0004998108974492219,2.908
0.00048793741239634827,2.909
0.0004762581059881364,2.91
0.00046476886517586336,2.911
0.00045346622756843,2.912
0.00044234739885467487,2.913
0.0004314101840597472,2.914
0.0004206529024046752,2.915
0.0004100743437708052,2.916
0.00039967379667930046,2.917
0.00038945114715877667,2.918
0.0003794070248202024,2.919
0.00036954295546940286,2.92
0.0003598614656601371,2.921
0.00035036608251960173,2.922
0.00034106119609051414,2.923
0.0003319518000833634,2.924
0.0003230431772769396,2.925
0.00031434061954908627,2.926
0.0003058492564460664,2.927
0.0002975740191023448,2.928
0.0002895197124537541,2.929
0.0002816911351268944,2.93
0.00027409318872398695,2.931
0.00026673095015811507,2.932
0.00025960971849633144,2.933
0.00025273506856164646,2.934
0.0002461129392305908,2.935
0.00023974976141265445,2.936
0.0002336526028569214,2.937
0.0002278292879235057,2.938
0.00022228844886783042,2.939
0.00021703948156710112,2.94
0.00021209240476535333,2.941
0.00020745764593375687,2.942
0.00020314580581518683,2.943
0.00019916748515962657,2.944
0.00019553321836514353,2.945
0.00019225347162340564,2.946
0.0001893386950796272,2.947
0.00018679950646588754,2.948
0.00018464701970225442,2.949
0.0001828932038454612,2.95
0.0001815511365359245,2.951
0.00018063507194361047,2.952
0.000180160307265841,2.953
0.00018014288661528073,2.954
0.00018059924592308274,2.955
0.00018154596906824454,2.956
0.0001829997604168463,2.957
0.00018497754416629933,2.958
0.00018749652310141925,2.959
0.00019057411978955875,2.96
0.00019422784221626675,2.961
0.00019847520590521173,2.962
0.00020333380439017406,2.963
0.00020882146498227354,2.964
0.00021495638153934307,2.965
0.00022175719765192488,2.966
0.0002292430680139182,2.967
0.00023743372514854635,2.968
0.00024634955653051534,2.969
0.0002560116714457575,2.97
0.0002664419262016543,2.971
0.0002776628882980126,2.972
0.0002896977463071471,2.973
0.00030257019558549566,2.974
0.0003163043404430568,2.975
0.00033092465217821114,2.976
0.00034645601202757954,2.977
0.0003629238471957355,2.978
0.00038035433948179924,2.979
0.0003987746617271138,2.98
0.00041821318839822726,2.981
0.0004386996313190801,2.982
0.0004602650608773544,2.983
0.00048294178448398225,2.984
0.0005067630726777596,2.985
0.0005317627523233207,2.986
0.0005579747635526388,2.987
0.0005854328724301807,2.988
0.0006141706351396424,2.989
0.0006442214642776818,2.99
0.0006756186091536761,2.991
0.0007083950232309138,2.992
0.0007425831931696558,2.993
0.0007782150084164126,2.994
0.0008153217059388026,2.995
0.0008539338738080682,2.996
0.0008940814968407329,2.997
0.0009357940502575999,2.998
0.0009791006361986206,2.999
0.0010240301267923644,3.0
0.0010706112659147555,3.001
0.0011188726993924523,3.002
0.0011688429351459652,3.003
0.0012205502599071801,3.004
0.0012740226462061033,3.005
0.0013292876733062187,3.006
0.0013863724652682945,3.007
0.0014453036266022271,3.008
0.001506107144428795,3.009
0.0015688082389063041,3.01
0.0016334311764298695,3.011
0.001699999088264363,3.012
0.0017685338397197613,3.013
0.001839055973143374,3.014
0.001911584718109986,3.015
0.0019861380382179667,3.016
0.0020627326726242656,3.017
0.0021413841339291075,3.018
0.002222106639594221,3.019
0.0023049129755117565,3.02
0.0023898143115891673,3.021
0.002476820004153709,3.022
0.0025659374212659235,3.023
0.0026571718128835598,3.024
0.002750526228540067,3.025
0.0028460014743069456,3.026
0.002943596099679842,3.027
0.003043306404792208,3.028
0.003145126455070766,3.029
0.0032490480874204784,3.03
0.003355060890037615,3.031
0.0034631521352552143,3.032
0.003573306644203398,3.033
0.003685506569155719,3.034
0.0037997310969974003,3.035
0.003915956124636845,3.036
0.004034154007250262,3.037
0.004154293412512488,3.038
0.0042763392172633615,3.039
0.004400252474775742,3.04
0.004525990566718134,3.041
0.004653507528189191,3.042
0.004782754417321436,3.043
0.004913679608313042,3.044
0.0050462289129571776,3.045
0.005180345460443077,3.046
0.0053159693089139025,3.047
0.005453036821885861,3.048
0.005591479980137938,3.049
0.005731225954757952,3.05
0.005872197092919487,3.051
0.006014311067392545,3.052
0.006157480887605169,3.053
0.006301614711128486,3.054
0.006446615529697236,3.055
0.006592380816757266,3.056
0.006738802198179925,3.057
0.006885765159699062,3.058
0.007033148794222383,3.059
0.007180825647857965,3.06
0.007328661728389753,3.061
0.00747651664812207,3.062
0.007624243830714938,3.063
0.0077716907585719894,3.064
0.007918699288992546,3.065
0.008065106107178343,3.066
0.008210743417937209,3.067
0.008355439980807346,3.068
0.008499022537992116,3.069
0.00864131756392605,3.07
0.008782153102389115,3.071
0.008921360293015176,3.072
0.009058774070664103,3.073
0.009194232498467009,3.074
0.009327574326972775,3.075
0.009458635594695307,3.076
0.009587248328859306,3.077
0.009713243774030272,3.078
0.009836458714830491,3.079
0.00995674194549894,3.08
0.010073959375656649,3.081
0.010187997193195006,3.082
0.01029876265313047,3.083
0.010406182205462218,3.084
0.010510196846721833,3.085
0.010610755159754117,3.086
0.010707806668792827,3.087
0.010801300339614787,3.088
0.010891190287558035,3.089
0.010977445018179646,3.09
0.011060055335556353,3.091
0.011139038601696506,3.092
0.011214438689443981,3.093
0.011286321786862424,3.094
0.011354769037634384,3.095
0.011419867629590281,3.096
0.01148170277828959,3.097
0.011540353487289146,3.098
0.011595892540872583,3.099
0.011648387707009274,3.1
0.011697901367455925,3.101
0.011744488672135941,3.102
0.01178819613256482,3.103
0.011829061936032711,3.104
0.011867117062108986,3.105
0.011902385415790352,3.106
0.011934882880304178,3.107
0.011964617465260674,3.108
0.011991592447400657,3.109
0.012015811725321525,3.11
0.01203728531366895,3.111
0.012056033581413167,3.112
0.012072089446529558,3.113
0.012085498075564029,3.114
0.01209631408914281,3.115
0.012104596727815714,3.116
0.01211040408961618,3.117
0.012113788614227825,3.118
0.012114795940696027,3.119
0.012113466822538247,3.12
0.012109839647350048,3.121
0.01210395178001856,3.122
0.012095839572323727,3.123
0.012085537557732904,3.124
0.012073077439941635,3.125
0.012058487430672993,3.126
0.012041792329763545,3.127
0.012023014518061677,3.128
0.012002175795365957,3.129
0.011979299778224284,3.13
0.011954414405905367,3.131
0.011927554004213019,3.132
0.01189876033033186,3.133
0.011868082077216461,3.134
0.01183557248062994,3.135
0.011801285120035745,3.136
0.01176526948647382,3.137
0.011727569556906162,3.138
0.011688226967949347,3.139
0.011647286501079789,3.14
0.011604800829780548,3.141
0.011560833404223937,3.142
0.011515459477772041,3.143
0.011468765516555833,3.144
0.011420847309879694,3.145
0.011371807051548166,3.146
0.011321749585292385,3.147
0.011270778074525168,3.148
0.011218990102547236,3.149
0.01116647613869157,3.15
0.011113321152994989,3.151
0.011059607666316505,3.152
0.011005418203689594,3.153
0.010950836544381252,3.154
0.010895947938811042,3.155
0.010840838589600752,3.156
0.010785594710197978,3.157
0.010730301404877114,3.158
0.010675041505227198,3.159
0.010619894394650801,3.16
0.010564934782981327,3.161
0.010510231370010704,3.162
0.010455845438762056,3.163
0.010401829769603866,3.164
0.010348228485498977,3.165
0.0102950779058532,3.166
0.010242407739514925,3.167
0.010190241948368171,3.168
0.010138599048949428,3.169
0.010087491854490815,3.17
0.010036926732699378,3.171
0.009986902570636086,3.172
0.009937409903094491,3.173
0.00988843076708988,3.174
0.009839939341485948,3.175
0.009791902823527238,3.176
0.009744282041091441,3.177
0.009697031697186914,3.178
0.009650100375497987,3.179
0.009603430526810057,3.18
0.00955695867730512,3.181
0.009510616025778717,3.182
0.009464329439409516,3.183
0.009418022659887174,3.184
0.009371617354211112,3.185
0.00932503354932557,3.186
0.009278189019621423,3.187
0.00923099766569855,3.188
0.009183368147490087,3.189
0.009135204708090818,3.19
0.009086410675967178,3.191
0.009036893219503106,3.192
0.008986567779788778,3.193
0.008935361364570897,3.194
0.008883214238760285,3.195
0.008830079648132046,3.196
0.00877592135092872,3.197
0.008720708943443569,3.198
0.008664412404866574,3.199
0.008606999809522266,3.2
0.008548440909895233,3.201
0.008488714201626361,3.202
0.008427813377676438,3.203
0.00836575123205535,3.204
0.008302560540897102,3.205
0.008238291965986192,3.206
0.00817300953762447,3.207
0.00810678465081818,3.208
0.008039689967840793,3.209
0.007971795215022077,3.21
0.007903166198078102,3.211
0.007833866095804798,3.212
0.007763956921757038,3.213
0.0076935000629711255,3.214
0.00762255597979147,3.215
0.007551183456650316,3.216
0.00747943877405546,3.217
0.007407375134787499,3.218
0.007335042602912014,3.219
0.007262488675240552,3.22
0.00718975940687361,3.221
0.007116900810141423,3.222
0.007043960120114442,3.223
0.006970986527377762,3.224
0.006898031116214015,3.225
0.00682514595113026,3.226
0.006752382445022866,3.227
0.006679789370666196,3.228
0.0066074112835285016,3.229
0.006535288248143541,3.23
0.006463456980028,3.231
0.006391952647308802,3.232
0.006320810683734638,3.233
0.006250068461332004,3.234
0.0061797667837121826,3.235
0.006109951055918125,3.236
0.006040671918681287,3.237
0.005971985149209078,3.238
0.0059039507232301,3.239
0.005836631066458734,3.24
0.005770088666643894,3.241
0.005704383673512612,3.242
0.005639572749384328,3.243
0.005575709805792341,3.244
0.005512847636381769,3.245
0.0054510391547900544,3.246
0.005390337832029458,3.247
0.0053307974226718974,3.248
0.005272471159645494,3.249
0.005215410649601742,3.25
0.005159664707690674,3.251
0.005105278356835857,3.252
0.005052292192725786,3.253
0.0050007421794800765,3.254
0.004950659715484078,3.255
0.004902071758630325,3.256
0.004855000956485217,3.257
0.004809465832634027,3.258
0.004765481050675747,3.259
0.004723057710922523,3.26
0.004682203595939614,3.261
0.004642923282709861,3.262
0.004605218073037197,3.263
0.004569085740422671,3.264
0.004534520193299507,3.265
0.004501511294203053,3.266
0.004470044990709526,3.267
0.004440103607010042,3.268
0.00441166602898283,3.269
0.004384707651718146,3.27
0.004359200190269091,3.271
0.004335111716411481,3.272
0.00431240721850031,3.273
0.004291049576462171,3.274
0.004271000675230729,3.275
0.004252222502920307,3.276
0.004234678145799482,3.277
0.004218332567588917,3.278
0.00420315301988819,3.279
0.004189108889286863,3.28
0.004176170785486227,3.281
0.004164309022497592,3.282
0.004153492499449259,3.283
0.004143689164658443,3.284
0.004134867911836795,3.285
0.004127000568721064,3.286
0.0041200628979990665,3.287
0.0041140342950583145,3.288
0.004108896309672705,3.289
0.004104630546456953,3.29
0.004101217086297287,3.291
0.0040986343976811375,3.292
0.004096860419076647,3.293
0.004095873665224217,3.294
0.0040956536536268925,3.295
0.0040961806094011195,3.296
0.0040974346463668624,3.297
0.004099394648439924,3.298
0.004102037147473416,3.299
0.004105335658766875,3.3
0.004109260769010291,3.301
0.004113780697025432,3.302
0.004118861781008265,3.303
0.0041244685719674,3.304
0.004130563458345067,3.305
0.004137106030370464,3.306
0.004144052804057012,3.307
0.004151357791846953,3.308
0.004158973680844006,3.309
0.0041668530873538966,3.31
0.0041749495960351985,3.311
0.00418321842383005,3.312
0.004191616545582025,3.313
0.004200102153379128,3.314
0.004208633413248234,3.315
0.004217166938140427,3.316
0.0042256571350239485,3.317
0.004234057220240767,3.318
0.004242321246099389,3.319
0.0042504060100669394,3.32
0.004258272323212281,3.321
0.0042658854821724795,3.322
0.004273214857915292,3.323
0.004280232589636346,3.324
0.004286911594764882,3.325
0.004293223765536112,3.326
0.004299139721100379,3.327
0.004304630557508884,3.328
0.004309670521777127,3.329
0.004314239353179301,3.33
0.004318323746211903,3.331
0.0043219177890243534,3.332
0.004325022389384061,3.333
0.004327643855881173,3.334
0.0043297919013848335,3.335
0.0043314773533537545,3.336
0.0043327099817938265,3.337
0.004333497169817666,3.338
0.0043338439558976045,3.339
0.004333754078595071,3.34
0.00433323121024414,3.341
0.004332279941887007,3.342
0.0043309064534977244,3.343
0.004329118874358208,3.344
0.004326927331526193,3.345
0.004324343694344914,3.346
0.004321381047033107,3.347
0.004318052947370088,3.348
0.004314372546833792,3.349
0.0043103516499663755,3.35
0.004305999774128381,3.351
0.004301323338424433,3.352
0.004296325305515519,3.353
0.00429100555576626,3.354
0.004285361902703586,3.355
0.0042793914889610795,3.356
0.004273092396250167,3.357
0.0042664652972704215,3.358
0.004259514869739837,3.359
0.004252250643290147,3.36
0.004244687007429806,3.361
0.004236842255037627,3.362
0.004228736717201269,3.363
0.004220390512656191,3.364
0.004211822192198132,3.365
0.004203049284549471,3.366
0.004194090182705741,3.367
0.004184966008053767,3.368
0.004175701628651613,3.369
0.004166325584852692,3.37
0.00415686890955491,3.371
0.004147363179034363,3.372
0.004137838817292138,3.373
0.004128324875898491,3.374
0.004118850355840315,3.375
0.004109445913890177,3.376
0.004100144975264473,3.377
0.004090984040367193,3.378
0.004082002294274129,3.379
0.004073240659598428,3.38
0.0040647404439426655,3.381
0.004056541817790177,3.382
0.0040486825962569055,3.383
0.004041197846254674,3.384
0.004034120278028584,3.385
0.004027480782831937,3.386
0.004021308599211404,3.387
0.004015631044533003,3.388
0.004010472987653142,3.389
0.004005856317528818,3.39
0.004001799673812251,3.391
0.003998318625404519,3.392
0.003995426330498801,3.393
0.003993134549259635,3.394
0.003991454771602162,3.395
0.003990399189893076,3.396
0.003989981276428076,3.397
0.003990215800946053,3.398
0.0039911182303666425,3.399
0.003992703569728069,3.4
0.003994985014748912,3.401
0.00399797324830312,3.402
0.004001676918652531,3.403
0.004006103831844186,3.404
0.00401126211530769,3.405
0.004017161116969202,3.406
0.004023812118582806,3.407
0.004031228968718417,3.408
0.004039428690896123,3.409
0.004048432017583712,3.41
0.004058263690344213,3.411
0.0040689523284329,3.412
0.0040805297508722995,3.413
0.004093029806882132,3.414
0.004106486926375588,3.415
0.004120934651251591,3.416
0.004136404362374896,3.417
0.00415292442825749,3.418
0.004170520043468294,3.419
0.004189213814120547,3.42
0.004209026812084356,3.421
0.004229979765121104,3.422
0.004252094162155705,3.423
0.0042753930713273994,3.424
0.004299901464567871,3.425
0.004325645909965247,3.426
0.004352653616431252,3.427
0.004380950986612592,3.428
0.004410562171468029,3.429
0.00444150838138075,3.43
0.004473808155117632,3.431
0.004507477864355728,3.432
0.004542531727734745,3.433
0.004578981267531124,3.434
0.004616834590005737,3.435
0.004656095969317111,3.436
0.004696765863900956,3.437
0.004738841016819118,3.438
0.004782314331400153,3.439
0.0048271746214832165,3.44
0.004873406568217451,3.441
0.004920991062316618,3.442
0.004969905804301278,3.443
0.005020125959370842,3.444
0.005071624770071394,3.445
0.005124374080195242,3.446
0.005178344714827988,3.447
0.005233506646616696,3.448
0.005289828871985791,3.449
0.0053472789409378255,3.45
0.005405822131973004,3.451
0.005465420429356083,3.452
0.005526031785944955,3.453
0.005587610176619377,3.454
0.005650106364383971,3.455
0.005713468802322598,3.456
0.005777644178560942,3.457
0.0058425773722709145,3.458
0.0059082107240920525,3.459
0.005974482930719827,3.46
0.00604132861383747,3.461
0.006108679391037778,3.462
0.006176465927647187,3.463
0.006244619828504374,3.464
0.006313074621804034,3.465
0.0063817654357992875,3.466
0.006450627313436255,3.467
0.00651959309952816,3.468
0.0065885928771088195,3.469
0.006657555984599558,3.47
0.0067264143648170654,3.471
0.006795105433389035,3.472
0.0068635736035533215,3.473
0.006931770175257829,3.474
0.006999651476250571,3.475
0.007067175608559703,3.476
0.007134299415898918,3.477
0.0072009782139955455,3.478
0.007267169121393865,3.479
0.007332836029129132,3.48
0.007397953822180326,3.481
0.007462510670796751,3.482
0.00752650794327034,3.483
0.007589957683761417,3.484
0.007652878058950962,3.485
0.007715288095822921,3.486
0.007777204234014635,3.487
0.00783864030726293,3.488
0.007899609531553364,3.489
0.00796012597309545,3.49
0.00802020449264843,3.491
0.00807985947817111,3.492
0.008139103008433497,3.493
0.008197943069383963,3.494
0.00825638229112359,3.495
0.008314417453056059,3.496
0.008372039784995752,3.497
0.008429235927003988,3.498
0.00848598932382616,3.499
0.008542281800349143,3.5
0.008598095045777448,3.501
0.008653411695566911,3.502
0.008708215651123832,3.503
0.0087624912607864,3.504
0.00881622127008686,3.505
0.008869384637498338,3.506
0.00892195653389876,3.507
0.008973911639714196,3.508
0.009025229189353258,3.509
0.00907589759011315,3.51
0.009125917508387534,3.511
0.009175302949917231,3.512
0.009224080067818817,3.513
0.009272283679312815,3.514
0.009319952074851727,3.515
0.009367122299266124,3.516
0.009413829182928572,3.517
0.009460109015471016,3.518
0.009506005070288958,3.519
0.00955157189437728,3.52
0.009596877157315636,3.521
0.009642000845104762,3.522
0.009687031871018272,3.523
0.009732062767487282,3.524
0.009777184716359653,3.525
0.009822486292938956,3.526
0.009868056784971371,3.527
0.009913991017441528,3.528
0.00996039233221765,3.529
0.010007372610980541,3.53
0.01005504969346248,3.531
0.010103543202497988,3.532
0.010152970118967704,3.533
0.01020344129415233,3.534
0.010255059494718536,3.535
0.010307918821782558,3.536
0.010362104799389102,3.537
0.010417694366460362,3.538
0.01047475559061961,3.539
0.010533347720221487,3.54
0.01059352206522955,3.541
0.010655323256631611,3.542
0.010718790124743477,3.543
0.010783955908755716,3.544
0.010850847940541003,3.545
0.010919487163932345,3.546
0.010989887930832118,3.547
0.011062058428658556,3.548
0.011136001866050186,3.549
0.011211718247704618,3.55
0.011289206298697993,3.551
0.011368464937581415,3.552
0.011449493690917079,3.553
0.011532291580179906,3.554
0.01161685452307955,3.555
0.011703172738804743,3.556
0.011791230885748825,3.557
0.011881012065171902,3.558
0.01197250375044678,3.559
0.012065702963490051,3.56
0.012160619139311995,3.561
0.012257273923462264,3.562
0.012355697697631516,3.563
0.012455923594650111,3.564
0.01255798161269435,3.565
0.012661896479901071,3.566
0.012767690009414722,3.567
0.012875384533727453,3.568
0.012985004038631677,3.569
0.013096572275858616,3.57
0.0132101089146952,3.571
0.013325625919211414,3.572
0.013443126226142701,3.573
0.013562604481514114,3.574
0.013684047639166743,3.575
0.013807434080047698,3.576
0.013932732131476,3.577
0.0140598997500798,3.578
0.01418888568019789,3.579
0.01431963053565349,3.58
0.014452066342834352,3.581
0.014586114886478237,3.582
0.014721686954787655,3.583
0.014858683961654968,3.584
0.01499700088777488,3.585
0.015136528631050654,3.586
0.015277154909673579,3.587
0.015418763565146609,3.588
0.015561232252252373,3.589
0.015704429324741812,3.59
0.015848212432063573,3.591
0.015992430950830427,3.592
0.016136931218800825,3.593
0.016281561945232413,3.594
0.016426178113502034,3.595
0.016570642579993515,3.596
0.016714824937315288,3.597
0.016858597562503113,3.598
0.01700182976781415,3.599
0.01714438323781775,3.6
0.017286112725683336,3.601
0.01742687246533415,3.602
0.01756652488068028,3.603
0.017704948218367097,3.604
0.01784204137948241,3.605
0.017977724901527277,3.606
0.018111937408896474,3.607
0.018244627585340255,3.608
0.01837574403027723,3.609
0.018505228940165104,3.61
0.018633020129605084,3.611
0.018759058657984468,3.612
0.018883296014805147,3.613
0.019005697689541013,3.614
0.019126242661019106,3.615
0.019244919160703304,3.616
0.01936171739625181,3.617
0.019476621385970828,3.618
0.019589604625178586,3.619
0.019700632649351943,3.62
0.019809669421229935,3.621
0.019916682145492134,3.622
0.020021641633454004,3.623
0.020124517921619706,3.624
0.020225274251348253,3.625
0.020323865736284794,3.626
0.020420245512504914,3.627
0.020514373511209636,3.628
0.02060622135442146,3.629
0.020695770543853177,3.63
0.020783005040730895,3.631
0.020867904209640506,3.632
0.02095044371703209,3.633
0.021030605000766076,3.634
0.021108386296752806,3.635
0.021183808728775066,3.636
0.021256915354864014,3.637
0.02132776371099391,3.638
0.021396414484566945,3.639
0.021462922020410332,3.64
0.02152733255667576,3.641
0.021589690090320465,3.642
0.02165004416553773,3.643
0.02170845494438514,3.644
0.021764994310266073,3.645
0.021819742990772648,3.646
0.021872783855495084,3.647
0.021924193422712072,3.648
0.021974037186464016,3.649
0.022022372920090582,3.65
0.02206925878135173,3.651
0.0221147599773272,3.652
0.02215895086175989,3.653
0.02220191220164432,3.654
0.022243724530022192,3.655
0.022284460000901837,3.656
0.022324177025520676,3.657
0.022362920481012193,3.658
0.02240072529902933,3.659
0.02243761921015957,3.66
0.02247362269827748,3.661
0.02250874645913089,3.662
0.022542987548789358,3.663
0.022576325767033695,3.664
0.02260872176092011,3.665
0.022640117773047187,3.666
0.022670440958854135,3.667
0.022699608015556143,3.668
0.022727528954157767,3.669
0.022754107683238232,3.67
0.022779238958865734,3.671
0.022802805615797513,3.672
0.02282468148860743,3.673
0.022844739973589857,3.674
0.022862862531371986,3.675
0.02287894177699389,3.676
0.02289287698737075,3.677
0.022904564701294833,3.678
0.022913893316938064,3.679
0.022920748254583977,3.68
0.022925022953148768,3.681
0.02292662671126079,3.682
0.022925485399587688,3.683
0.022921535190173578,3.684
0.02291471218715617,3.685
0.02290494485211498,3.686
0.02289215579784488,3.687
0.02287627189807288,3.688
0.022857235938507272,3.689
0.022835014678948256,3.69
0.022809601545519705,3.691
0.022781013659257547,3.692
0.02274928368483716,3.693
0.02271444826943525,3.694
0.022676537750606036,3.695
0.022635573579197613,3.696
0.022591575023800756,3.697
0.022544569584140806,3.698
0.022494601133756578,3.699
0.022441733564261494,3.7
0.022386049633717063,3.701
0.022327645265365473,3.702
0.02226662006700433,3.703
0.02220306693716997,3.704
0.02213706686757015,3.705
0.02206869239889864,3.706
0.021998015436132192,3.707
0.021925113450681162,3.708
0.021850072244552668,3.709
0.021772985777895704,3.71
0.021693953679335035,3.711
0.02161307676285724,3.712
0.021530450873170976,3.713
0.021446161219925854,3.714
0.021360281682350154,3.715
0.02127288118939332,3.716
0.021184033727644158,3.717
0.02109382713112201,3.718
0.021002368080733563,3.719
0.020909782260713165,3.72
0.020816209344969888,3.721
0.02072179376186079,3.722
0.02062667534882522,3.723
0.02053098670767024,3.724
0.020434859712094623,3.725
0.020338435666708555,3.726
0.02024187261321906,3.727
0.02014534757758612,3.728
0.020049054197224143,3.729
0.01995319697293691,3.73
0.019857983685099345,3.731
0.019763617382553552,3.732
0.019670289554908824,3.733
0.01957817662917034,3.734
0.019487440504235762,3.735
0.019398231064653146,3.736
0.019310688409947856,3.737
0.019224944281807373,3.738
0.019141122926181194,3.739
0.01905934150192823,3.74
0.018979709967698134,3.741
0.018902330246674634,3.742
0.018827294441869584,3.743
0.0187546823057315,3.744
0.01868455930222157,3.745
0.018616976912757873,3.746
0.01855197494006199,3.747
0.01848958360310039,3.748
0.01842982342455654,3.749
0.018372703175544583,3.75
0.01831821920645535,3.751
0.018266359229306077,3.752
0.01821710926668189,3.753
0.018170460102313414,3.754
0.01812641078719411,3.755
0.01808496814419987,3.756
0.01804614201431479,3.757
0.018009938163864547,3.758
0.017976354240142888,3.759
0.01794538283498695,3.76
0.017917018881832655,3.761
0.017891265702843676,3.762
0.01786813707494543,3.763
0.017847655737680237,3.764
0.017829850019861707,3.765
0.01781475041304892,3.766
0.017802387143539145,3.767
0.017792788631728784,3.768
0.017785979843703635,3.769
0.017781979382408112,3.77
0.017780795767408004,3.771
0.017782426132409775,3.772
0.01778685974157112,3.773
0.01779408416260643,3.774
0.017804090292714188,3.775
0.01781687431427464,3.776
0.017832435981351567,3.777
0.01785077363972627,3.778
0.017871879090401544,3.779
0.017895737397280273,3.78
0.01792233308458056,3.781
0.01795165819202056,3.782
0.017983716975176697,3.783
0.018018525264062585,3.784
0.01805610479840968,3.785
0.01809647504217828,3.786
0.01813964795599176,3.787
0.018185630180736795,3.788
0.018234431094364855,3.789
0.018286072030554115,3.79
0.018340593883106996,3.791
0.018398062261454007,3.792
0.01845856965158592,3.793
0.018522233945030754,3.794
0.018589192792661788,3.795
0.018659593812443937,3.796
0.01873358362867892,3.797
0.0188113029239245,3.798
0.018892891527609066,3.799
0.018978498320263038,3.8
0.019068288616103882,3.801
0.019162446483719734,3.802
0.01926117256654948,3.803
0.019364679006700587,3.804
0.01947318373974928,3.805
0.01958690635414253,3.806
0.019706066742718614,3.807
0.01983088624550146,3.808
0.019961589615396756,3.809
0.02009840563758202,3.81
0.02024156483753071,3.811
0.020391294059459265,3.812
0.020547809952185758,3.813
0.020711315557618768,3.814
0.020882002186274812,3.815
0.02106005391532015,3.816
0.02124565120985808,3.817
0.021438972720234956,3.818
0.021640195641221015,3.819
0.02184949522748464,3.82
0.022067044264271824,3.821
0.022293013357857733,3.822
0.02252757260462678,3.823
0.022770894452932542,3.824
0.023023156669922974,3.825
0.023284543748292814,3.826
0.02355524514307664,3.827
0.023835449409883202,3.828
0.02412533629769898,3.829
0.02442507356238234,3.83
0.024734823277624763,3.831
0.025054753508473675,3.832
0.025385047854585386,3.833
0.025725908959859843,3.834
0.026077555233004708,3.835
0.02644021189670226,3.836
0.02681409927568177,3.837
0.027199422526992433,3.838
0.027596366081600408,3.839
0.02800509195324094,3.84
0.028425738764049486,3.841
0.02885842115028995,3.842
0.029303230661157243,3.843
0.029760236479384077,3.844
0.03022948436091715,3.845
0.03071099653897711,3.846
0.03120477592986263,3.847
0.03171081326644202,3.848
0.03222909321518404,3.849
0.03275959685252142,3.85
0.033302299291390586,3.851
0.03385716301475636,3.852
0.03442413133925028,3.853
0.03500312803316498,3.854
0.035594063084803625,3.855
0.03619683722505674,3.856
0.03681133955694733,3.857
0.037437442785087954,3.858
0.03807500675062149,3.859
0.03872389325838752,3.86
0.03938398302086908,3.861
0.040055183940251454,3.862
0.040737425735449764,3.863
0.04143064364408422,3.864
0.042134764912269404,3.865
0.042849713522325694,3.866
0.04357543196442061,3.867
0.044311904367513213,3.868
0.04505916851321653,3.869
0.045817313482102696,3.87
0.04658646478055945,3.871
0.0473667609863739,3.872
0.04815832908910454,3.873
0.04896126968597297,3.874
0.04977565807691607,3.875
0.05060155415359305,3.876
0.0514390103059547,3.877
0.052288073178546654,3.878
0.0531487796369289,3.879
0.05402114810386748,3.88
0.05490516731191088,3.881
0.05580078703416616,3.882
0.056707916067989673,3.883
0.05762642728033734,3.884
0.058556163356937696,3.885
0.05949693738817545,3.886
0.06044852711966979,3.887
0.06141066708833469,3.888
0.06238304614797239,3.889
0.06336531313804737,3.89
0.06435708504290172,3.891
0.06535795100845279,3.892
0.06636747019854966,3.893
0.06738516455634513,3.894
0.06841050881746473,3.895
0.06944292095783255,3.896
0.07048175605765632,3.897
0.07152630526768311,3.898
0.07257580128827198,3.899
0.07362943195664938,3.9
0.07468636105033766,3.901
0.0757457516811231,3.902
0.0768067856069124,3.903
0.07786867155698714,3.904
0.07893063702339176,3.905
0.07999190492748386,3.906
0.08105167313833726,3.907
0.08210912298512484,3.908
0.08316346147448558,3.909
0.08421397455658855,3.91
0.08526006720007717,3.911
0.0863012790583464,3.912
0.08733727346335864,3.913
0.0883678026190672,3.914
0.08939265577304596,3.915
0.09041160608158276,3.916
0.0914243833295776,3.917
0.09243068538507664,3.918
0.09343020814293043,3.919
0.09442266848007773,3.92
0.09540781293049676,3.921
0.09638541387778837,3.922
0.09735525548943967,3.923
0.09831711151773526,3.924
0.09927071809033498,3.925
0.1002157500194682,3.926
0.10115181346867415,3.927
0.10207845743936514,3.928
0.10299518964263775,3.929
0.1039014803465718,3.93
0.10479675094987471,3.931
0.10568036259971135,3.932
0.10655162763598289,3.933
0.10740984784018227,3.934
0.1082543599810594,3.935
0.10908456718255742,3.936
0.10989994428154577,3.937
0.11070001224016499,3.938
0.11148429148681181,3.939
0.11225227155740856,3.94
0.11300343279240672,3.941
0.1137373085644689,3.942
0.11445354516114883,3.943
0.11515192984224568,3.944
0.1158323793394286,3.945
0.11649489237858625,3.946
0.11713948332997867,3.947
0.11776613488099859,3.948
0.11837480300651514,3.949
0.11896546359184791,3.95
0.11953816032857342,3.951
0.12009302588976581,3.952
0.12063026912015358,3.953
0.12115013066000177,3.954
0.12165282540535122,3.955
0.12213851342193731,3.956
0.1226073240169899,3.957
0.12305940475995707,3.958
0.12349495317138191,3.959
0.12391421525321807,3.96
0.12431745304104934,3.961
0.12470489630789038,3.962
0.12507671112890914,3.963
0.12543300847596134,3.964
0.1257738763128473,3.965
0.126099400706564,3.966
0.12640965737622997,3.967
0.1267046806803935,3.968
0.1269844444954832,3.969
0.12724888701212786,3.97
0.1274979689232826,3.971
0.1277317289152332,3.972
0.12795031332354415,3.973
0.12815397464760067,3.974
0.12834304260851678,3.975
0.12851787629166556,3.976
0.1286788092232673,3.977
0.12882610481181414,3.978
0.1289599409808532,3.979
0.12908042680272394,3.98
0.1291876353705219,3.981
0.12928164000101577,3.982
0.12936255306605055,3.983
0.1294305695942459,3.984
0.12948601442058594,3.985
0.12952938799670466,3.986
0.12956140359138063,3.987
0.1295830085612589,3.988
0.12959538436289106,3.989
0.12959992274938636,3.99
0.12959817817100375,3.991
0.1295917987481049,3.992
