VaMe,time
0.002370568737156544,0.001
0.0024841129569991437,0.002
0.0025981812312545266,0.003
0.002712647974574792,0.004
0.002827393883189818,0.005
0.0029423088928317363,0.006
0.003057293663682594,0.007
0.0031722594379165014,0.008
0.0032871264653356095,0.009
0.003401821390854376,0.01
0.0035162740999669464,0.011
0.0036304147456620436,0.012
0.0037441719670663373,0.013
0.003857472688557084,0.014
0.003970242615565462,0.015
0.004082406359124854,0.016
0.004193886921015761,0.017
0.004304604820965778,0.018
0.0044144773377416905,0.019
0.0045234182047291455,0.02
0.004631337662682385,0.021
0.004738142585857865,0.022
0.004843736652926468,0.023
0.0049480207820862526,0.024
0.005050894039302779,0.025
0.005152255043551832,0.026
0.005252003623708725,0.027
0.005350042207842584,0.028
0.005446276258181617,0.029
0.005540613125108031,0.03
0.005632959842157885,0.031
0.005723222534937648,0.032
0.005811309716409737,0.033
0.005897138254747756,0.034
0.005980639113040928,0.035
0.006061760948734991,0.036
0.006140470612349972,0.037
0.00621675025590491,0.038
0.006290591589860535,0.039
0.0063619893354083966,0.04
0.006430937590545794,0.041
0.006497430942797305,0.042
0.006561467695813389,0.043
0.006623051868861591,0.044
0.006682193194406443,0.045
0.006738905773080392,0.046
0.0067932062508310855,0.047
0.006845112361956788,0.048
0.006894642455637487,0.049
0.006941816240654881,0.05
0.006986656523253564,0.051
0.00702919127227323,0.052
0.00706945503115003,0.053
0.007107488629750023,0.054
0.007143336655787366,0.055
0.007177044090832762,0.056
0.007208655671355331,0.057
0.007238219766583448,0.058
0.0072657941162097145,0.059
0.007291449769461861,0.06
0.007315271798757731,0.061
0.007337356974731933,0.062
0.007357809178113782,0.063
0.007376734040445207,0.064
0.007394235338595543,0.065
0.007410414997077399,0.066
0.007425375661971881,0.067
0.007439223273835252,0.068
0.007452068174720984,0.069
0.007464024578908078,0.07
0.007475208653339453,0.071
0.007485735711130826,0.072
0.007495717706609965,0.073
0.007505262614759509,0.074
0.007514475980167688,0.075
0.00752346309275804,0.076
0.007532330193571745,0.077
0.007541184210275761,0.078
0.007550131240205967,0.079
0.007559274356152968,0.08
0.007568711623762763,0.081
0.007578535197460586,0.082
0.007588831575592375,0.083
0.007599682264380752,0.084
0.007611164234480657,0.085
0.007623350098279441,0.086
0.007636308094738204,0.087
0.007650101912838243,0.088
0.007664790360559773,0.089
0.0076804268983212375,0.09
0.007697059084920675,0.091
0.007714728003087778,0.092
0.007733467770883119,0.093
0.007753305303519819,0.094
0.007774260397750536,0.095
0.007796346004864198,0.096
0.007819568528711126,0.097
0.00784392809232415,0.098
0.007869418754060943,0.099
0.007896028642473978,0.1
0.007923739978687422,0.101
0.007952528963478207,0.102
0.007982365520236706,0.103
0.008013212904284757,0.104
0.008045027262900427,0.105
0.008077757350503437,0.106
0.00811134453785117,0.107
0.008145722984275877,0.108
0.008180819740969411,0.109
0.00821655469020694,0.11
0.008252840343117051,0.111
0.00828958160602625,0.112
0.008326675748928371,0.113
0.008364012768661966,0.114
0.008401476082783183,0.115
0.008438943290697408,0.116
0.008476286655694729,0.117
0.008513372945293633,0.118
0.008550062812414203,0.119
0.008586210978746966,0.12
0.008621668352827929,0.121
0.008656285583609409,0.122
0.008689916661988251,0.123
0.008722421498376723,0.124
0.008753666704345,0.125
0.008783523960763439,0.126
0.00881186640800353,0.127
0.008838565959527808,0.128
0.008863495108931316,0.129
0.008886533174298546,0.13
0.008907573441860935,0.131
0.008926528109192635,0.132
0.008943329836592264,0.133
0.008957929775658983,0.134
0.008970292463993716,0.135
0.008980388790078765,0.136
0.00898818993931288,0.137
0.00899366581632713,0.138
0.008996788238198434,0.139
0.008997535587251275,0.14
0.008995896150720026,0.141
0.008991869765613312,0.142
0.008985468312213933,0.143
0.008976715495626108,0.144
0.008965646106416215,0.145
0.008952304714255014,0.146
0.008936743604350244,0.147
0.008919019720833357,0.148
0.008899190739820139,0.149
0.008877311757515983,0.15
0.008853435122088884,0.151
0.008827614058248225,0.152
0.00879990769086293,0.153
0.008770384785813348,0.154
0.008739125204540402,0.155
0.008706219277915875,0.156
0.008671765903243965,0.157
0.008635870368865994,0.158
0.008598642603681646,0.159
0.008560195926288428,0.16
0.008520645802449784,0.161
0.008480107914767483,0.162
0.008438695556189297,0.163
0.008396517998615868,0.164
0.008353681743974401,0.165
0.00831029429373602,0.166
0.008266468320045026,0.167
0.008222324586086719,0.168
0.00817799291393583,0.169
0.00813361101128196,0.17
0.008089321397633208,0.171
0.0080452672322545,0.172
0.00800158864481916,0.173
0.007958421316071041,0.174
0.007915897355378116,0.175
0.007874146660396849,0.176
0.007833297281042288,0.177
0.007793474670391797,0.178
0.007754800287059092,0.179
0.007717390099452334,0.18
0.007681353559783116,0.181
0.007646793267031044,0.182
0.007613804957534264,0.183
0.007582477449799192,0.184
0.007552892693233484,0.185
0.007525126163204314,0.186
0.0074992474346989675,0.187
0.007475320612076064,0.188
0.007453404475880518,0.189
0.007433552353750822,0.19
0.007415811768570022,0.191
0.007400223977637483,0.192
0.007386823651913392,0.193
0.007375638945767806,0.194
0.007366691896456051,0.195
0.0073599988202034125,0.196
0.007355570447837659,0.197
0.007353411755741833,0.198
0.007353521576428035,0.199
0.0073558921764685405,0.2
0.007360509077443322,0.201
0.0073673512633454655,0.202
0.007376391639413903,0.203
0.007387597532379938,0.204
0.007400931096508367,0.205
0.007416349488078621,0.206
0.007433804642025624,0.207
0.0074532427358619474,0.208
0.0074746040389581875,0.209
0.007497823922674648,0.21
0.007522834947793279,0.211
0.007549569281066892,0.212
0.007577960680686412,0.213
0.007607945365663546,0.214
0.007639461179866501,0.215
0.007672445263885059,0.216
0.007706832200320885,0.217
0.007742555041614884,0.218
0.007779549171295409,0.219
0.00781775665689241,0.22
0.007857129076283307,0.221
0.007897628047452821,0.222
0.007939223417735715,0.223
0.007981889533686212,0.224
0.008025600719525855,0.225
0.00807032800612181,0.226
0.008116038693359202,0.227
0.008162698070057404,0.228
0.008210271337158265,0.229
0.008258724665563917,0.23
0.00830802540679246,0.231
0.008358141732230748,0.232
0.008409041863580815,0.233
0.00846069289277968,0.234
0.0085130590766757,0.235
0.0085660998776913,0.236
0.008619768944764305,0.237
0.008674015044936227,0.238
0.00872878424809372,0.239
0.00878402173627853,0.24
0.008839672133097524,0.241
0.008895678069700996,0.242
0.008951977949545612,0.243
0.009008505008542313,0.244
0.009065188545796327,0.245
0.009121955682829055,0.246
0.009178731777694763,0.247
0.009235439185608981,0.248
0.009291995156704926,0.249
0.00934831016418999,0.25
0.009404287557380986,0.251
0.00945982415591241,0.252
0.009514810845801051,0.253
0.009569132835968056,0.254
0.009622669799535398,0.255
0.009675296157477345,0.256
0.009726881551943557,0.257
0.009777291309208179,0.258
0.009826386501277979,0.259
0.009874023182282863,0.26
0.009920051130958842,0.261
0.00996431393925585,0.262
0.01000665212544004,0.263
0.010046908650964791,0.264
0.010084934970588532,0.265
0.010120596188953892,0.266
0.010153774263376962,0.267
0.010184368291092262,0.268
0.010212291168171338,0.269
0.010237463210270718,0.27
0.01025980663905435,0.271
0.010279246427822495,0.272
0.010295718342344228,0.273
0.010309179263732291,0.274
0.010319614963807273,0.275
0.010327043621866677,0.276
0.01033151506458265,0.277
0.01033310620432803,0.278
0.010331913396940296,0.279
0.010328042935499514,0.28
0.010321602567603649,0.281
0.010312698192116101,0.282
0.010301436759406363,0.283
0.010287931516425972,0.284
0.010272305683797577,0.285
0.010254693657268032,0.286
0.010235240251568451,0.287
0.01021409863963521,0.288
0.01019142761210519,0.289
0.010167388659927225,0.29
0.010142143234254698,0.291
0.010115850400704693,0.292
0.010088664987372258,0.293
0.010060736223181922,0.294
0.01003220677251139,0.295
0.010003211996006834,0.296
0.009973879259804117,0.297
0.009944327374470504,0.298
0.009914666652931229,0.299
0.009884999909948343,0.3
0.009855424015369948,0.301
0.009826031315631863,0.302
0.00979691045107867,0.303
0.00976814631172477,0.304
0.00973981905399927,0.305
0.009712002541242647,0.306
0.009684763234731827,0.307
0.009658160392626227,0.308
0.00963224716243664,0.309
0.009607071441036006,0.31
0.009582675859888423,0.311
0.009559096916871528,0.312
0.009536363844147789,0.313
0.009514498223190806,0.314
0.009493514799819684,0.315
0.009473422825096573,0.316
0.009454227058935926,0.317
0.009435928136414251,0.318
0.009418522319010702,0.319
0.009402000730872846,0.32
0.009386348240077424,0.321
0.009371542279333091,0.322
0.00935755206800675,0.323
0.009344338454113294,0.324
0.00933185399542846,0.325
0.009320042913100101,0.326
0.009308841292344631,0.327
0.009298178104378692,0.328
0.0092879769710432,0.329
0.009278158163902,0.33
0.009268640396670262,0.331
0.009259342025442735,0.332
0.009250181260520565,0.333
0.009241075066760902,0.334
0.009231937009809638,0.335
0.009222675603259557,0.336
0.009213194981725696,0.337
0.009203397735137085,0.338
0.009193187936177752,0.339
0.00918247271528527,0.34
0.009171161818756756,0.341
0.009159165255661234,0.342
0.009146389958235777,0.343
0.009132737331924726,0.344
0.00911810274904243,0.345
0.009102375831403265,0.346
0.009085440701085789,0.347
0.009067177837045186,0.348
0.009047468881065949,0.349
0.009026202904825954,0.35
0.009003281431635231,0.351
0.008978620286027627,0.352
0.008952147278648057,0.353
0.008923796645786717,0.354
0.008893504923506977,0.355
0.00886121362601028,0.356
0.008826878341831056,0.357
0.008790478685739664,0.358
0.008752024387056386,0.359
0.008711555853978977,0.36
0.00866913949681803,0.361
0.008624859200146492,0.362
0.008578806539483202,0.363
0.008531073789601338,0.364
0.008481752648873256,0.365
0.00843093712277777,0.366
0.008378726536106345,0.367
0.00832522649459725,0.368
0.008270547918710543,0.369
0.008214804965324236,0.37
0.008158112644759392,0.371
0.008100584786469786,0.372
0.008042332758102644,0.373
0.00798346506038701,0.374
0.007924087664370406,0.375
0.007864304775315975,0.376
0.007804219626205068,0.377
0.007743934926610186,0.378
0.007683552702969372,0.379
0.007623173432549807,0.38
0.007562894551862356,0.381
0.007502808771553487,0.382
0.007443003104481337,0.383
0.00738355919937667,0.384
0.007324554473039652,0.385
0.007266063149188332,0.386
0.007208156826574303,0.387
0.007150904604544594,0.388
0.007094372903005858,0.389
0.007038625145445585,0.39
0.006983721460375497,0.391
0.0069297185055988446,0.392
0.006876669450705604,0.393
0.00682462408729356,0.394
0.0067736289885631535,0.395
0.00672372761846892,0.396
0.006674960297705487,0.397
0.006627363961609349,0.398
0.006580971676183733,0.399
0.006535811944655923,0.4
0.006491908083179371,0.401
0.006449278213054874,0.402
0.006407936136287896,0.403
0.006367892718219553,0.404
0.0063291572177155316,0.405
0.006291738225298149,0.406
0.006255644018744966,0.407
0.006220882239092777,0.408
0.006187458910964721,0.409
0.006155377060222687,0.41
0.006124635627024696,0.411
0.006095229500572502,0.412
0.006067150744503865,0.413
0.006040390253930346,0.414
0.006014939100499692,0.415
0.005990789192121537,0.416
0.005967933043869681,0.417
0.005946362577070836,0.418
0.005926067354517452,0.419
0.005907033464462718,0.42
0.005889244023920938,0.421
0.005872680748989998,0.422
0.005857325310991107,0.423
0.005843159820048632,0.424
0.005830166410027496,0.425
0.005818326095105085,0.426
0.005807617266549549,0.427
0.00579801463633228,0.428
0.005789489455441304,0.429
0.005782010917857417,0.43
0.005775547848793174,0.431
0.005770069917635009,0.432
0.005765548088780508,0.433
0.00576195427360743,0.434
0.0057592602524782,0.435
0.005757436089631213,0.436
0.005756448741582163,0.437
0.005756261951027115,0.438
0.005756837780830665,0.439
0.005758138872830046,0.44
0.00576013028521033,0.441
0.005762780295865825,0.442
0.005766059905300984,0.443
0.005769941006127489,0.444
0.005774393996927083,0.445
0.005779386749638824,0.446
0.005784886069744478,0.447
0.005790860353363138,0.448
0.005797281456807399,0.449
0.005804124970212685,0.45
0.005811368980777393,0.451
0.005818991802912603,0.452
0.005826969501309266,0.453
0.005835274223468624,0.454
0.005843873799000456,0.455
0.005852732032696276,0.456
0.005861808936969199,0.457
0.005871060789893627,0.458
0.005880440304531148,0.459
0.005889897153291372,0.46
0.0058993789063952785,0.461
0.0059088322470256865,0.462
0.005918204173826656,0.463
0.005927442827893002,0.464
0.0059364975951520975,0.465
0.005945318231067827,0.466
0.005953853177113821,0.467
0.005962048183871398,0.468
0.005969846684644309,0.469
0.0059771919873181575,0.47
0.005984029850495937,0.471
0.0059903100777639155,0.472
0.005995986567572812,0.473
0.006001015765738861,0.474
0.0060053540849709245,0.475
0.006008955915921296,0.476
0.006011773941737911,0.477
0.006013761646483558,0.478
0.006014876344135394,0.479
0.006015081357737955,0.48
0.0060143468052416315,0.481
0.006012648736194855,0.482
0.006009966568462217,0.483
0.006006280019886813,0.484
0.006001568488551625,0.485
0.005995814614143715,0.486
0.005989009983327795,0.487
0.0059811597253342594,0.488
0.00597228433145454,0.489
0.005962418394321222,0.49
0.005951606742860426,0.491
0.00593989915146935,0.492
0.005927345633358451,0.493
0.005913994555560245,0.494
0.005899893920649526,0.495
0.005885093814875332,0.496
0.005869648186334871,0.497
0.005853615594803061,0.498
0.005837059170744256,0.499
0.005820046007751079,0.5
0.0058026461606057725,0.501
0.005784931358943977,0.502
0.00576697350749764,0.503
0.005748843053593091,0.504
0.00573060738535966,0.505
0.005712329560488773,0.506
0.005694067606371932,0.507
0.005675874317141177,0.508
0.005657797409872287,0.509
0.005639880018908183,0.51
0.00562216126148595,0.511
0.005604676385460903,0.512
0.005587456435759323,0.513
0.005570528134234817,0.514
0.00555391462437989,0.515
0.005537636801929969,0.516
0.005521714554910316,0.517
0.005506167635099232,0.518
0.005491016176207587,0.519
0.005476280848608466,0.52
0.005461982508980628,0.521
0.005448141149854817,0.522
0.005434774376975552,0.523
0.005421896429760818,0.524
0.005409518524156652,0.525
0.005397649928475429,0.526
0.005386298686669788,0.527
0.005375471604449667,0.528
0.0053651736678610035,0.529
0.005355407154582626,0.53
0.005346170700540357,0.531
0.005337458686784288,0.532
0.005329261307889512,0.533
0.005321565336319975,0.534
0.005314355276289496,0.535
0.0053076146475510904,0.536
0.0053013272897919255,0.537
0.005295478592942247,0.538
0.005290056502604592,0.539
0.005285052095924668,0.54
0.005280459497386162,0.541
0.005276274924170884,0.542
0.005272494882816928,0.543
0.005269114400215954,0.544
0.005266126999804502,0.545
0.005263527130814887,0.546
0.00526131370289449,0.547
0.0052594929149221885,0.548
0.0052580794850876555,0.549
0.005257096130039659,0.55
0.00525657159030748,0.551
0.005256537821102923,0.552
0.005257027048832972,0.553
0.005258069294697587,0.554
0.005259690815100523,0.555
0.00526191359601588,0.556
0.005264755577179585,0.557
0.005268231134465116,0.558
0.005272351616050921,0.559
0.0052771259526793,0.56
0.005282561372932755,0.561
0.005288664210038849,0.562
0.005295440754140709,0.563
0.005302898069276747,0.564
0.005311044657090621,0.565
0.0053198908201859685,0.566
0.005329448572337012,0.567
0.005339730978871705,0.568
0.005350750902516656,0.569
0.005362519363664359,0.57
0.005375044148569607,0.571
0.005388329377133071,0.572
0.00540237595903301,0.573
0.005417182096691032,0.574
0.0054327431927652554,0.575
0.005449051206463873,0.576
0.00546609402507993,0.577
0.00548385543834957,0.578
0.005502315670595313,0.579
0.005521451863058749,0.58
0.005541238028854498,0.581
0.005561644499865941,0.582
0.0055826373660884466,0.583
0.005604178478114768,0.584
0.0056262260009412495,0.585
0.005648734972845578,0.586
0.005671657434328004,0.587
0.005694942044069358,0.588
0.005718533376647551,0.589
0.0057423713547483345,0.59
0.005766391146279321,0.591
0.005790523268354617,0.592
0.0058146935965048205,0.593
0.005838823830181606,0.594
0.005862833239805374,0.595
0.005886641631824957,0.596
0.0059101727615874025,0.597
0.005933357408198112,0.598
0.005956135430753309,0.599
0.00597845623412135,0.6
0.0060002772631502456,0.601
0.006021560627196175,0.602
0.006042269508356824,0.603
0.0060623675727556284,0.604
0.006081822807219522,0.605
0.0061006133579064,0.606
0.0061187321509142455,0.607
0.00613618893252875,0.608
0.00615300971302186,0.609
0.006169234186238479,0.61
0.006184911965987532,0.611
0.006200098379620242,0.612
0.0062148503126410685,0.613
0.006229222830075379,0.614
0.006243267847710073,0.615
0.006257035317960645,0.616
0.006270575615812911,0.617
0.006283941563672592,0.618
0.00629718953215879,0.619
0.00631037959412838,0.62
0.006323574832972217,0.621
0.006336840009305691,0.622
0.0063502398608609855,0.623
0.006363837343946462,0.624
0.006377692105218757,0.625
0.0063918593801479484,0.626
0.006406389363888817,0.627
0.006421326951636262,0.628
0.006436711662619473,0.629
0.006452577565717944,0.63
0.0064689531016605085,0.631
0.00648586085482769,0.632
0.006503317486580895,0.633
0.006521333977091734,0.634
0.006539916103532376,0.635
0.00655906503479386,0.636
0.006578777999428512,0.637
0.006599048962050132,0.638
0.0066198691512251275,0.639
0.006641227220153993,0.64
0.006663108832407782,0.641
0.006685495746281035,0.642
0.0067083651424934155,0.643
0.0067316901853522945,0.644
0.006755441939562946,0.645
0.006779591828706901,0.646
0.006804113772137908,0.647
0.006828985420791856,0.648
0.006854188040807878,0.649
0.006879704744493018,0.65
0.006905517683137841,0.651
0.006931606463294537,0.652
0.006957949667365769,0.653
0.006984528442631289,0.654
0.0070113297459494335,0.655
0.007038348005038611,0.656
0.0070655851278602156,0.657
0.0070930492170187135,0.658
0.007120752461848233,0.659
0.007148708600379397,0.66
0.007176930174574673,0.661
0.007205426038446462,0.662
0.007234200259438194,0.663
0.007263253113774782,0.664
0.007292583257547375,0.665
0.007322189667498058,0.666
0.007352072700323793,0.667
0.00738223414630665,0.668
0.007412676383169732,0.669
0.007443400938669495,0.67
0.007474406863571939,0.671
0.0075056892756334885,0.672
0.007537238286815024,0.673
0.00756903832358142,0.674
0.007601067661278804,0.675
0.007633298037429125,0.676
0.007665694597431692,0.677
0.007698216565346035,0.678
0.007730818541619042,0.679
0.007763451886033806,0.68
0.007796065663783024,0.681
0.007828606826597336,0.682
0.007861019536853836,0.683
0.007893243823252086,0.684
0.007925214053032772,0.685
0.007956857834972339,0.686
0.007988095577111817,0.687
0.008018840461546623,0.688
0.008048998775249942,0.689
0.00807847070330949,0.69
0.008107151314542258,0.691
0.008134931225363969,0.692
0.00816169655665021,0.693
0.008187328221109338,0.694
0.008211701475142196,0.695
0.008234687116878242,0.696
0.008256154741124006,0.697
0.008275977244701698,0.698
0.00829403551755301,0.699
0.008310222382951246,0.7
0.008324444834924378,0.701
0.008336623699310111,0.702
0.008346690186516459,0.703
0.008354580277953525,0.704
0.008360230803852975,0.705
0.008363581344600574,0.706
0.00836458142432384,0.707
0.008363198744802377,0.708
0.008359425133482491,0.709
0.008353278981497483,0.71
0.008344803940163579,0.711
0.008334064183367292,0.712
0.008321137014938442,0.713
0.008306104718974307,0.714
0.008289049339343981,0.715
0.008270053051999907,0.716
0.008249202352848846,0.717
0.008226592177525945,0.718
0.008202327921053337,0.719
0.00817652520391125,0.72
0.008149307776330007,0.721
0.008120804088874604,0.722
0.008091143148212148,0.723
0.00806045069026262,0.724
0.008028847212185386,0.725
0.007996448388998113,0.726
0.00796336644488318,0.727
0.007929710892526969,0.728
0.007895588219227166,0.729
0.007861100776711757,0.73
0.007826345715635055,0.731
0.007791415196449239,0.732
0.007756398221894308,0.733
0.007721383093979007,0.734
0.007686459310995845,0.735
0.0076517183222574005,0.736
0.007617253000036145,0.737
0.00758315597270523,0.738
0.0075495173018182435,0.739
0.007516422469761319,0.74
0.0074839517682946735,0.741
0.007452181237031739,0.742
0.007421184234169234,0.743
0.0073910328388418055,0.744
0.0073617989221003415,0.745
0.007333554925324512,0.746
0.00730637432270384,0.747
0.007280331683620825,0.748
0.007255502214920233,0.749
0.007231960679299293,0.75
0.0072097796729084515,0.751
0.00718902769847377,0.752
0.0071697681779926145,0.753
0.0071520601048582644,0.754
0.007135959522176056,0.755
0.007121520608007313,0.756
0.007108795921779718,0.757
0.0070978358804681925,0.758
0.007088687666334079,0.759
0.00708139390766416,0.76
0.007075991683811854,0.761
0.007072512328738025,0.762
0.007070981917669465,0.763
0.007071421878905854,0.764
0.007073849344724687,0.765
0.007078277177589608,0.766
0.007084713723696791,0.767
0.007093162372961647,0.768
0.007103621032978664,0.769
0.007116081637880666,0.77
0.007130529793911509,0.771
0.0071469446120332545,0.772
0.007165298715946553,0.773
0.0071855583690839395,0.774
0.007207683648460304,0.775
0.007231628600415489,0.776
0.0072573413318968195,0.777
0.007284764011763638,0.778
0.007313832771979085,0.779
0.007344477506288456,0.78
0.007376621592202583,0.781
0.007410181657512073,0.782
0.007445067594044004,0.783
0.007481182935351727,0.784
0.0075184255725876835,0.785
0.007556688785294659,0.786
0.007595862608232807,0.787
0.0076358354843683906,0.788
0.007676496010742464,0.789
0.007717734460415313,0.79
0.007759443709421056,0.791
0.007801519225195741,0.792
0.00784385786511933,0.793
0.00788635557551598,0.794
0.007928905158872466,0.795
0.007971396260270667,0.796
0.008013718515907244,0.797
0.00805576641795226,0.798
0.008097443929611323,0.799
0.008138667819238344,0.8
0.008179369238379459,0.801
0.008219493267433889,0.802
0.008258996351989628,0.803
0.008297841727137623,0.804
0.008335994003864103,0.805
0.008373416214767953,0.806
0.008410071970183298,0.807
0.008445931147010291,0.808
0.008480975449391333,0.809
0.008515201708403012,0.81
0.008548622352521745,0.811
0.008581263146637083,0.812
0.00861315875808708,0.813
0.008644347104414455,0.814
0.008674864198890377,0.815
0.008704741793778448,0.816
0.008734008450406094,0.817
0.00876269197409713,0.818
0.008790821086473475,0.819
0.00881842587373992,0.82
0.008845537313090587,0.821
0.00887218621299704,0.822
0.00889840186996263,0.823
0.008924210669753806,0.824
0.008949634772667752,0.825
0.0089746909459152,0.826
0.008999389557756705,0.827
0.009023733726791454,0.828
0.009047718642141118,0.829
0.009071331132414349,0.83
0.00909454952190184,0.831
0.009117343624972782,0.832
0.00913967472163524,0.833
0.009161495649658753,0.834
0.009182751217107193,0.835
0.009203378779483438,0.836
0.009223308542457951,0.837
0.009242463406342185,0.838
0.009260759006724111,0.839
0.00927810508217261,0.84
0.009294408526551853,0.841
0.009309577433300449,0.842
0.009323525161988989,0.843
0.009336173529788515,0.844
0.00934745422244734,0.845
0.009357307584215588,0.846
0.009365678681934117,0.847
0.009372513039406047,0.848
0.009377756757630492,0.849
0.009381363038032676,0.85
0.00938330162893344,0.851
0.009383566444890981,0.852
0.009382178863881362,0.853
0.0093791858818629,0.854
0.009374653317140394,0.855
0.00936865629597688,0.856
0.009361272314557132,0.857
0.00935258141418181,0.858
0.009342671760919371,0.859
0.009331645057275283,0.86
0.009319618426389353,0.861
0.009306722559211665,0.862
0.009293097179785772,0.863
0.009278885241495453,0.864
0.009264227454512467,0.865
0.009249258703953087,0.866
0.009234106838827263,0.867
0.00921889267215535,0.868
0.009203729825181719,0.869
0.009188724150404204,0.87
0.009173973150568216,0.871
0.009159565766840742,0.872
0.009145582673352356,0.873
0.009132096991520719,0.874
0.009119175170054058,0.875
0.009106877705657114,0.876
0.009095259429165482,0.877
0.009084369239152186,0.878
0.009074249372925022,0.879
0.009064934510811454,0.88
0.009056451097549533,0.881
0.00904881704492955,0.882
0.009042041676635255,0.883
0.009036125785222655,0.884
0.009031061726566389,0.885
0.009026833475015072,0.886
0.009023416884954028,0.887
0.009020780580161317,0.888
0.009018887447293757,0.889
0.009017696292328285,0.89
0.009017163184838908,0.891
0.009017242068539984,0.892
0.009017884284380656,0.893
0.009019037107503574,0.894
0.009020642559739991,0.895
0.00902263834615969,0.896
0.009024961317541436,0.897
0.009027552010431752,0.898
0.009030358627173931,0.899
0.009033339508226945,0.9
0.009036463592551605,0.901
0.009039708682309484,0.902
0.009043057676608702,0.903
0.009046493798020057,0.904
0.009049997416418869,0.905
0.009053546951584706,0.906
0.009057123315261859,0.907
0.00906071515348067,0.908
0.009064322802752068,0.909
0.009067960079252422,0.91
0.009071653521520444,0.911
0.009075439055242211,0.912
0.00907935670419391,0.913
0.009083445458081357,0.914
0.009087741490786432,0.915
0.009092280663933689,0.916
0.009097102572318513,0.917
0.009102253121044485,0.918
0.009107784680855812,0.919
0.009113754007649622,0.92
0.009120218512690298,0.921
0.00912723232143324,0.922
0.009134844433040279,0.923
0.00914309996648401,0.924
0.009152042767206445,0.925
0.009161717256938541,0.926
0.00917216887396879,0.927
0.009183443236760997,0.928
0.00919558430838746,0.929
0.009208632012235731,0.93
0.009222620143842725,0.931
0.009237575642535818,0.932
0.009253519456606367,0.933
0.00927046808330269,0.934
0.009288434871080387,0.935
0.009307430830540572,0.936
0.009327464965691392,0.937
0.009348544134549693,0.938
0.009370672454767073,0.939
0.009393850289804195,0.94
0.00941807287700956,0.941
0.00944332884101822,0.942
0.009469599233648398,0.943
0.009496857692229362,0.944
0.009525071508420196,0.945
0.009554202854867116,0.946
0.009584209629252763,0.947
0.009615045706504483,0.948
0.00964666053009553,0.949
0.009678998083145035,0.95
0.009711995522769575,0.951
0.009745582136720108,0.952
0.009779679235511731,0.953
0.009814200867832969,0.954
0.00984905474905501,0.955
0.00988414305109988,0.956
0.00991936308445922,0.957
0.009954607985423426,0.958
0.009989767454341408,0.959
0.010024728514917076,0.96
0.010059376214960784,0.961
0.010093594161287611,0.962
0.010127264745520868,0.963
0.010160268857660151,0.964
0.01019248482134167,0.965
0.01022378654319094,0.966
0.010254041953575726,0.967
0.010283113699479601,0.968
0.010310862827130021,0.969
0.010337154059623615,0.97
0.010361860844390046,0.971
0.010384869137013218,0.972
0.010406079435124832,0.973
0.010425406898119367,0.974
0.010442779698753917,0.975
0.010458135949057059,0.976
0.01047141956044772,0.977
0.010482575381304905,0.978
0.010491544857025463,0.979
0.0104982650192903,0.98
0.010502672575517284,0.981
0.010504711447751416,0.982
0.010504340894223788,0.983
0.010501542372546845,0.984
0.010496323826560934,0.985
0.010488720255604624,0.986
0.010478790006895838,0.987
0.010466607104687142,0.988
0.01045225179071959,0.989
0.010435804058709133,0.99
0.01041734379738332,0.991
0.010396955448324812,0.992
0.010374732292733356,0.993
0.010350777925453025,0.994
0.01032520509546227,0.995
0.010298132878075995,0.996
0.010269683184205456,0.997
0.010239977413242429,0.998
0.010209133733167083,0.999
0.010177265136106851,1.0
0.010144478152216179,1.001
0.010110871954732517,1.002
0.010076537600675959,1.003
0.010041557449692928,1.004
0.010006005203164562,1.005
0.009969946846285637,1.006
0.009933442144286018,1.007
0.009896546102404978,1.008
0.009859309986671639,1.009
0.009821781655392959,1.01
0.009784005062097364,1.011
0.009746018950391525,1.012
0.009707855206367924,1.013
0.009669537946342777,1.014
0.009631083938078419,1.015
0.009592503490787422,1.016
0.009553800589341205,1.017
0.00951497235913135,1.018
0.009476009421395825,1.019
0.009436898370721277,1.02
0.009397625719124161,1.021
0.009358181721150884,1.022
0.009318562871152925,1.023
0.009278772217311687,1.024
0.009238816925022805,1.025
0.00919870406573417,1.026
0.009158438330059852,1.027
0.009118024747040104,1.028
0.009077474740559583,1.029
0.009036811594473693,1.03
0.008996073213416153,1.031
0.008955311886336383,1.032
0.008914591524157649,1.033
0.00887398325947449,1.034
0.008833560432734205,1.035
0.008793393998982976,1.036
0.008753549416254391,1.037
0.00871408562364869,1.038
0.008675055604547037,1.039
0.008636507471125073,1.04
0.00859848556087996,1.041
0.008561031617881052,1.042
0.008524186134241664,1.043
0.008487989719464937,1.044
0.008452484216932609,1.045
0.008417713258060748,1.046
0.008383722069944288,1.047
0.008350556597650266,1.048
0.008318262258497662,1.049
0.008286882785075514,1.05
0.008256459564015778,1.051
0.008227031656974795,1.052
0.008198636392657097,1.053
0.008171310161712311,1.054
0.008145088913742455,1.055
0.00812000787268832,1.056
0.008096100152632275,1.057
0.008073394773694783,1.058
0.008051915908776082,1.059
0.008031684690015214,1.06
0.008012722490974277,1.061
0.00799505371706551,1.062
0.007978707133348271,1.063
0.007963715539351738,1.064
0.007950113948223984,1.065
0.00793793671590881,1.066
0.007927214528580409,1.067
0.007917972673444127,1.068
0.007910231275021811,1.069
0.007904006504312604,1.07
0.007899311470032548,1.071
0.007896156437285792,1.072
0.00789454852531205,1.073
0.007894491034020958,1.074
0.007895982475324297,1.075
0.007899015519146438,1.076
0.00790357649849651,1.077
0.007909646067488977,1.078
0.007917200798189621,1.079
0.007926215032686831,1.08
0.00793666251258858,1.081
0.007948517519497038,1.082
0.007961755316057275,1.083
0.007976351744652915,1.084
0.007992281954134147,1.085
0.008009518398738043,1.086
0.008028028740793464,1.087
0.008047774856566941,1.088
0.008068713499692085,1.089
0.008090797692569556,1.09
0.008113977683216082,1.091
0.008138201138441374,1.092
0.008163412731867464,1.093
0.008189553411922944,1.094
0.00821655970257263,1.095
0.008244363370034313,1.096
0.008272891671804885,1.097
0.008302068221349629,1.098
0.008331814320726456,1.099
0.008362050500830836,1.1
0.00839269798552431,1.101
0.008423679825202923,1.102
0.008454921476750962,1.103
0.008486350631537886,1.104
0.008517896143514322,1.105
0.008549486002682558,1.106
0.008581044810056768,1.107
0.008612492291501284,1.108
0.008643744428813693,1.109
0.008674716992588519,1.11
0.008705329911584365,1.111
0.008735511160730161,1.112
0.008765199371911376,1.113
0.008794344606679088,1.114
0.008822907027316893,1.115
0.008850853619686292,1.116
0.008878153521702285,1.117
0.008904773303027578,1.118
0.008930674459784106,1.119
0.008955814124150805,1.12
0.008980147221855767,1.121
0.00900362798578616,1.122
0.00902621039017836,1.123
0.009047847912168356,1.124
0.009068493093481707,1.125
0.009088097341596104,1.126
0.009106611283270876,1.127
0.009123985771679558,1.128
0.00914017338297584,1.129
0.009155129980479352,1.13
0.009168815743678374,1.131
0.009181195008650035,1.132
0.009192234383473441,1.133
0.009201899503154152,1.134
0.009210152734900579,1.135
0.009216954448814773,1.136
0.009222267469903013,1.137
0.009226061811385253,1.138
0.009228317386909528,1.139
0.009229023968806604,1.14
0.009228178574415807,1.141
0.00922578098809445,1.142
0.00922182887884574,1.143
0.009216314747356433,1.144
0.009209225731418615,1.145
0.009200544580381834,1.146
0.009190249587025922,1.147
0.009178313464099476,1.148
0.009164703140401803,1.149
0.009149381734942723,1.15
0.009132311455565057,1.151
0.009113455234652899,1.152
0.009092775910150938,1.153
0.009070233859024125,1.154
0.009045786661165237,1.155
0.009019393506760006,1.156
0.008991022484443244,1.157
0.008960656977223116,1.158
0.008928299020181234,1.159
0.008893968943549558,1.16
0.008857701404574697,1.161
0.008819538792332804,1.162
0.008779524711436936,1.163
0.008737701625523729,1.164
0.008694114047948018,1.165
0.008648813991657877,1.166
0.008601864933869505,1.167
0.008553343127727384,1.168
0.008503336495004139,1.169
0.008451941657969442,1.17
0.008399259838118785,1.171
0.00834539237522555,1.172
0.008290436868538196,1.173
0.008234485287256257,1.174
0.008177624451753625,1.175
0.00811993758428993,1.176
0.008061505566923168,1.177
0.00800240763379894,1.178
0.007942721685299622,1.179
0.007882524365258997,1.18
0.007821890969615395,1.181
0.007760895181572887,1.182
0.0076996085701754105,1.183
0.007638099758825517,1.184
0.007576433228597128,1.185
0.00751466811386845,1.186
0.007452857863443268,1.187
0.007391051231525454,1.188
0.0073292939528183275,1.189
0.007267630185854947,1.19
0.007206103318170241,1.191
0.007144756049249512,1.192
0.007083629783866459,1.193
0.007022763475807444,1.194
0.006962192185456052,1.195
0.00690194586477603,1.196
0.00684204901108986,1.197
0.006782521323276982,1.198
0.006723378815415272,1.199
0.006664634873396714,1.2
0.006606301153591151,1.201
0.00654838838726984,1.202
0.00649090713761003,1.203
0.006433868514626035,1.204
0.006377284793931241,1.205
0.006321169820557613,1.206
0.006265539031383036,1.207
0.00621040892286948,1.208
0.006155795833802065,1.209
0.006101714218188196,1.21
0.006048175357212199,1.211
0.005995187772043698,1.212
0.005942759463278293,1.213
0.005890900798130307,1.214
0.005839626878384631,1.215
0.005788958867310518,1.216
0.005738924146819492,1.217
0.005689555410334234,1.218
0.005640888993665297,1.219
0.005592962840996126,1.22
0.005545814467524418,1.221
0.005499479149135888,1.222
0.005453988513148822,1.223
0.005409369813683558,1.224
0.005365646092272664,1.225
0.0053228370237239616,1.226
0.005280960064897408,1.227
0.005240031685849654,1.228
0.005200068574197143,1.229
0.0051610886862687895,1.23
0.005123112008076084,1.231
0.005086160921919555,1.232
0.0050502601347535035,1.233
0.005015436187895445,1.234
0.004981716615366821,1.235
0.00494912884849699,1.236
0.004917698985604202,1.237
0.004887450556609408,1.238
0.004858403486803921,1.239
0.004830573569134011,1.24
0.0048039725382324205,1.241
0.00477860841679514,1.242
0.004754485787190292,1.243
0.004731605924071696,1.244
0.004709966849601752,1.245
0.004689563365918279,1.246
0.004670387110573938,1.247
0.004652426674520466,1.248
0.004635667807666795,1.249
0.004620093708573261,1.25
0.00460568536382469,1.251
0.004592421886131695,1.252
0.004580280803996689,1.253
0.004569238271974058,1.254
0.004559269186446945,1.255
0.00455034719646585,1.256
0.004542444588890768,1.257
0.00453553201275212,1.258
0.004529578011097694,1.259
0.004524548365386747,1.26
0.004520405415272874,1.261
0.004517107734020185,1.262
0.004514610372144686,1.263
0.004512865404823788,1.264
0.004511822423864825,1.265
0.004511428867669602,1.266
0.004511630220491313,1.267
0.004512370133597795,1.268
0.004513590532110499,1.269
0.004515231768366586,1.27
0.0045172328658751116,1.271
0.004519531867850029,1.272
0.004522066259494886,1.273
0.004524773380627629,1.274
0.004527590708019966,1.275
0.004530455890505766,1.276
0.004533306467967632,1.277
0.0045360792747206604,1.278
0.004538709589917972,1.279
0.0045411301654639255,1.28
0.004543270415605425,1.281
0.004545056163467809,1.282
0.0045464100719607116,1.283
0.004547252483756963,1.284
0.00454750241101377,1.285
0.00454707865675965,1.286
0.004545901102241533,1.287
0.00454389210506022,1.288
0.00454097785406064,1.289
0.004537089458342023,1.29
0.004532163538470213,1.291
0.004526142145560181,1.292
0.004518971936705228,1.293
0.004510602638511581,1.294
0.004500984928736544,1.295
0.0044900683521795545,1.296
0.0044778006766213055,1.297
0.00446412962294422,1.298
0.004449006239039857,1.299
0.0044323886200487465,1.3
0.0044142452356482785,1.301
0.004394557381638144,1.302
0.004373320262967957,1.303
0.004350542315780382,1.304
0.004326242581856297,1.305
0.0043004465135706655,1.306
0.0042731820342087464,1.307
0.004244478665049319,1.308
0.004214370429251708,1.309
0.004182900005880142,1.31
0.0041501214234362024,1.311
0.004116100412291413,1.312
0.004080912621770233,1.313
0.0040446402847066154,1.314
0.00400736833020262,1.315
0.00396918150094425,1.316
0.003930163693885466,1.317
0.003890399035625877,1.318
0.003849973092368001,1.319
0.003808973247676182,1.32
0.003767488235933578,1.321
0.0037256071353547735,1.322
0.0036834181379639644,1.323
0.0036410073994209147,1.324
0.0035984582419135796,1.325
0.0035558508307481397,1.326
0.003513262158369314,1.327
0.003470766056556466,1.328
0.003428433160566995,1.329
0.003386330938024476,1.33
0.0033445238304386287,1.331
0.0033030734180297264,1.332
0.003262038512477714,1.333
0.003221475151180412,1.334
0.003181436515746973,1.335
0.003141972839965457,1.336
0.0031031313895715346,1.337
0.003064956531850521,1.338
0.003027489836427859,1.339
0.0029907701621241243,1.34
0.002954833734155313,1.341
0.002919714220030071,1.342
0.0028854427904825663,1.343
0.0028520481392910555,1.344
0.0028195564439008596,1.345
0.0027879912976430696,1.346
0.002757373712387191,1.347
0.0027277222619265847,1.348
0.0026990533143306443,1.349
0.0026713812475650405,1.35
0.0026447185756590516,1.351
0.0026190759473647103,1.352
0.002594462012955228,1.353
0.0025708832365513037,1.354
0.002548343826272953,1.355
0.002526845877380587,1.356
0.0025063896116821766,1.357
0.002486973542475402,1.358
0.0024685944941972952,1.359
0.002451247474115582,1.36
0.0024349254691379105,1.361
0.002419619352399227,1.362
0.002405318023425024,1.363
0.0023920086802320614,1.364
0.002379677051675822,1.365
0.0023683075214634506,1.366
0.0023578831485433615,1.367
0.002348385613948786,1.368
0.0023397951379246257,1.369
0.0023320904080965936,1.37
0.002325248542044443,1.371
0.0023192450863155013,1.372
0.002314054039980664,1.373
0.002309647885936238,1.374
0.002305997608776236,1.375
0.0023030726681053325,1.376
0.0023008408865530876,1.377
0.0022992682723349278,1.378
0.0022983189504385587,1.379
0.00229795538743457,1.38
0.0022981388669258383,1.381
0.0022988300198021577,1.382
0.0022999892531910485,1.383
0.0023015769768550717,1.384
0.0023035535542385395,1.385
0.0023058789590647117,1.386
0.0023085122160794265,1.387
0.00231141085990217,1.388
0.0023145307142613675,1.389
0.0023178260512325293,1.39
0.0023212498813629506,1.391
0.0023247541699294365,1.392
0.0023282900104470696,1.393
0.0023318078914473656,1.394
0.0023352581603697784,1.395
0.0023385916759829277,1.396
0.0023417604828347835,1.397
0.002344718215412135,1.398
0.0023474199237921087,1.399
0.00234982126247735,1.4
0.002351877641015458,1.401
0.00235354435087475,1.402
0.0023547779393433563,1.403
0.002355537982111897,1.404
0.002355788278501788,1.405
0.0023554970062200703,1.406
0.0023546357209735702,1.407
0.002353177605291082,1.408
0.002351096284784484,1.409
0.002348366463878745,1.41
0.002344966026515499,1.411
0.0023408781496137136,1.412
0.002336092386260951,1.413
0.0023306043740502747,1.414
0.002324414188782227,1.415
0.0023175239910380977,1.416
0.002309936569234578,1.417
0.0023016559654255096,1.418
0.002292689384695463,1.419
0.002283048710125567,1.42
0.0022727507662904456,1.421
0.0022618162874276735,1.422
0.0022502680463848423,1.423
0.002238129211744388,1.424
0.0022254230093540924,1.425
0.002212173583649893,1.426
0.002198406919986593,1.427
0.002184150980851796,1.428
0.0021694349710296066,1.429
0.002154288160117961,1.43
0.0021387390781259703,1.431
0.002122815650826666,1.432
0.0021065459313891846,1.433
0.0020899587023891397,1.434
0.002073083610132439,1.435
0.0020559508541344125,1.436
0.0020385905616388885,1.437
0.0020210320629114866,1.438
0.0020033034093329466,1.439
0.0019854313817301676,1.44
0.001967441868608525,1.441
0.0019493603160041482,1.442
0.0019312121066265362,1.443
0.001913022875577843,1.444
0.0018948187773968103,1.445
0.0018766266802231115,1.446
0.0018584742381334964,1.447
0.0018403897967621053,1.448
0.001822402116395606,1.449
0.0018045399348164462,1.45
0.0017868314247406578,1.451
0.0017693036825114441,1.452
0.0017519824903597285,1.453
0.0017348924600206646,1.454
0.0017180573590944658,1.455
0.0017015003800248786,1.456
0.001685244286208908,1.457
0.0016693114545702748,1.458
0.0016537238378329072,1.459
0.0016385028708752578,1.46
0.0016236693430175294,1.461
0.001609243249408293,1.462
0.0015952436224234603,1.463
0.001581688348452033,1.464
0.0015685940285703663,1.465
0.0015559759892443859,1.466
0.0015438484745324394,1.467
0.0015322249172646037,1.468
0.0015211181533417361,1.469
0.0015105404873902056,1.47
0.0015005035633021623,1.471
0.0014910181007334045,1.472
0.0014820937077482084,1.473
0.001473738907778678,1.474
0.001465961240128635,1.475
0.001458767239676966,1.476
0.0014521623418529,1.477
0.0014461508943548074,1.478
0.0014407363050737095,1.479
0.0014359211752112883,1.48
0.0014317072942579064,1.481
0.0014280955024044309,1.482
0.0014250855203422964,1.483
0.0014226758721915549,1.484
0.0014208639289777095,1.485
0.0014196459763766696,1.486
0.001419017226380671,1.487
0.001418971779641713,1.488
0.0014195025795581686,1.489
0.0014206013931823405,1.49
0.0014222588388008775,1.491
0.0014244644584461227,1.492
0.0014272068114026895,1.493
0.0014304735487034347,1.494
0.0014342514232557133,1.495
0.0014385262066763525,1.496
0.0014432825611954475,1.497
0.0014485040141648728,1.498
0.0014541731293948462,1.499
0.0014602717950030636,1.5
0.0014667815008252627,1.501
0.0014736835571274023,1.502
0.0014809592521798484,1.503
0.0014885899482050208,1.504
0.0014965571102799988,1.505
0.0015048422594028234,1.506
0.0015134268424990406,1.507
0.0015222920150480144,1.508
0.0015314183345463267,1.509
0.0015407854212344198,1.51
0.001550371757667453,1.511
0.0015601547433725525,1.512
0.0015701108686539402,1.513
0.0015802157738643223,1.514
0.001590444128704665,1.515
0.001600769510325581,1.516
0.0016111645447282623,1.517
0.0016216013702866966,1.518
0.001632052228686948,1.519
0.0016424899460770572,1.52
0.0016528881229354012,1.521
0.001663220877121122,1.522
0.0016734622488144358,1.523
0.001683585966236746,1.524
0.0016935662449184844,1.525
0.00170337934112522,1.526
0.001713005008245826,1.527
0.001722427270431607,1.528
0.0017316343021075062,1.529
0.0017406174451130463,1.53
0.0017493696803454733,1.531
0.0017578842787819378,1.532
0.001766154436470998,1.533
0.001774173945541745,1.534
0.0017819381637874663,1.535
0.0017894446696092464,1.536
0.0017966934977408204,1.537
0.0018036870494238515,1.538
0.0018104297672787875,1.539
0.0018169276412144592,1.54
0.0018231875868245948,1.541
0.001829216723293971,1.542
0.0018350216363898612,1.543
0.0018406078700990698,1.544
0.001845979886272854,1.545
0.0018511414107647837,1.546
0.0018560958483778726,1.547
0.0018608465555758687,1.548
0.0018653969346991216,1.549
0.001869750368748049,1.55
0.0018739100209218661,1.551
0.0018778785324460635,1.552
0.0018816576673833275,1.553
0.001885247962555544,1.554
0.001888648442491871,1.555
0.0018918564590583665,1.556
0.0018948676817766227,1.557
0.0018976761993408304,1.558
0.0019002746716823703,1.559
0.0019026545048888967,1.56
0.0019048060468145845,1.561
0.0019067188056601102,1.562
0.0019083816945025382,1.563
0.0019097833034666376,1.564
0.0019109121931590839,1.565
0.0019117571869347422,1.566
0.0019123076203651764,1.567
0.0019125534932533646,1.568
0.0019124854703534194,1.569
0.0019120946918868376,1.57
0.001911372377766458,1.571
0.0019103092678198212,1.572
0.0019088951225272358,1.573
0.0019071186793546812,1.574
0.0019049682445586127,1.575
0.0019024326715192433,1.576
0.0018995023743613706,1.577
0.001896170163694986,1.578
0.0018924317497516212,1.579
0.0018882857798534552,1.58
0.0018837333508772882,1.581
0.0018787770456843988,1.582
0.001873419748206466,1.583
0.0018676637885253209,1.584
0.0018615108867951898,1.585
0.0018549627383158194,1.586
0.0018480217033261426,1.587
0.0018406913118545981,1.588
0.0018329766061390236,1.589
0.0018248843985512074,1.59
0.0018164234546096637,1.591
0.0018076045322990046,1.592
0.0017984401641457787,1.593
0.0017889440812309824,1.594
0.0017791303476282147,1.595
0.001769012665785481,1.596
0.0017586044465040106,1.597
0.0017479196533689036,1.598
0.0017369738043376535,1.599
0.0017257845697645799,1.6
0.0017143717719578632,1.601
0.0017027568099244094,1.602
0.0016909616916304616,1.603
0.0016790081059575234,1.604
0.0016669170716563186,1.605
0.0016547092565862896,1.606
0.0016424054915296958,1.607
0.0016300270491689834,1.608
0.0016175956394767158,1.609
0.0016051332425931757,1.61
0.00159266189742849,1.611
0.0015802035236560019,1.612
0.0015677798013096695,1.613
0.0015554120891397502,1.614
0.0015431213427077781,1.615
0.001530927995923515,1.616
0.0015188517847385496,1.617
0.0015069115201944959,1.618
0.0014951248926216908,1.619
0.0014835084541935284,1.62
0.0014720778306203184,1.621
0.0014608480319547763,1.622
0.0014498336977031298,1.623
0.001439049190527391,1.624
0.0014285085110340916,1.625
0.0014182250488637203,1.626
0.0014082112761792025,1.627
0.001398478591767614,1.628
0.0013890374235424974,1.629
0.0013798974457046114,1.63
0.0013710677145320847,1.631
0.0013625566552450561,1.632
0.0013543719140460676,1.633
0.001346520158674623,1.634
0.0013390069921350666,1.635
0.0013318370648581614,1.636
0.0013250142683931116,1.637
0.001318541842242992,1.638
0.0013124223233116977,1.639
0.0013066573804829977,1.64
0.0013012476906251154,1.641
0.0012961929840511765,1.642
0.0012914921845707196,1.643
0.0012871434714450296,1.644
0.0012831441965526743,1.645
0.001279490740955949,1.646
0.0012761784594011079,1.647
0.0012732017615050269,1.648
0.0012705542274228632,1.649
0.001268228648354599,1.65
0.0012662169638878716,1.651
0.0012645101381119474,1.652
0.0012630980830732354,1.653
0.001261969710778268,1.654
0.001261113064020046,1.655
0.0012605154320122893,1.656
0.0012601634279813098,1.657
0.001260043057802232,1.658
0.0012601398066688896,1.659
0.0012604387481164195,1.66
0.001260924657163343,1.661
0.0012615820956648636,1.662
0.0012623954329434779,1.663
0.0012633487687534605,1.664
0.001264425740230256,1.665
0.0012656092612471801,1.666
0.001266881362804976,1.667
0.001268223280444429,1.668
0.0012696157140523313,1.669
0.001271039057655518,1.67
0.0012724734617670403,1.671
0.001273898686918862,1.672
0.0012752938721717678,1.673
0.0012766375660860916,1.674
0.001277908266424482,1.675
0.0012790852940105144,1.676
0.0012801496307494472,1.677
0.001281084450544715,1.678
0.0012818751713153667,1.679
0.001282508930717972,1.68
0.0012829736737724443,1.681
0.0012832575683187613,1.682
0.0012833494257698255,1.683
0.0012832399029116199,1.684
0.0012829226833647206,1.685
0.0012823950966138746,1.686
0.0012816580206332618,1.687
0.0012807151176707939,1.688
0.001279571614726797,1.689
0.0012782330894091846,1.69
0.001276704879757145,1.691
0.0012749922924184176,1.692
0.0012731010961043478,1.693
0.0012710377839459505,1.694
0.0012688095208814136,1.695
0.0012664238872535775,1.696
0.0012638885335900436,1.697
0.0012612108422429004,1.698
0.0012583976563519121,1.699
0.001255455097182869,1.7
0.0012523884602209845,1.701
0.0012492021653988247,1.702
0.001245899737255542,1.703
0.0012424838035544488,1.704
0.00123895612102131,1.705
0.0012353176539881426,1.706
0.0012315687317366272,1.707
0.0012277092878717494,1.708
0.001223739151853443,1.709
0.0012196583377882357,1.71
0.001215467268362042,1.711
0.0012111668796235566,1.712
0.00120675856954379,1.713
0.0012022439776542284,1.714
0.001197624611440976,1.715
0.0011929014325266156,1.716
0.0011880746694127417,1.717
0.0011831440284946143,1.718
0.0011781091405239253,1.719
0.0011729699795453375,1.72
0.0011677271438757407,1.721
0.0011623819851980118,1.722
0.001156936590979392,1.723
0.001151393633571672,1.724
0.0011457561009297638,1.725
0.0011400269258777737,1.726
0.0011342085889967527,1.727
0.0011283028932008218,1.728
0.001122311073795638,1.729
0.0011162341588310085,1.73
0.0011100733648376786,1.731
0.0011038304031029285,1.732
0.001097507666259418,1.733
0.0010911082939016833,1.734
0.001084636123171996,1.735
0.0010780955284724256,1.736
0.0010714911496650004,1.737
0.0010648275205179694,1.738
0.0010581087040545446,1.739
0.001051338164384389,1.74
0.0010445189880705914,1.741
0.0010376542809138257,1.742
0.0010307475111508415,1.743
0.0010238027163063565,1.744
0.0010168245731196055,1.745
0.001009818343636263,1.746
0.0010027897141814612,1.747
0.000995744541472527,1.748
0.0009886885209430478,1.749
0.0009816268520444758,1.75
0.0009745640808557841,1.751
0.0009675042322412513,1.752
0.0009604511160083947,1.753
0.0009534086318758055,1.754
0.0009463810007362212,1.755
0.0009393729047855397,1.756
0.0009323895356142326,1.757
0.0009254365728287341,1.758
0.0009185201263553378,1.759
0.0009116466654284129,1.76
0.0009048229366709373,1.761
0.0008980558567677201,1.762
0.000891352358734665,1.763
0.0008847191757960585,1.764
0.0008781625971195118,1.765
0.0008716883186707493,1.766
0.0008653014769572689,1.767
0.0008590067729164077,1.768
0.000852808521016629,1.769
0.000846710573049895,1.77
0.0008407162162720308,1.771
0.0008348281853921102,1.772
0.0008290487989495147,1.773
0.000823380091603757,1.774
0.000817823829827634,1.775
0.000812381403133041,1.776
0.0008070536889955809,1.777
0.000801841032267907,1.778
0.0007967433724224701,1.779
0.000791760411281723,1.78
0.0007868917229181717,1.781
0.000782136796946064,1.782
0.0007774950469828967,1.783
0.0007729658120481056,1.784
0.0007685483596844753,1.785
0.0007642418747214273,1.786
0.0007600453986883321,1.787
0.0007559576974275081,1.788
0.0007519771192077409,1.789
0.0007481015942486095,1.79
0.0007443288459446412,1.791
0.0007406567057352679,1.792
0.0007370833887702055,1.793
0.0007336076641632724,1.794
0.0007302288931702783,1.795
0.0007269469184294675,1.796
0.0007237618077382286,1.797
0.0007206735228292681,1.798
0.0007176816865227827,1.799
0.0007147855795404462,1.8
0.0007119842800364159,1.801
0.000709276755127116,1.802
0.0007066618165762543,1.803
0.0007041379716930729,1.804
0.0007017032614149227,1.805
0.0006993551797160283,1.806
0.0006970906807467893,1.807
0.0006949061938388782,1.808
0.0006927975959277007,1.809
0.000690760169785249,1.81
0.0006887886075274209,1.811
0.0006868771093297316,1.812
0.0006850196017333899,1.813
0.0006832100649027404,1.814
0.0006814429209282594,1.815
0.0006797134039476213,1.816
0.0006780178158234977,1.817
0.0006763535770395941,1.818
0.0006747190186273652,1.819
0.0006731129555433539,1.82
0.0006715342653572002,1.821
0.0006699817878086304,1.822
0.0006684546068612854,1.823
0.000666952442025299,1.824
0.0006654758881285485,1.825
0.000664026448421494,1.826
0.0006626064086907071,1.827
0.0006612186133474572,1.828
0.0006598661945760238,1.829
0.0006585522864066003,1.83
0.0006572797627004886,1.831
0.000656051080288943,1.832
0.0006548682844033118,1.833
0.0006537331117868206,1.834
0.0006526470642571224,1.835
0.000651611381329554,1.836
0.0006506269330492694,1.837
0.0006496941328654435,1.838
0.0006488129482010043,1.839
0.0006479829559111696,1.84
0.0006472033441610178,1.841
0.0006464728849101122,1.842
0.0006457900051644747,1.843
0.0006451530095083126,1.844
0.0006445603713501674,1.845
0.0006440109945803829,1.846
0.0006435044051158279,1.847
0.0006430408590146215,1.848
0.0006426213559639946,1.849
0.0006422475540362519,1.85
0.000641921598433206,1.851
0.0006416458958474443,1.852
0.0006414228768318889,1.853
0.0006412547874505753,1.854
0.0006411435417973244,1.855
0.0006410906535918151,1.856
0.0006410972493368155,1.857
0.0006411641457968435,1.858
0.0006412919522275411,1.859
0.000641481142277467,1.86
0.0006417320445569906,1.861
0.0006420447406569043,1.862
0.0006424189455358249,1.863
0.0006428540018605343,1.864
0.0006433490345395591,1.865
0.0006439031730623019,1.866
0.0006445157293850584,1.867
0.0006451862791277877,1.868
0.0006459146317551405,1.869
0.0006467006962064052,1.87
0.0006475442727080074,1.871
0.0006484448281457194,1.872
0.0006494013297852102,1.873
0.0006504122016973226,1.874
0.0006514754338092254,1.875
0.0006525888264129313,1.876
0.000653750298810523,1.877
0.0006549581573201538,1.878
0.0006562112263776558,1.879
0.0006575087826512584,1.88
0.0006588503030302439,1.881
0.0006602351888501704,1.882
0.0006616627376771243,1.883
0.0006631324512760108,1.884
0.0006646444645212611,1.885
0.0006661998485023616,1.886
0.0006678007063344601,1.887
0.0006694500917952335,1.888
0.0006711518268641234,1.889
0.0006729103077786355,1.89
0.0006747303656593454,1.891
0.0006766172005906197,1.892
0.0006785763611678346,1.893
0.0006806137153980515,1.894
0.0006827353607905102,1.895
0.0006849474451262431,1.896
0.0006872559284997316,1.897
0.0006896664099131302,1.898
0.0006921841380825453,1.899
0.0006948141640041225,1.9
0.0006975614751312645,1.901
0.0007004310039592456,1.902
0.0007034275045588785,1.903
0.0007065553628544337,1.904
0.0007098184512994135,1.905
0.0007132200846525458,1.906
0.0007167630168125319,1.907
0.000720449421362824,1.908
0.0007242808924229135,1.909
0.0007282584976996223,1.91
0.0007323828403233495,1.911
0.0007366540806874682,1.912
0.0007410719150031369,1.913
0.0007456355296008043,1.914
0.0007503435497464506,1.915
0.000755193994708533,1.916
0.0007601842405816872,1.917
0.0007653109868777307,1.918
0.0007705702297641208,1.919
0.0007759572564157227,1.92
0.000781466670235912,1.921
0.0007870924396449553,1.922
0.0007928279589703919,1.923
0.0007986661176637954,1.924
0.0008045993765657469,1.925
0.0008106198443896386,1.926
0.0008167193396596097,1.927
0.0008228894191901081,1.928
0.0008291213571938339,1.929
0.0008354060679238886,1.93
0.0008417339800063575,1.931
0.0008480949097909662,1.932
0.0008544780210131812,1.933
0.0008608719061688915,1.934
0.0008672647123266449,1.935
0.0008736442095910872,1.936
0.0008799977594763834,1.937
0.0008863121999193108,1.938
0.0008925737264146081,1.939
0.0008987678741085016,1.94
0.0009048796235815178,1.941
0.0009108935540258763,1.942
0.0009167939741625538,1.943
0.000922565021921716,1.944
0.0009281907565760268,1.945
0.0009336552768673387,1.946
0.0009389428969172752,1.947
0.0009440383920363412,1.948
0.0009489272898034441,1.949
0.0009535961412285268,1.95
0.0009580326829828522,1.951
0.0009622258064050053,1.952
0.0009661652767542051,1.953
0.0009698412404884686,1.954
0.0009732437937104572,1.955
0.0009763630277408975,1.956
0.0009791896616036398,1.957
0.0009817159303086122,1.958
0.0009839363511346976,1.959
0.0009858481749969246,1.96
0.0009874514314711382,1.961
0.0009887485331975746,1.962
0.0009897434883566446,1.963
0.0009904409485797672,1.964
0.0009908455636638588,1.965
0.0009909619870066947,1.966
0.0009907953210894847,1.967
0.0009903515361167953,1.968
0.0009896376401018756,1.969
0.0009886616263503297,1.97
0.0009874322884271672,1.971
0.0009859589844905445,1.972
0.0009842514051700468,1.973
0.0009823193672058813,1.974
0.0009801726307668546,1.975
0.0009778207258831196,1.976
0.0009752727698633602,1.977
0.0009725372818518915,1.978
0.0009696220669247978,1.979
0.0009665342537344193,1.98
0.0009632804528789224,1.981
0.0009598668958641688,1.982
0.0009562994349480118,1.983
0.0009525834143272088,1.984
0.0009487236041725386,1.985
0.0009447243967347587,1.986
0.0009405902231908712,1.987
0.000936325986995591,1.988
0.0009319373612151979,1.989
0.00092743088499525,1.99
0.0009228138457304876,1.991
0.0009180939712827517,1.992
0.0009132790101789575,1.993
0.000908376391105207,1.994
0.0009033931987654451,1.995
0.0008983364950188329,1.996
0.0008932137552983789,1.997
0.0008880331851930971,1.998
0.0008828038213131551,1.999
0.0008775354119651539,2.0
0.0008722381254076256,2.001
0.0008669221706143676,2.002
0.0008615974271845169,2.003
0.000856273169690991,2.004
0.0008509579289365523,2.005
0.0008456594565748189,2.006
0.0008403847185962424,2.007
0.0008351398831917386,2.008
0.0008299303178976807,2.009
0.0008247606166888017,2.01
0.0008196346640663296,2.011
0.0008145557277395292,2.012
0.0008095265605382192,2.013
0.000804549491215477,2.014
0.0007996264890980657,2.015
0.0007947591968119491,2.016
0.0007899489389768855,2.017
0.0007851967304003441,2.018
0.0007805033186640502,2.019
0.000775869295439649,2.02
0.0007712952938928563,2.021
0.0007667822587058422,2.022
0.0007623317402311434,2.023
0.0007579461371832683,2.024
0.0007536288034419406,2.025
0.0007493839523908665,2.026
0.0007452163396663387,2.027
0.0007411308203601768,2.028
0.0007371320332715935,2.029
0.0007332244093469434,2.03
0.0007294123981516116,2.031
0.0007257006604315486,2.032
0.0007220941083681748,2.033
0.0007185978161715743,2.034
0.0007152168635168378,2.035
0.0007119561671739685,2.036
0.000708820332924509,2.037
0.0007058135400237182,2.038
0.0007029394657808134,2.039
0.0007002012597556297,2.04
0.0006976015706754592,2.041
0.0006951426132420789,2.042
0.0006928262480809747,2.043
0.0006906540450594476,2.044
0.00068862730712444,2.045
0.0006867470431862255,2.046
0.0006850138903767878,2.047
0.000683428011012433,2.048
0.0006819890305016221,2.049
0.0006806960796478733,2.05
0.0006795479430366877,2.051
0.0006785432823522399,2.052
0.0006776809157322538,2.053
0.0006769601262625092,2.054
0.0006763809417698297,2.055
0.0006759443138600649,2.056
0.0006756521414358182,2.057
0.0006755071234400377,2.058
0.0006755124697915974,2.059
0.0006756715313656416,2.06
0.0006759874481537757,2.061
0.0006764629561601917,2.062
0.0006771004209106378,2.063
0.0006779020003267323,2.064
0.0006788697959071598,2.065
0.0006800059280695844,2.066
0.0006813125195846927,2.067
0.0006827915817554395,2.068
0.000684444836234918,2.069
0.0006862735768967143,2.07
0.000688278661941251,2.071
0.00069046058811714,2.072
0.0006928195240779665,2.073
0.0006953552490090638,2.074
0.0006980670401811876,2.075
0.0007009535969150533,2.076
0.0007040130373660616,2.077
0.0007072429151026919,2.078
0.0007106402037752108,2.079
0.0007142012592195108,2.08
0.0007179217877192422,2.081
0.0007217968336230459,2.082
0.0007258207880031473,2.083
0.0007299874197615113,2.084
0.0007342899299179403,2.085
0.0007387210177299743,2.086
0.0007432729314436873,2.087
0.0007479374735438033,2.088
0.0007527059482234261,2.089
0.0007575690854393426,2.09
0.0007625170242077973,2.091
0.0007675394047735594,2.092
0.0007726255253860084,2.093
0.0007777644878188909,2.094
0.0007829452883885661,2.095
0.0007881568382145537,2.096
0.0007933879129249871,2.097
0.000798627045681867,2.098
0.0008038623834799408,2.099
0.0008090815349293361,2.1
0.0008142714533951763,2.101
0.0008194183836253118,2.102
0.000824507852661347,2.103
0.00082952470189058,2.104
0.0008344532243899404,2.105
0.0008392774606123839,2.106
0.0008439816278652134,2.107
0.0008485506062448454,2.108
0.000852970373259655,2.109
0.0008572282551176803,2.11
0.0008613128706242675,2.111
0.0008652137086019729,2.112
0.0008689205277432167,2.113
0.0008724231151124726,2.114
0.0008757117528455854,2.115
0.0008787780698458646,2.116
0.0008816157389619964,2.117
0.0008842207625350327,2.118
0.000886591291732809,2.119
0.0008887270150859073,2.12
0.0008906283222213856,2.121
0.0008922956902807204,2.122
0.0008937296662200034,2.123
0.0008949313154296685,2.124
0.0008959027131870124,2.125
0.0008966472395590552,2.126
0.0008971696644164318,2.127
0.0008974760613573921,2.128
0.0008975735764448601,2.129
0.0008974700684135123,2.13
0.0008971736424462245,2.131
0.0008966921795311692,2.132
0.0008960330923424137,2.133
0.0008952034395107687,2.134
0.000894210231529437,2.135
0.0008930606916775821,2.136
0.0008917623842297585,2.137
0.0008903231997192878,2.138
0.0008887511925375945,2.139
0.0008870542980304288,2.14
0.0008852400570343374,2.141
0.0008833155487047107,2.142
0.0008812875849520536,2.143
0.0008791629867343615,2.144
0.0008769487482284911,2.145
0.0008746520306257027,2.146
0.0008722800129292083,2.147
0.0008698396589258804,2.148
0.0008673374706938862,2.149
0.0008647792979848454,2.15
0.0008621702569120647,2.151
0.000859514755619691,2.152
0.0008568165706023511,2.153
0.0008540789305382484,2.154
0.0008513046037065941,2.155
0.0008484959925225979,2.156
0.0008456552276910551,2.157
0.000842784244208979,2.158
0.0008398848147201464,2.159
0.0008369585135171177,2.16
0.0008340065941629813,2.161
0.0008310298379917102,2.162
0.0008280285461635954,2.163
0.0008250027937267881,2.164
0.0008219528446552825,2.165
0.0008188795385756799,2.166
0.0008157845342896548,2.167
0.0008126703639976132,2.168
0.0008095402956903298,2.169
0.0008063980424141187,2.17
0.0008032473844861164,2.171
0.0008000918033447002,2.172
0.0007969342599029832,2.173
0.0007937771820904329,2.174
0.0007906225716404797,2.175
0.0007874720915137856,2.176
0.0007843270645117793,2.177
0.0007811883859669534,2.178
0.0007780564346154795,2.179
0.0007749311069545175,2.18
0.000771811997854825,2.181
0.0007686986133604588,2.182
0.0007655904922844187,2.183
0.000762487179789866,2.184
0.0007593880630199697,2.185
0.0007562921888205552,2.186
0.0007531982649028028,2.187
0.0007501049162660388,2.188
0.0007470110463814198,2.189
0.0007439161191669416,2.19
0.0007408202857178198,2.191
0.0007377243534556831,2.192
0.0007346296241856017,2.193
0.0007315376375538343,2.194
0.0007284498658016321,2.195
0.0007253674616329414,2.196
0.0007222912076849447,2.197
0.000719221701504682,2.198
0.0007161596254898168,2.199
0.0007131059354409606,2.2
0.0007100619094292852,2.201
0.0007070290734099542,2.202
0.0007040090516071275,2.203
0.0007010034003721423,2.204
0.0006980134756010939,2.205
0.0006950403648817935,2.206
0.0006920848938189005,2.207
0.0006891476956968786,2.208
0.0006862293199735634,2.209
0.000683330352998598,2.21
0.0006804515307144328,2.211
0.0006775938287688484,2.212
0.0006747585179738018,2.213
0.000671947178645928,2.214
0.0006691616777202102,2.215
0.0006664041177923172,2.216
0.0006636767590461427,2.217
0.0006609819006589791,2.218
0.0006583217070525955,2.219
0.0006556980232195207,2.22
0.000653112317767929,2.221
0.000650565840328894,2.222
0.0006480598961186707,2.223
0.0006455960887742845,2.224
0.0006431764695519175,2.225
0.0006408035861485218,2.226
0.0006384804336425252,2.227
0.0006362103113753982,2.228
0.0006339965916703355,2.229
0.0006318424555995471,2.23
0.000629750740673291,2.231
0.0006277239945550067,2.232
0.000625764631396077,2.233
0.0006238750220664244,2.234
0.000622057452718285,2.235
0.0006203139826672044,2.236
0.0006186462939763882,2.237
0.0006170556324179131,2.238
0.0006155428423847713,2.239
0.0006141084030305179,2.24
0.0006127523990541527,2.241
0.0006114744497857933,2.242
0.0006102736747170739,2.243
0.0006091487437641668,2.244
0.0006080979837547748,2.245
0.0006071194891060583,2.246
0.000606211210908027,2.247
0.0006053710150963735,2.248
0.0006045967102918118,2.249
0.0006038860586469769,2.25
0.0006032367877437249,2.251
0.0006026466138926974,2.252
0.0006021132731902846,2.253
0.0006016345450810537,2.254
0.0006012082487047197,2.255
0.0006008321957720992,2.256
0.000600504091468057,2.257
0.0006002213964117638,2.258
0.0005999812202505167,2.259
0.0005997803527045594,2.26
0.0005996154515719294,2.261
0.0005994832766227096,2.262
0.0005993808337029178,2.263
0.0005993053508421175,2.264
0.0005992540958621237,2.265
0.0005992241874476164,2.266
0.0005992126162305186,2.267
0.000599216513086368,2.268
0.0005992334811699476,2.269
0.0005992618132109721,2.27
0.0005993005404422392,2.271
0.0005993493324514015,2.272
0.0005994082932297749,2.273
0.0005994777074889153,2.274
0.0005995577861698001,2.275
0.0005996484494144587,2.276
0.0005997491839814222,2.277
0.0005998590140913875,2.278
0.0005999765990175841,2.279
0.000600100428967768,2.28
0.0006002290657195399,2.281
0.0006003613504822897,2.282
0.0006004964768433744,2.283
0.0006006338579153125,2.284
0.0006007728796174411,2.285
0.0006009128082696191,2.286
0.0006010529722568571,2.287
0.0006011929817292277,2.288
0.0006013327025371673,2.289
0.0006014720160280358,2.29
0.0006016107024348997,2.291
0.0006017486727796688,2.292
0.0006018863524612382,2.293
0.0006020248910494541,2.294
0.0006021660685368218,2.295
0.0006023119720341504,2.296
0.0006024647194823398,2.297
0.0006026265253422608,2.298
0.0006028000747874324,2.299
0.0006029888953251142,2.3
0.0006031974878214437,2.301
0.0006034311769373685,2.302
0.0006036957597474007,2.303
0.0006039970913044642,2.304
0.0006043407698651885,2.305
0.0006047320208819006,2.306
0.0006051757265409385,2.307
0.0006056764556601737,2.308
0.0006062384232927122,2.309
0.00060686545968759,2.31
0.0006075611149731297,2.311
0.0006083289162645445,2.312
0.0006091726840590696,2.313
0.0006100968117717753,2.314
0.0006111064464816113,2.315
0.0006122075290074971,2.316
0.0006134066740542282,2.317
0.0006147109028630631,2.318
0.000616127298699468,2.319
0.0006176627457590825,2.32
0.0006193239085801154,2.321
0.0006211174347246989,2.322
0.0006230502243807777,2.323
0.0006251296520886703,2.324
0.0006273637111087414,2.325
0.0006297610787674698,2.326
0.0006323311059954128,2.327
0.0006350837383055792,2.328
0.0006380293754176579,2.329
0.0006411786757765256,2.33
0.0006445423145302324,2.331
0.0006481307352115388,2.332
0.0006519539994789664,2.333
0.0006560218223820913,2.334
0.0006603437519483307,2.335
0.0006649293853378705,2.336
0.0006697885626813111,2.337
0.0006749315248240394,2.338
0.0006803690238411807,2.339
0.0006861123696875225,2.34
0.0006921733996744658,2.341
0.0006985643723385643,2.342
0.0007052978080342744,2.343
0.0007123863142401454,2.344
0.0007198424348923579,2.345
0.0007276785464524681,2.346
0.0007359067933647854,2.347
0.0007445390264619049,2.348
0.0007535867068376386,2.349
0.0007630608010768995,2.35
0.000772971771470672,2.351
0.0007833297133561989,2.352
0.0007941445528014407,2.353
0.0008054261870423727,2.354
0.0008171845170778118,2.355
0.0008294293670311488,2.356
0.0008421703026397091,2.357
0.0008554164104260763,2.358
0.0008691761726616513,2.359
0.0008834575222114619,2.36
0.0008982679954487096,2.361
0.000913614854781602,2.362
0.0009295051308943431,2.363
0.0009459455846237427,2.364
0.0009629426039192368,2.365
0.0009805020690023165,2.366
0.0009986292296810448,2.367
0.0010173286306260853,2.368
0.0010366040952353287,2.369
0.0010564587534733674,2.37
0.001076895088088444,2.371
0.0010979149734234132,2.372
0.001119519678517903,2.373
0.0011417097998832166,2.374
0.001164485133083397,2.375
0.0011878446024311032,2.376
0.0012117863675005305,2.377
0.0012363080507720558,2.378
0.0012614069233852524,2.379
0.001287079935673883,2.38
0.001313323554605389,2.381
0.001340133483719015,2.382
0.001367504494147694,2.383
0.001395430526984185,2.384
0.0014239049468074384,2.385
0.0014529207384264148,2.386
0.001482470568911736,2.387
0.0015125467203539328,2.388
0.001543140910622937,2.389
0.0015742440246157637,2.39
0.0016058458239136448,2.391
0.0016379347794795449,2.392
0.001670498110284055,2.393
0.0017035219223651425,2.394
0.0017369912939390975,2.395
0.001770890250098282,2.396
0.0018052016371185378,2.397
0.0018399069336194,2.398
0.0018749860752793948,2.399
0.0019104173791355307,2.4
0.0019461775685968214,2.401
0.001982241802898817,2.402
0.0020185836270525163,2.403
0.0020551748528679866,2.404
0.002091985464082134,2.405
0.002128983613387968,2.406
0.002166135664391118,2.407
0.0022034061830044477,2.408
0.002240757858449031,2.409
0.0022781514639370268,2.41
0.002315546004594205,2.411
0.0023528990740149538,2.412
0.0023901673199414027,2.413
0.0024273069145310552,2.414
0.0024642739483440273,2.415
0.002501024670537666,2.416
0.0025375155030905147,2.417
0.002573702779930838,2.418
0.0026095422081680634,2.419
0.0026449881830146486,2.42
0.002679993297518219,2.421
0.002714508325628401,2.422
0.002748482537332378,2.423
0.0027818639796094915,2.424
0.0028145995316352463,2.425
0.002846634744919668,2.426
0.0028779135368649242,2.427
0.002908377808950767,2.428
0.0029379671033418087,2.429
0.0029666184665754635,2.43
0.002994266576741864,2.431
0.0030208439650964082,2.432
0.003046281095886809,2.433
0.0030705062442115193,2.434
0.003093445476387812,2.435
0.003115023232438586,2.436
0.0031351636835391054,2.437
0.003153792590799273,2.438
0.0031708392706031006,2.439
0.0031862382981732067,2.44
0.0031999305672365725,2.441
0.00321186332337888,2.442
0.003221988856623735,2.443
0.003230262180174869,2.444
0.003236639516148478,2.445
0.0032410797054539513,2.446
0.003243548385672851,2.447
0.0032440227442221553,2.448
0.0032424948895732244,2.449
0.0032389729081218088,2.45
0.003233479381025242,2.451
0.0032260477082125543,2.452
0.0032167173094900785,2.453
0.0032055297177470705,2.454
0.0031925274691230517,2.455
0.003177755553437805,2.456
0.003161263375072824,2.457
0.0031431057626708,2.458
0.0031233428999015585,2.459
0.0031020395221381465,2.46
0.0030792637165090384,2.461
0.003055085606852407,2.462
0.0030295761319597365,2.463
0.003002806047304141,2.464
0.002974845199677055,2.465
0.0029457620511607013,2.466
0.002915623383362445,2.467
0.002884494105022664,2.468
0.0028524371036050167,2.469
0.0028195131022214306,2.47
0.0027857805018261,2.471
0.002751295246633261,2.472
0.00271611083727944,2.473
0.0026802785783984558,2.474
0.002643847986525677,2.475
0.0026068672158766886,2.476
0.0025693834055597106,2.477
0.0025314428935310795,2.478
0.002493091272078089,2.479
0.0024543732951923937,2.48
0.0024153326805676422,2.481
0.002376011870183799,2.482
0.0023364518162918273,2.483
0.002296691844811075,2.484
0.002256769626020976,2.485
0.0022167212616416767,2.486
0.002176581476867154,2.487
0.0021363838811984106,2.488
0.0020961612357436074,2.489
0.00205594564828542,2.49
0.0020157686225618083,2.491
0.001975660917894843,2.492
0.001935652245557929,2.493
0.001895770969460945,2.494
0.0018560440604578612,2.495
0.0018164973595811969,2.496
0.0017771559284435038,2.497
0.001738044263898997,2.498
0.0016991863211134888,2.499
0.0016606053809607756,2.5
0.0016223238197756414,2.501
0.0015843628582849869,2.502
0.001546742395828024,2.503
0.0015094810069879124,2.504
0.001472596056112764,2.505
0.0014361038052946025,2.506
0.001400019432800722,2.507
0.0013643569742773213,2.508
0.0013291292878139778,2.509
0.0012943481316694157,2.51
0.001260024314099601,2.511
0.001226167805000928,2.512
0.0011927877533823902,2.513
0.0011598924218085569,2.514
0.0011274890942489586,2.515
0.0010955840451139325,2.516
0.0010641826156233413,2.517
0.0010332893580854157,2.518
0.0010029081951456746,2.519
0.0009730425780513402,2.52
0.0009436956378348347,2.521
0.0009148703189225731,2.522
0.0008865694859372658,2.523
0.0008587959934042388,2.524
0.0008315527029640176,2.525
0.0008048424313034245,2.526
0.0007786678227757993,2.527
0.0007530311692650913,2.528
0.0007279342474410899,2.529
0.0007033782597401925,2.53
0.0006793638865597516,2.531
0.0006558913677713641,2.532
0.0006329605500590436,2.533
0.0006105708978303782,2.534
0.0005887214803407759,2.535
0.0005674109399478772,2.536
0.000546637452791848,2.537
0.000526398713046303,2.538
0.0005066919685956287,2.539
0.0004875140969094063,2.54
0.0004688616869550311,2.541
0.00045073110892834156,2.542
0.0004331185734714427,2.543
0.0004160201863925526,2.544
0.0003994320016354573,2.545
0.00038335007332441037,2.546
0.00036777050700176697,2.547
0.00035268950457776206,2.548
0.0003381033875278991,2.549
0.0003240085786988469,2.55
0.0003104015334080097,2.551
0.0002972786341915565,2.552
0.0002846360918883662,2.553
0.00027246990288208334,2.554
0.0002607758749634315,2.555
0.000249549695489076,2.556
0.0002387870252401009,2.557
0.00022848362081395087,2.558
0.0002186354743197535,2.559
0.00020923893064644757,2.56
0.00020029072796575115,2.561
0.00019178791955696046,2.562
0.00018372771267815234,2.563
0.0001761073778361684,2.564
0.00016892434058535553,2.565
0.00016217636449777776,2.566
0.0001558616633912486,2.567
0.0001499788824695883,2.568
0.00014452697505828408,2.569
0.00013950503552032336,2.57
0.00013491215620611152,2.571
0.0001307473566739609,2.572
0.00012700959736547293,2.573
0.00012369785728370453,2.574
0.00012081124216173301,2.575
0.00011834909695622183,2.576
0.000116311111090499,2.577
0.00011469741268895628,2.578
0.00011350864569554842,2.579
0.000112746018230507,2.58
0.00011241131017224998,2.581
0.00011250683547692928,2.582
0.00011303536763613507,2.583
0.0001140000499188657,2.584
0.00011540431856830179,2.585
0.00011725186010974094,2.586
0.00011954660408178688,2.587
0.00012229273120991702,2.588
0.00012549466761494857,2.589
0.00012915704186290726,2.59
0.00013328460101159683,2.591
0.0001378821220496064,2.592
0.00014295439303012075,2.593
0.00014850630119942534,2.594
0.00015454297837980098,2.595
0.00016106992918381316,2.596
0.00016809310200556151,2.597
0.00017561888929014217,2.598
0.00018365405841025295,2.599
0.00019220562960286914,2.6
0.00020128073200865982,2.601
0.00021088648059542348,2.602
0.00022102991833850453,2.603
0.00023171804988192602,2.604
0.00024295795397364978,2.605
0.000254756919380236,2.606
0.0002671225303089653,2.607
0.0002800626468680677,2.608
0.00029358527725700974,2.609
0.00030769841660602314,2.61
0.00032240997959534127,2.611
0.00033772787751564886,2.612
0.00035366015714878227,2.613
0.0003702151092796805,2.614
0.00038740133307530773,2.615
0.00040522778278770583,2.616
0.0004237038193267809,2.617
0.00044283927005870586,2.618
0.00046264448239745446,2.619
0.0004831303562095917,2.62
0.0005043083551231604,2.621
0.0005261905108863026,2.622
0.000548789434141237,2.623
0.0005721183297834439,2.624
0.0005961909960762426,2.625
0.0006210217748373267,2.626
0.0006466254201824127,2.627
0.0006730168642221393,2.628
0.0007002109240414596,2.629
0.0007282221206167191,2.63
0.0007570647606378254,2.631
0.0007867532077208059,2.632
0.0008173021457940841,2.633
0.0008487267158281457,2.634
0.0008810424949709244,2.635
0.0009142653177011816,2.636
0.000948410960554088,2.637
0.0009834947901128169,2.638
0.0010195315703013775,2.639
0.0010565355169965729,2.64
0.001094520439799365,2.641
0.001133499779195481,2.642
0.0011734864984819945,2.643
0.0012144928785250801,2.644
0.0012565302983645033,2.645
0.0012996090991326853,2.646
0.001343738549971484,2.647
0.0013889268247808614,2.648
0.0014351809267972584,2.649
0.0014825066177248936,2.65
0.00153090841329409,2.651
0.0015803895991340165,2.652
0.0016309521879974752,2.653
0.001682596836836858,2.654
0.001735322832627866,2.655
0.0017891282009549286,2.656
0.0018440098571322532,2.657
0.0018999636790988526,2.658
0.0019569844304636393,2.659
0.002015065548132345,2.66
0.0020741989513530946,2.661
0.002134375071958729,2.662
0.0021955831122213174,2.663
0.0022578113445821386,2.664
0.0023210472877905957,2.665
0.0023852777003392943,2.666
0.0024504883971691437,2.667
0.0025166639305595285,2.668
0.0025837871944249693,2.669
0.0026518390400804034,2.67
0.002720798029130659,2.671
0.002790640375060743,2.672
0.0028613399667088714,2.673
0.0029328683440053966,2.674
0.0030051946011190617,2.675
0.0030782852618460766,2.676
0.003152104185534901,2.677
0.003226612547946732,2.678
0.0033017689033007507,2.679
0.0033775292854721856,2.68
0.003453847272232071,2.681
0.003530673935223275,2.682
0.003607957633724126,2.683
0.0036856437245988793,2.684
0.0037636744178846373,2.685
0.00384198895111759,2.686
0.003920523998091261,2.687
0.003999214139997309,2.688
0.004077992321822963,2.689
0.004156790262934199,2.69
0.004235538780213584,2.691
0.00431416797012397,2.692
0.004392607189184538,2.693
0.004470784783095958,2.694
0.004548627551024957,2.695
0.004626059985730304,2.696
0.004703003433049702,2.697
0.004779375458069539,2.698
0.004855089639878903,2.699
0.0049300556608858105,2.7
0.0050041793532748565,2.701
0.0050773625382419555,2.702
0.005149502736501673,2.703
0.005220492942195048,2.704
0.005290221678516752,2.705
0.00535857351768866,2.706
0.0054254301520783275,2.707
0.005490671977144739,2.708
0.005554180040182331,2.709
0.005615838159202249,2.71
0.005675535016202143,2.711
0.0057331660274405885,2.712
0.0057886347397485384,2.713
0.005841853396897675,2.714
0.005892742225735728,2.715
0.005941226996719847,2.716
0.005987235451908809,2.717
0.006030695519104309,2.718
0.0060715382125117665,2.719
0.0061097043757659154,2.72
0.0061451519723683245,2.721
0.0061778614506251715,2.722
0.00620783796540033,2.723
0.0062351099708356315,2.724
0.006259724433180065,2.725
0.006281739601511899,2.726
0.006301217518432076,2.727
0.006318219886157423,2.728
0.006332808997619416,2.729
0.006345051108395152,2.73
0.006355018940774315,2.731
0.006362792472415913,2.732
0.006368458457605516,2.733
0.006372109194794661,2.734
0.006373840971993148,2.735
0.006373752487841992,2.736
0.0063719434109045904,2.737
0.006368513134182286,2.738
0.0063635597225069765,2.739
0.006357179037009449,2.74
0.006349464030533783,2.741
0.006340504208537994,2.742
0.006330385227478145,2.743
0.00631918857245578,2.744
0.006306991246518418,2.745
0.00629386542767697,2.746
0.006279878089941928,2.747
0.0062650906410232346,2.748
0.006249558701554626,2.749
0.006233332136281198,2.75
0.006216455315064602,2.751
0.0061989675155982625,2.752
0.006180903449404838,2.753
0.006162293953663792,2.754
0.006143166877741878,2.755
0.006123548148131718,2.756
0.006103462948474352,2.757
0.006082936910916528,2.758
0.0060619971889943475,2.759
0.00604067327879062,2.76
0.006018997474935573,2.761
0.00599700487904494,2.762
0.0059747329036298645,2.763
0.0059522202264182394,2.764
0.005929505158087505,2.765
0.0059066237460264365,2.766
0.005883608756792749,2.767
0.005860490589424159,2.768
0.005837299690166636,2.769
0.0058140691467784625,2.77
0.0057908365626633115,2.771
0.005767644848721591,2.772
0.005744541811691959,2.773
0.005721578605584759,2.774
0.0056988072868061545,2.775
0.0056762781786723745,2.776
0.005654038420378646,2.777
0.005632132468186396,2.778
0.005610603567382294,2.779
0.005589494741683013,2.78
0.005568848736131932,2.781
0.005548706977299736,2.782
0.00552910806554734,2.783
0.005510086876459297,2.784
0.005491674937442761,2.785
0.005473901445740331,2.786
0.00545679391775594,2.787
0.005440378126785062,2.788
0.005424677473648511,2.789
0.005409712054515339,2.79
0.005395497755242735,2.791
0.005382045721509943,2.792
0.0053693622941198465,2.793
0.005357449122471482,2.794
0.005346303187671401,2.795
0.005335916750140569,2.796
0.005326277367653583,2.797
0.005317368111310924,2.798
0.0053091680502099425,2.799
0.005301653005803591,2.8
0.005294796518312804,2.801
0.005288570936199111,2.802
0.005282948533422342,2.803
0.005277902562973922,2.804
0.005273408154644405,2.805
0.005269442954591281,2.806
0.005265987387774096,2.807
0.005263024411504387,2.808
0.005260538632293337,2.809
0.00525851469529878,2.81
0.005256935369502936,2.811
0.0052557807415207596,2.812
0.00525502958473706,2.813
0.0052546621157450795,2.814
0.0052546626371323575,2.815
0.005255021310199593,2.816
0.005255734861417305,2.817
0.005256806230817988,2.818
0.005258243340048693,2.819
0.005260057258750408,2.82
0.00526226006387917,2.821
0.005264862667162359,2.822
0.005267873070106617,2.823
0.0052712957763863975,2.824
0.005275132651994516,2.825
0.005279384612872411,2.826
0.005284053352639906,2.827
0.005289142734419527,2.828
0.005294659662199971,2.829
0.005300614276956159,2.83
0.00530701939094135,2.831
0.005313889171325,2.832
0.005321237234149446,2.833
0.005329074743229485,2.834
0.005337409590341195,2.835
0.005346247124008875,2.836
0.005355591571683564,2.837
0.0053654470932013275,2.838
0.005375818115764627,2.839
0.005386709005664966,2.84
0.005398123230760681,2.841
0.005410062221460375,2.842
0.00542252417746973,2.843
0.005435503187693365,2.844
0.005448989068798917,2.845
0.005462967987085839,2.846
0.005477423518958968,2.847
0.005492337800092978,2.848
0.005507692585513604,2.849
0.005523470076604822,2.85
0.005539653346301577,2.851
0.005556226197552095,2.852
0.005573172318831658,2.853
0.005590473839574577,2.854
0.005608110080287104,2.855
0.005626057680320967,2.856
0.005644292301739653,2.857
0.005662790780136047,2.858
0.005681532544371687,2.859
0.005700499847238094,2.86
0.0057196768327815745,2.861
0.005739047716521968,2.862
0.005758594647969823,2.863
0.005778296161526373,2.864
0.005798126870440902,2.865
0.0058180580797971785,2.866
0.005838058478320546,2.867
0.005858094484108767,2.868
0.005878130293639732,2.869
0.005898127780937611,2.87
0.0059180463380443015,2.871
0.005937842684942171,2.872
0.0059574706301762596,2.873
0.005976880738746233,2.874
0.005996019866102819,2.875
0.006014830558403526,2.876
0.006033250414871941,2.877
0.006051211589730636,2.878
0.006068640582907229,2.879
0.006085458445624048,2.88
0.006101581542560127,2.881
0.006116922871154396,2.882
0.006131393703974074,2.883
0.006144905176277353,2.884
0.006157369385829547,2.885
0.006168699601316015,2.886
0.0061788093002876346,2.887
0.00618761036663359,2.888
0.00619501202281053,2.889
0.006200922206240335,2.89
0.006205251235432868,2.891
0.0062079161811201475,2.892
0.006208844659603984,2.893
0.006207977405844301,2.894
0.006205269253880532,2.895
0.006200688330583899,2.896
0.0061942134552632755,2.897
0.0061858299075928476,2.898
0.006175524675845556,2.899
0.006163284079050676,2.9
0.006149095937317347,2.901
0.006132954827223889,2.902
0.006114867418652008,2.903
0.006094856249661522,2.904
0.006072961394564458,2.905
0.00604923985764469,2.906
0.006023762881313902,2.907
0.005996611680195238,2.908
0.005967872305901702,2.909
0.005937630868469841,2.91
0.00590597108633692,2.911
0.0058729750390087414,2.912
0.005838725520354547,2.913
0.005803308026220425,2.914
0.005766811807365215,2.915
0.00572933010570963,2.916
0.00569095972632435,2.917
0.0056518001152492045,2.918
0.0056119521263215235,2.919
0.005571516662608369,2.92
0.005530593360272356,2.921
0.0054892794384860276,2.922
0.005447668770634123,2.923
0.005405851153272052,2.924
0.005363911778002673,2.925
0.005321931088974099,2.926
0.005279985178223402,2.927
0.005238146541436074,2.928
0.0051964848659019364,2.929
0.005155067631149244,2.93
0.005113960391621433,2.931
0.005073226665118084,2.932
0.005032927428711242,2.933
0.004993120366184665,2.934
0.004953859229980148,2.935
0.004915193666976961,2.936
0.004877169405075567,2.937
0.004839828342548158,2.938
0.004803208384599123,2.939
0.004767343437184108,2.94
0.004732263914142282,2.941
0.004697997516788356,2.942
0.0046645698145936715,2.943
0.004632004390629135,2.944
0.004600322519988886,2.945
0.004569542531204355,2.946
0.004539679283260606,2.947
0.0045107441934235295,2.948
0.004482745737830733,2.949
0.004455689929979716,2.95
0.004429580416105971,2.951
0.004404418131157373,2.952
0.004380200735107778,2.953
0.004356922333631071,2.954
0.004334573788289913,2.955
0.004313143267159543,2.956
0.004292616477346946,2.957
0.00427297641294437,2.958
0.004254202970408232,2.959
0.004236272994381769,2.96
0.004219160850870939,2.961
0.004202838998578452,2.962
0.004187278030587287,2.963
0.004172446180653927,2.964
0.004158308894097734,2.965
0.0041448291478665845,2.966
0.004131968486289181,2.967
0.004119688107060098,2.968
0.004107949420297537,2.969
0.004096713832088998,2.97
0.004085941831684273,2.971
0.004075592074642827,2.972
0.004065621561039692,2.973
0.00405598727980438,2.974
0.004046648557104201,2.975
0.0040375691787721745,2.976
0.004028718791059952,2.977
0.004020073295381371,2.978
0.004011614016465228,2.979
0.0040033255840617255,2.98
0.00399519332612345,2.981
0.003987202303803749,2.982
0.0039793393674874885,2.983
0.0039715968967751255,2.984
0.003963976009068924,2.985
0.003956488188597501,2.986
0.0039491551468626125,2.987
0.003942007094089675,2.988
0.003935079907120958,2.989
0.003928411835988513,2.99
0.00392204057202831,2.991
0.003916001643994975,2.992
0.003910328395352494,2.993
0.003905052648686414,2.994
0.0039002051674389654,2.995
0.0038958158037554137,2.996
0.003891913543531178,2.997
0.003888526606764691,2.998
0.00388568267823267,2.999
0.0038834092594867355,3.0
0.003881734065303826,3.001
0.0038806853524371277,3.002
0.0038802920736653295,3.003
0.0038805837860887435,3.004
0.003881590290808786,3.005
0.0038833410301948794,3.006
0.003885864314822023,3.007
0.0038891864861491502,3.008
0.003893331151295203,3.009
0.003898318659708248,3.01
0.003904165933473286,3.011
0.003910886573776662,3.012
0.003918491055470714,3.013
0.003926986905559442,3.014
0.003936378867460187,3.015
0.003946669073937076,3.016
0.003957857241019916,3.017
0.003969940888499711,3.018
0.003982915590286586,3.019
0.003996775259109203,3.02
0.004011512468001781,3.021
0.004027118797506123,3.022
0.004043585172846038,3.023
0.004060902131744627,3.024
0.004079059956951597,3.025
0.004098048623099164,3.026
0.004117857532321414,3.027
0.0041384750287306446,3.028
0.004159887685763627,3.029
0.004182079496218309,3.03
0.004205031418065526,3.031
0.004228721713882427,3.032
0.0042531269576292765,3.033
0.004278223222215667,3.034
0.004303987109939804,3.035
0.004330396491794828,3.036
0.00435743090924766,3.037
0.0043850716525062625,3.038
0.004413301572124443,3.039
0.00444210468680972,3.04
0.004471465618332605,3.041
0.004501368835800154,3.042
0.004531797654137493,3.043
0.004562733118656303,3.044
0.004594153425646881,3.045
0.0046260346049658025,3.046
0.004658352389799559,3.047
0.004691084555233036,3.048
0.004724213088582762,3.049
0.004757725784840496,3.05
0.004791616968279846,3.051
0.004825887151770472,3.052
0.004860541595490734,3.053
0.004895587903472193,3.054
0.004931033282713496,3.055
0.00496688281384836,3.056
0.005003139624417029,3.057
0.00503980614686568,3.058
0.00507688499853375,3.059
0.005114378858332164,3.06
0.00515228946854653,3.061
0.005190616193507553,3.062
0.005229354739235666,3.063
0.005268496443716487,3.064
0.0053080280640946656,3.065
0.005347932016225943,3.066
0.005388187327144664,3.067
0.005428771248730555,3.068
0.005469661027698755,3.069
0.0055108353404512665,3.07
0.0055522750831406295,3.071
0.00559396336207383,3.072
0.005635884681811035,3.073
0.0056780234521710765,3.074
0.005720362144688571,3.075
0.005762879850296807,3.076
0.0058055520706394555,3.077
0.0058483517608086295,3.078
0.005891250840876235,3.079
0.005934221551663181,3.08
0.005977237538471896,3.081
0.006020274724010872,3.082
0.006063311994575854,3.083
0.0061063316438768195,3.084
0.0061493194369157305,3.085
0.0061922641106839146,3.086
0.006235156143557096,3.087
0.006277985733583213,3.088
0.006320740540730499,3.089
0.006363404697374489,3.09
0.006405960018604459,3.091
0.006448388378548836,3.092
0.006490673654043443,3.093
0.006532802554146372,3.094
0.006574764287079294,3.095
0.006616549260812567,3.096
0.006658147206258458,3.097
0.006699545197335691,3.098
0.006740726006670153,3.099
0.006781667101857793,3.1
0.006822340391590728,3.101
0.006862712613994093,3.102
0.006902746070303364,3.103
0.006942399301633763,3.104
0.0069816273211435985,3.105
0.007020381159006881,3.106
0.007058607008192981,3.107
0.007096246052871463,3.108
0.007133235835031407,3.109
0.007169512720294926,3.11
0.007205014475570908,3.111
0.0072396823786711854,3.112
0.0072734625871812685,3.113
0.007306306614382088,3.114
0.007338170892549028,3.115
0.007369015499453932,3.116
0.007398802159416718,3.117
0.007427491660590691,3.118
0.007455041344183063,3.119
0.007481404211704901,3.12
0.007506530643690757,3.121
0.007530371829422604,3.122
0.0075528834451891996,3.123
0.007574028898042849,3.124
0.007593781860062848,3.125
0.007612127837400463,3.126
0.0076290645584583365,3.127
0.007644601023767976,3.128
0.007658755138783877,3.129
0.00767154995247007,3.13
0.007683009257747072,3.131
0.007693154921655365,3.132
0.007702008278301981,3.133
0.007709595047146865,3.134
0.007715951210660218,3.135
0.00772112791457036,3.136
0.007725194494953913,3.137
0.007728239143942646,3.138
0.00773036704982076,3.139
0.007731696277387719,3.14
0.00773235206381512,3.141
0.00773246090927602,3.142
0.007732146784189693,3.143
0.007731530949083705,3.144
0.007730734142453291,3.145
0.007729878763071318,3.146
0.007729089947983923,3.147
0.007728495619709146,3.148
0.007728225860906759,3.149
0.007728411975958607,3.15
0.007729185526972361,3.151
0.007730677504097452,3.152
0.007733017648758344,3.153
0.007736333846335987,3.154
0.007740751477658556,3.155
0.007746392665587636,3.156
0.0077533754371754676,3.157
0.007761812890674129,3.158
0.007771812472377526,3.159
0.007783475427243696,3.16
0.007796896414017191,3.161
0.00781216320453338,3.162
0.007829356430631849,3.163
0.00784854955087968,3.164
0.0078698092666462,3.165
0.007893196360254155,3.166
0.00791876671997024,3.167
0.007946572299093142,3.168
0.007976661749764035,3.169
0.008009080469080426,3.17
0.0080438698634602,3.171
0.008081066103316544,3.172
0.008120699484655729,3.173
0.008162795290682324,3.174
0.008207375505880472,3.175
0.008254459989525634,3.176
0.008304066278754655,3.177
0.008356208186832564,3.178
0.008410894639487425,3.179
0.00846813037358928,3.18
0.008527918306992115,3.181
0.008590261896279443,3.182
0.00865516619271344,3.183
0.008722637295463048,3.184
0.008792680499705455,3.185
0.008865297756826557,3.186
0.008940485231689659,3.187
0.00901823166331101,3.188
0.009098517655209115,3.189
0.009181315427102316,3.19
0.009266588753463983,3.191
0.009354293167702001,3.192
0.009444376312990168,3.193
0.009536778168587284,3.194
0.009631431044534434,3.195
0.00972825936279778,3.196
0.009827179276194744,3.197
0.009928098210997464,3.198
0.010030914502295865,3.199
0.010135517369682292,3.2
0.010241787381628079,3.201
0.010349597340401986,3.202
0.010458813417254978,3.203
0.010569296355461975,3.204
0.01068090252229961,3.205
0.010793484569129302,3.206
0.010906891504588335,3.207
0.011020968104303981,3.208
0.011135553750207665,3.209
0.01125048096242867,3.21
0.0113655739990717,3.211
0.011480647918791108,3.212
0.011595508426013536,3.213
0.011709952671296753,3.214
0.011823770994308062,3.215
0.011936749408208757,3.216
0.012048672449155967,3.217
0.012159325854121128,3.218
0.012268498391667333,3.219
0.012375982083594283,3.22
0.012481570069799235,3.221
0.012585052767004577,3.222
0.012686216226792063,3.223
0.01278484679947752,3.224
0.012880741259309283,3.225
0.012973718083664513,3.226
0.013063626422969246,3.227
0.013150350825979125,3.228
0.013233810721918954,3.229
0.01331395461576798,3.23
0.013390749855443683,3.231
0.01346417075466932,3.232
0.013534190922758762,3.233
0.013600784365243535,3.234
0.013663933030823562,3.235
0.013723634936081967,3.236
0.013779909647154105,3.237
0.013832800725939688,3.238
0.013882375533114976,3.239
0.013928722908999604,3.24
0.01397194926663886,3.241
0.014012173554056666,3.242
0.014049521408298106,3.243
0.014084118718025986,3.244
0.014116085703636897,3.245
0.014145534395784403,3.246
0.01417257128449803,3.247
0.014197303008081611,3.248
0.014219841838033782,3.249
0.014240309449651852,3.25
0.014258838441116172,3.251
0.01427557128344605,3.252
0.014290656744074813,3.253
0.014304244266090112,3.254
0.01431647791341258,3.255
0.014327492976704116,3.256
0.014337416871422643,3.257
0.01434637208150707,3.258
0.014354478065178955,3.259
0.014361851151480564,3.26
0.014368602735371166,3.261
0.014374836478029984,3.262
0.01438064592990273,3.263
0.014386114236141195,3.264
0.014391316158664638,3.265
0.014396320945191105,3.266
0.014401194571588791,3.267
0.014406000740517417,3.268
0.014410800445037585,3.269
0.014415650081302168,3.27
0.014420598575847175,3.271
0.014425685012388216,3.272
0.014430938559059513,3.273
0.014436380818586203,3.274
0.014442028905627737,3.275
0.01444789771006474,3.276
0.014454000851987569,3.277
0.014460350411028812,3.278
0.014466955777196302,3.279
0.014473822119758143,3.28
0.014480948938044115,3.281
0.014488328975796489,3.282
0.014495947540687008,3.283
0.014503782043935867,3.284
0.014511801390836005,3.285
0.014519964854165584,3.286
0.014528220851027212,3.287
0.014536507347079992,3.288
0.01454475524468144,3.289
0.014552893997591625,3.29
0.014560857644329198,3.291
0.014568589841310294,3.292
0.014576046845008659,3.293
0.014583197692742971,3.294
0.014590021366780954,3.295
0.014596501351298226,3.296
0.014602619001905013,3.297
0.014608348668064673,3.298
0.014613657325955095,3.299
0.014618508362165274,3.3
0.014622866809326937,3.301
0.014626704148466717,3.302
0.014630002192096923,3.303
0.014632755819330559,3.304
0.014634974181011045,3.305
0.014636679959353228,3.306
0.014637906363271252,3.307
0.014638691746842791,3.308
0.014639072988741305,3.309
0.014639081394473067,3.31
0.014638744801088076,3.311
0.014638094905940428,3.312
0.014637175547145517,3.313
0.014636048697019122,3.314
0.014634796760034414,3.315
0.014633520717449767,3.316
0.014632334489108816,3.317
0.014631356700883674,3.318
0.01463070234203328,3.319
0.014630478089488691,3.32
0.014630782875406995,3.321
0.014631710827364258,3.322
0.014633353282228036,3.323
0.014635799352811453,3.324
0.01463913592056906,3.325
0.014643447892536845,3.326
0.014648819224273892,3.327
0.014655334708053759,3.328
0.01466308201579215,3.329
0.0146721531495228,3.33
0.01468264442685735,3.331
0.01469465443430669,3.332
0.014708279894092327,3.333
0.014723610754772472,3.334
0.014740727723071128,3.335
0.014759704222444622,3.336
0.014780610701412894,3.337
0.01480351812572412,3.338
0.0148284994987163,3.339
0.014855629576443017,3.34
0.014884983318024268,3.341
0.014916633772503152,3.342
0.014950649994110773,3.343
0.014987095265056436,3.344
0.015026025566640277,3.345
0.015067488061210303,3.346
0.01511151939626557,3.347
0.015158144005556918,3.348
0.0152073730938299,3.349
0.015259204782933538,3.35
0.01531362495684894,3.351
0.015370607989256158,3.352
0.015430116956391206,3.353
0.015492103270680124,3.354
0.015556505815248266,3.355
0.015623249995121073,3.356
0.015692247451217157,3.357
0.015763396735591132,3.358
0.015836584313573685,3.359
0.015911685027850325,3.36
0.01598856162600161,3.361
0.016067063775087247,3.362
0.016147027909233527,3.363
0.01622827886421703,3.364
0.01631063268796276,3.365
0.01639389952505314,3.366
0.016477886163084546,3.367
0.016562398280729362,3.368
0.016647242450673082,3.369
0.01673222778326988,3.37
0.01681716684868755,3.371
0.016901875345098676,3.372
0.016986169994211167,3.373
0.01706986439073284,3.374
0.017152764121686332,3.375
0.01723466519892065,3.376
0.01731535885676222,3.377
0.017394640796941644,3.378
0.017472320957185712,3.379
0.017548231455995603,3.38
0.017622231372864193,3.381
0.017694207364869555,3.382
0.01776406977952527,3.383
0.017831744731670377,3.384
0.017897163611334695,3.385
0.017960253506531132,3.386
0.018020933498166965,3.387
0.01807911829590375,3.388
0.018134725101648975,3.389
0.018187679411771428,3.39
0.018237918791847604,3.391
0.018285395161731808,3.392
0.01833007609727728,3.393
0.0183719453917236,3.394
0.01841100276273827,3.395
0.018447262299945536,3.396
0.018480749135348768,3.397
0.018511493917123874,3.398
0.018539525622643303,3.399
0.01856486588399673,3.4
0.018587529408203067,3.401
0.018607531314389872,3.402
0.018624897242394682,3.403
0.018639671810450547,3.404
0.01865192333397182,3.405
0.01866174412630121,3.406
0.01866924652209898,3.407
0.018674555581036915,3.408
0.01867779999217056,3.409
0.01867910317960171,3.41
0.018678577168542026,3.411
0.01867632097774054,3.412
0.018672422647562775,3.413
0.018666962538391712,3.414
0.01866001668588997,3.415
0.018651660277594965,3.416
0.01864197131800371,3.417
0.018631034062582753,3.418
0.018618941398577112,3.419
0.018605795161788567,3.42
0.018591703502844475,3.421
0.01857677507231166,3.422
0.018561112247119708,3.423
0.018544808652765914,3.424
0.018527953673711663,3.425
0.018510639773605786,3.426
0.018492966704792196,3.427
0.018475040071349032,3.428
0.018456965271439727,3.429
0.018438841688448927,3.43
0.018420762785340668,3.431
0.01840282193730697,3.432
0.01838511827420581,3.433
0.018367757816815055,3.434
0.01835084900450369,3.435
0.018334495672780792,3.436
0.018318794196783054,3.437
0.01830383870191877,3.438
0.01828973029820266,3.439
0.018276584181746346,3.44
0.01826453207937737,3.441
0.01825371993019527,3.442
0.018244301555823243,3.443
0.018236430125747414,3.444
0.0182302508134217,3.445
0.0182258982556492,3.446
0.018223498954336812,3.447
0.018223175131453464,3.448
0.018225047205974843,3.449
0.0182292344982852,3.45
0.018235854642773597,3.451
0.018245022092869656,3.452
0.01825684596115954,3.453
0.018271427360717473,3.454
0.018288856446742004,3.455
0.018309209597955452,3.456
0.018332547537838865,3.457
0.018358914898575756,3.458
0.01838834065738876,3.459
0.01842083836977941,3.46
0.018456405754529333,3.461
0.018495024144463718,3.462
0.018536658712399942,3.463
0.01858125975344849,3.464
0.01862876437227868,3.465
0.018679097703088288,3.466
0.018732173028813782,3.467
0.01878789064976524,3.468
0.018846136662844005,3.469
0.018906783854403884,3.47
0.018969695502589822,3.471
0.019034730372529816,3.472
0.019101746583734293,3.473
0.019170602943097442,3.474
0.019241157162903068,3.475
0.01931326138468923,3.476
0.019386757539487525,3.477
0.019461476627617994,3.478
0.019537243483160043,3.479
0.019613884256232117,3.48
0.019691233129755605,3.481
0.019769136514810482,3.482
0.019847453735766074,3.483
0.01992605334959562,3.484
0.0200048056740651,3.485
0.020083576085685468,3.486
0.02016222575170907,3.487
0.020240620757800042,3.488
0.02031864306855341,3.489
0.020396196559280308,3.49
0.020473205740934614,3.491
0.02054960817240251,3.492
0.020625343542289815,3.493
0.020700343238061563,3.494
0.02077452357627149,3.495
0.020847784114919908,3.496
0.02092001036891451,3.497
0.020991078562515003,3.498
0.02106085929961219,3.499
0.02112921738442805,3.5
0.02119600818267194,3.501
0.02126107657053287,3.502
0.02132426422390172,3.503
0.021385423029043494,3.504
0.02144442833027998,3.505
0.021501188252031393,3.506
0.021555647744231757,3.507
0.021607786989149315,3.508
0.021657614563959888,3.509
0.021705156279932584,3.51
0.021750441999275123,3.511
0.021793495892801714,3.512
0.021834336068631048,3.513
0.0218729833240924,3.514
0.021909472980817697,3.515
0.021943864807543217,3.516
0.02197624929757836,3.517
0.02200674965702107,3.518
0.022035519009401705,3.519
0.022062732858033722,3.52
0.022088577762696363,3.521
0.022113238888272675,3.522
0.022136891297795894,3.523
0.022159698698471317,3.524
0.02218181779170325,3.525
0.02220340316155434,3.526
0.02222460961873734,3.527
0.022245591458404792,3.528
0.02226649893301836,3.529
0.022287472862156814,3.53
0.022308639688357945,3.531
0.022330109832557354,3.532
0.02235197956814705,3.533
0.022374333383445497,3.534
0.022397244016872774,3.535
0.022420770099179158,3.536
0.02244495406008251,3.537
0.022469823181435727,3.538
0.022495393542125038,3.539
0.02252167419160596,3.54
0.022548669804756043,3.541
0.022576381762477393,3.542
0.022604808208366113,3.543
0.022633943565710697,3.544
0.022663777701883665,3.545
0.0226942945269624,3.546
0.022725469444689988,3.547
0.02275726564760597,3.548
0.022789631590876755,3.549
0.022822503143186807,3.55
0.022855810684841008,3.551
0.022889487431045748,3.552
0.022923474893766952,3.553
0.02295772310240597,3.554
0.022992184827154236,3.555
0.02302680667919395,3.556
0.023061524958139314,3.557
0.02309627123269183,3.558
0.0231309825630222,3.559
0.023165608109553783,3.56
0.023200108353656487,3.561
0.023234447615753138,3.562
0.023268585935518407,3.563
0.023302479479757842,3.564
0.02333609173269124,3.565
0.02336940776400873,3.566
0.023402443027523423,3.567
0.023435243234111464,3.568
0.02346787537171079,3.569
0.023500413421075082,3.57
0.02353292740044034,3.571
0.023565483668584557,3.572
0.023598154557252487,3.573
0.02363102839955452,3.574
0.023664213830449796,3.575
0.023697837232044126,3.576
0.023732034377602608,3.577
0.023766939187902597,3.578
0.023802675385663004,3.579
0.023839355941859233,3.58
0.023877088536001373,3.581
0.023915980880849307,3.582
0.02395614208239394,3.583
0.023997679822030736,3.584
0.024040694571429745,3.585
0.024085273049060305,3.586
0.02413148445061393,3.587
0.024179381484830714,3.588
0.024229004159071452,3.589
0.02428038307866592,3.59
0.02433354109853654,3.591
0.02438849367085603,3.592
0.02444524855279732,3.593
0.024503805437682113,3.594
0.02456415565256906,3.595
0.02462628146051291,3.596
0.024690153967064744,3.597
0.024755729686446362,3.598
0.024822949248721627,3.599
0.024891742497940416,3.6
0.02496203927537699,3.601
0.025033780812794483,3.602
0.025106926823034094,3.603
0.02518145518163515,3.604
0.02525735344645027,3.605
0.025334607089424907,3.606
0.025413195347947757,3.607
0.025493100319272072,3.608
0.025574321726232224,3.609
0.025656886740826054,3.61
0.025740850604061,3.611
0.025826288103366745,3.612
0.025913279438392195,3.613
0.026001899565687957,3.614
0.026092219669878444,3.615
0.026184318883700722,3.616
0.026278296544639233,3.617
0.026374277924425822,3.618
0.02647241173311152,3.619
0.026572860489561718,3.62
0.026675787060508535,3.621
0.02678134350787427,3.622
0.026889667836189898,3.623
0.027000887662604747,3.624
0.02711512458147244,3.625
0.02723249495263489,3.626
0.027353106931388264,3.627
0.02747705514936957,3.628
0.02760441501044618,3.629
0.027735238999303278,3.63
0.0278695558630744,3.631
0.028007370756984264,3.632
0.02814866463275247,3.633
0.0282933941188996,3.634
0.028441493879185757,3.635
0.02859288118729747,3.636
0.028747461164426134,3.637
0.028905131613674175,3.638
0.02906578673320927,3.639
0.029229318945453192,3.64
0.029395618144368824,3.641
0.029564567906452253,3.642
0.029736039207872367,3.643
0.02990988482601401,3.644
0.030085939297761856,3.645
0.030264025873637215,3.646
0.03044396683942399,3.647
0.030625593122415265,3.648
0.03080875135022394,3.649
0.030993307580005503,3.65
0.031179147066650703,3.651
0.0313661695189975,3.652
0.031554279419760085,3.653
0.031743373738229747,3.654
0.03193333523047205,3.655
0.03212403853406689,3.656
0.03231536566184101,3.657
0.0325072216084414,3.658
0.03269954387122303,3.659
0.032892303075601814,3.66
0.033085493421984184,3.661
0.03327911590528699,3.662
0.0334731653766725,3.663
0.0336676328819756,3.664
0.03386252094979561,3.665
0.03405785890920621,3.666
0.03425370901394228,3.667
0.03445016153233756,3.668
0.03464732040324435,3.669
0.03484528514746296,3.67
0.035044140676335246,3.671
0.035243962545499045,3.672
0.03544483122579151,3.673
0.03564684435025413,3.674
0.03585012230181833,3.675
0.03605480710640431,3.676
0.03626105565459794,3.677
0.036469028660809526,3.678
0.03667887750961048,3.679
0.03689073353523541,3.68
0.037104705565333,3.681
0.037320886749116905,3.682
0.037539365288999864,3.683
0.037760233636248065,3.684
0.037983594111778346,3.685
0.038209560491280735,3.686
0.03843825553703018,3.687
0.038669804984314785,3.688
0.03890432891076025,3.689
0.03914193155793011,3.69
0.03938269177007833,3.691
0.03962665844609734,3.692
0.0398738538880632,3.693
0.04012428255796885,3.694
0.040377941029682014,3.695
0.040634827002610646,3.696
0.040894946083573705,3.697
0.04115831466696658,3.698
0.041424957216039324,3.699
0.0416948968638551,3.7
0.04196814204128797,3.701
0.04224467859393745,3.702
0.04252447510109528,3.703
0.04280749665140042,3.704
0.043093716176327235,3.705
0.04338311720572204,3.706
0.04367568720166028,3.707
0.04397140406491499,3.708
0.04427022269508175,3.709
0.04457206962268548,3.71
0.04487684612942192,3.711
0.04518443168507621,3.712
0.04549468143983037,3.713
0.04580742049924374,3.714
0.046122442736517485,3.715
0.0464395168156667,3.716
0.04675839330917457,3.717
0.04707880558393995,3.718
0.04740046376704467,3.719
0.047723049664068984,3.72
0.04804622216315801,3.721
0.04836963286464358,3.722
0.04869294253099228,3.723
0.04901582983571477,3.724
0.04933798856641304,3.725
0.049659113654928026,3.726
0.04997888436242933,3.727
0.05029696024263453,3.728
0.050612996469607936,3.729
0.050926666503768245,3.73
0.05123767620606895,3.731
0.051545762369949864,3.732
0.05185067568940184,3.733
0.05215215713000948,3.734
0.05244992712832397,3.735
0.05274369855811735,3.736
0.05303320128137406,3.737
0.05331820050322628,3.738
0.0535985021529173,3.739
0.05387394526901337,3.74
0.054144383095827454,3.741
0.05440965915793842,3.742
0.05466959267488674,3.743
0.054923985294097165,3.744
0.05517264432854145,3.745
0.05541540788706529,3.746
0.05565216153460542,3.747
0.055882841224275955,3.748
0.05610741952189252,3.749
0.05632587913949661,3.75
0.05653819160162864,3.751
0.05674432014219557,3.752
0.05694424317200252,3.753
0.05713797613129312,3.754
0.057325575289333595,3.755
0.05750712031665139,3.756
0.05768268572609959,3.757
0.05785232560976965,3.758
0.0580160872339942,3.759
0.05817403887118852,3.76
0.05832628834881482,3.761
0.05847298338014172,3.762
0.05861429516215416,3.763
0.058750392341531725,3.764
0.058881420108911564,3.765
0.05900749855367346,3.766
0.05912873878106114,3.767
0.05924526253481155,3.768
0.05935721451272926,3.769
0.05946476463863823,3.77
0.05956810078746333,3.771
0.059667413369643464,3.772
0.05976287537368873,3.773
0.05985462631620882,3.774
0.05994276955268243,3.775
0.06002738278067428,3.776
0.060108531858847083,3.777
0.06018627994947281,3.778
0.06026069058918054,3.779
0.06033182602431743,3.78
0.06039974190660859,3.781
0.06046447835100184,3.782
0.06052604784524152,3.783
0.06058442571243361,3.784
0.060639553013548314,3.785
0.060691354701471543,3.786
0.06073976426235915,3.787
0.06078474382434684,3.788
0.06082629295341984,3.789
0.06086444253277133,3.79
0.06089923403865758,3.791
0.06093069518896379,3.792
0.06095883321096128,3.793
0.060983654890549556,3.794
0.06100519726870518,3.795
0.06102354842698803,3.796
0.06103885078426731,3.797
0.06105128769202565,3.798
0.06106105687711609,3.799
0.06106834058170959,3.8
0.06107329140986697,3.801
0.06107604485593136,3.802
0.06107674646805245,3.803
0.06107557584462369,3.804
0.06107276075497601,3.805
0.06106858114535389,3.806
0.061063363960476916,3.807
0.061057470401088845,3.808
0.061051277478188525,3.809
