VaMe,time
0.018457648004743143,0.001
0.019126088708284472,0.002
0.0197976384600591,0.003
0.020471770255707632,0.004
0.021147949547492474,0.005
0.021825638003965652,0.006
0.022504295356388853,0.007
0.02318337867003105,0.008
0.023862338679728534,0.009
0.024540614325911946,0.01
0.025217630035135732,0.011
0.02589280035313512,0.012
0.026565541228413706,0.013
0.027235283771557896,0.014
0.027901487237241264,0.015
0.028563649092699567,0.016
0.029221310323389118,0.017
0.02987405469416664,0.018
0.030521501569729364,0.019
0.031163292703973583,0.02
0.03179907536752989,0.021
0.03242848919602559,0.022
0.03305116629273091,0.023
0.03366674573890103,0.024
0.034274893577318236,0.025
0.034875319445403126,0.026
0.03546778638138729,0.027
0.03605211327641354,0.028
0.03662817049644608,0.029
0.03719586974973319,0.03
0.03775514951105502,0.031
0.0383059575044583,0.032
0.03884823294502071,0.033
0.039381894007183046,0.034
0.03990683579117972,0.035
0.04042293779848807,0.036
0.04093007498635709,0.037
0.04142812821809739,0.038
0.04191699307444124,0.039
0.04239658664758061,0.04
0.042866851755363936,0.041
0.043327758280241685,0.042
0.04377930190140715,0.043
0.04422150081290987,0.044
0.04465439060240486,0.045
0.045078016403908315,0.046
0.045492420567172925,0.047
0.045897627892504476,0.048
0.046293639278075636,0.049
0.046680442850252274,0.05
0.04705803664668501,0.051
0.04742645056206913,0.052
0.047785761287615754,0.053
0.04813609874543794,0.054
0.04847764386129905,0.055
0.048810618381264846,0.056
0.04913526825937305,0.057
0.04945184292215869,0.058
0.049760574610092465,0.059
0.05006166523522944,0.06
0.05035528652349438,0.061
0.050641590873715545,0.062
0.05092072586613445,0.063
0.05119284831888776,0.064
0.05145813662622053,0.065
0.05171679987425319,0.066
0.05196908127284296,0.067
0.0522152532515944,0.068
0.05245560263630199,0.069
0.052690409323529204,0.07
0.052919930858102815,0.071
0.05314440490976085,0.072
0.05336406621055527,0.073
0.05357916402285922,0.074
0.053789971045339426,0.075
0.05399678226472042,0.076
0.05419990538971421,0.077
0.05439964562995677,0.078
0.054596288116317386,0.079
0.0547900823914054,0.08
0.05498123470380373,0.081
0.05516991031038593,0.082
0.05535624178030192,0.083
0.05554033925903538,0.084
0.05572230243233275,0.085
0.05590223458553291,0.086
0.05608025746391403,0.087
0.05625652393572185,0.088
0.05643122439294364,0.089
0.05660458294632915,0.09
0.05677684098720459,0.091
0.05694823303457344,0.092
0.057118972798861356,0.093
0.05728926499741343,0.094
0.057459335752039396,0.095
0.057629462320564734,0.096
0.057799990583793565,0.097
0.057971337318445774,0.098
0.05814397820703289,0.099
0.05831842521967888,0.1
0.058495198590383636,0.101
0.05867479975132537,0.102
0.058857692845116646,0.103
0.05904429948719393,0.104
0.059235003298294,0.105
0.05943015682182188,0.106
0.059630087445993143,0.107
0.05983510309011121,0.108
0.06004549876953414,0.109
0.06026156402500938,0.11
0.06048359018299019,0.111
0.0607118758513405,0.112
0.060946729067300906,0.113
0.061188464963075964,0.114
0.06143739850431149,0.115
0.06169383273217786,0.116
0.06195804398458156,0.117
0.062230267349323014,0.118
0.06251068728818159,0.119
0.06279943591253366,0.12
0.06309659605492804,0.121
0.06340220523609612,0.122
0.06371625923879277,0.123
0.06403871488271143,0.124
0.0643694910614012,0.125
0.06470846736846424,0.126
0.06505548072227293,0.127
0.06541032144289544,0.128
0.0657727305858137,0.129
0.06614239987091215,0.13
0.06651897462768078,0.131
0.06690205934214369,0.132
0.06729122493213428,0.133
0.06768601669913504,0.134
0.06808596174025944,0.135
0.06849057437625201,0.136
0.06889935812715334,0.137
0.06931180330985745,0.138
0.0697273804746246,0.139
0.07014553118540715,0.14
0.07056565840608085,0.141
0.07098711854561696,0.142
0.07140921612911096,0.143
0.07183120060499604,0.144
0.07225226352149591,0.145
0.072671535352495,0.146
0.07308808606773562,0.147
0.0735009359784827,0.148
0.0739090788952785,0.149
0.07431151470597654,0.15
0.074707286942733,0.151
0.07509551954166263,0.152
0.07547544544832004,0.153
0.07584642000931055,0.154
0.07620791480595017,0.155
0.07655949167394589,0.156
0.07690076019157678,0.157
0.07723133044715456,0.158
0.0775507872479131,0.159
0.07785870484590256,0.16
0.07815468933388384,0.161
0.0784384224636839,0.162
0.07870969361941015,0.163
0.07896841735644737,0.164
0.07921463617312081,0.165
0.07944850873376678,0.166
0.07967028463460704,0.167
0.07988026851953875,0.168
0.08007877830512994,0.169
0.08026610588992687,0.17
0.08044249305467381,0.171
0.08060812909582506,0.172
0.08076316138131504,0.173
0.08090770593077175,0.174
0.08104185388043092,0.175
0.08116567597624766,0.176
0.08127922793492842,0.177
0.08138255852012534,0.178
0.08147572058668205,0.179
0.08155878338344455,0.18
0.08163184257593124,0.181
0.08169502350591847,0.182
0.08174847382769071,0.183
0.08179234391809939,0.184
0.08182675971555045,0.185
0.0818518030306622,0.186
0.08186751415866192,0.187
0.0818739136951327,0.188
0.0818710271971934,0.189
0.08185890089555002,0.19
0.08183760514428258,0.191
0.0818072258662491,0.192
0.0817678457140141,0.193
0.08171951947029794,0.194
0.08166225466004153,0.195
0.08159601091792841,0.196
0.08152072025262963,0.197
0.08143631647137907,0.198
0.08134276149712776,0.199
0.08124006227343565,0.2
0.08112827462886724,0.201
0.08100749184240463,0.202
0.08087781804533677,0.203
0.08073933499771514,0.204
0.08059208425650326,0.205
0.08043608079241074,0.206
0.08027134707954015,0.207
0.08009794610846757,0.208
0.07991600280088546,0.209
0.07972571176452957,0.21
0.0795273315955617,0.211
0.07932116751054126,0.212
0.07910754539406656,0.213
0.0788867810814562,0.214
0.07865915148357416,0.215
0.0784248787254881,0.216
0.07818413323255162,0.217
0.07793704771376475,0.218
0.07768373060656142,0.219
0.07742427502501387,0.22
0.07715876385045396,0.221
0.07688727213844827,0.222
0.07660986805356297,0.223
0.0763266134960809,0.224
0.07603756523968952,0.225
0.07574277652285741,0.226
0.07544229768863288,0.227
0.07513617319143782,0.228
0.07482443194536327,0.229
0.07450707141395328,0.23
0.07418404473535387,0.231
0.07385526380046584,0.232
0.07352061936601455,0.233
0.07318000627316963,0.234
0.0728333429051898,0.235
0.07248058093805604,0.236
0.07212170463345939,0.237
0.0717567199806051,0.238
0.07138563506764184,0.239
0.07100843602357663,0.24
0.07062506925630781,0.241
0.0702354419856994,0.242
0.06983944132059605,0.243
0.06943696038494199,0.244
0.06902792112466727,0.245
0.0686122894149587,0.246
0.06819008062712241,0.247
0.06776135456561545,0.248
0.06732619937912031,0.249
0.06688470604844855,0.25
0.06643694319726437,0.251
0.06598295073629315,0.252
0.0655227604344034,0.253
0.06505642927758867,0.254
0.06458406731129225,0.255
0.06410585231880907,0.256
0.06362203012683146,0.257
0.06313290158084131,0.258
0.06263879925369205,0.259
0.06214005826539168,0.26
0.061636988528188996,0.261
0.06112985967011727,0.262
0.06061890370765708,0.263
0.06010432670434987,0.264
0.059586318620090596,0.265
0.0590650591884799,0.266
0.05854072273775117,0.267
0.058013485199858314,0.268
0.057483535100925236,0.269
0.05695108754733232,0.27
0.05641639715088064,0.271
0.05587976398717908,0.272
0.05534152723964949,0.273
0.054802044643594096,0.274
0.054261666225786404,0.275
0.053720723509582305,0.276
0.05317954629288996,0.277
0.052638492820972126,0.278
0.05209797267905535,0.279
0.051558454529495604,0.28
0.051020459216257,0.281
0.05048454151935444,0.282
0.04995126568042346,0.283
0.04942118116181707,0.284
0.04889480587638686,0.285
0.04837262062917538,0.286
0.04785507101312293,0.287
0.04734257018365179,0.288
0.04683550009365927,0.289
0.04633421259229581,0.29
0.04583903209980181,0.291
0.04535026050735023,0.292
0.0448681838607849,0.293
0.04439307955240278,0.294
0.04392522233688356,0.295
0.04346488755777395,0.296
0.04301235045309765,0.297
0.042567881131231076,0.298
0.04213173557094692,0.299
0.04170414529981513,0.3
0.04128531207370164,0.301
0.04087541183970788,0.302
0.040474604260692694,0.303
0.04008304117659755,0.304
0.03970087082148633,0.305
0.03932823719132189,0.306
0.03896527472485054,0.307
0.0386120997895051,0.308
0.03826880317623799,0.309
0.03793544853395488,0.31
0.03761207675077753,0.311
0.03729871107683182,0.312
0.0369953586678344,0.313
0.036702007801408,0.314
0.036418622568162834,0.315
0.03614513910247387,0.316
0.0358814667535304,0.317
0.035627492902106844,0.318
0.03538308735418706,0.319
0.03514810387533479,0.32
0.03492237864369348,0.321
0.03470572632309539,0.322
0.034497935281028916,0.323
0.034298764400850376,0.324
0.03410794277265863,0.325
0.03392517062338909,0.326
0.03375011926482396,0.327
0.033582430240410015,0.328
0.033421715753368164,0.329
0.033267561666909355,0.33
0.033119532329720106,0.331
0.03297717575880451,0.332
0.03284002800314977,0.333
0.03270761547865146,0.334
0.0325794539672918,0.335
0.032455044184168266,0.336
0.03233386775758706,0.337
0.03221539052804786,0.338
0.032099076031197556,0.339
0.031984404779652253,0.34
0.031870892799610646,0.341
0.03175810446146246,0.342
0.03164565593994182,0.343
0.03153320730683431,0.344
0.03142044396052011,0.345
0.03130705421912796,0.346
0.031192717545319507,0.347
0.031077111859252115,0.348
0.030959931193263786,0.349
0.030840900952649155,0.35
0.0307197865522061,0.351
0.03059639593930523,0.352
0.030470577205616394,0.353
0.030342212836429808,0.354
0.030211211956274027,0.355
0.03007750128531102,0.356
0.029941014921456895,0.357
0.02980168298330788,0.358
0.029659420905992596,0.359
0.029514124151572188,0.36
0.029365671300484418,0.361
0.02921393244283513,0.362
0.029058778538432337,0.363
0.028900090648882295,0.364
0.028737769288010508,0.365
0.0285717434371308,0.366
0.02840197783081735,0.367
0.02822847637840956,0.368
0.028051279429570287,0.369
0.027870453300306422,0.37
0.027686074136190966,0.371
0.02749821557089477,0.372
0.02730695073242051,0.373
0.027112367258785533,0.374
0.026914583698897074,0.375
0.026713758303434518,0.376
0.026510088104750893,0.377
0.026303799791095574,0.378
0.02609513532130368,0.379
0.025884336370969055,0.38
0.02567163314009115,0.381
0.025457241898593275,0.382
0.025241370072801077,0.383
0.025024223705142408,0.384
0.02480601383437665,0.385
0.02458696113231548,0.386
0.024367298618841876,0.387
0.024147271828773815,0.388
0.023927135642181505,0.389
0.02370714732055938,0.39
0.023487557534679248,0.391
0.023268605073041435,0.392
0.023050519745948805,0.393
0.022833530629347315,0.394
0.02261787333498097,0.395
0.022403792968074262,0.396
0.022191542441291394,0.397
0.021981377045317888,0.398
0.02177354684972333,0.399
0.02156828939162716,0.4
0.021365825822954043,0.401
0.0211663615721088,0.402
0.020970088973201628,0.403
0.020777189146103672,0.404
0.02058783251116051,0.405
0.02040217807410779,0.406
0.020220371524148704,0.407
0.02004254279962012,0.408
0.0198688048285776,0.409
0.019699254471535286,0.41
0.019533974504289377,0.411
0.01937303500146944,0.412
0.01921649365221459,0.413
0.019064395193335484,0.414
0.01891677021756442,0.415
0.018773633730075068,0.416
0.018634984124745974,0.417
0.018500803317576312,0.418
0.018371058109393185,0.419
0.01824570207686852,0.42
0.018124677180531516,0.421
0.018007914499515738,0.422
0.01789533368787942,0.423
0.017786841367415533,0.424
0.017682329811395416,0.425
0.017581677258683565,0.426
0.017484749284829477,0.427
0.017391399317017307,0.428
0.017301467904890046,0.429
0.017214783300875284,0.43
0.01713116586469946,0.431
0.01705043537268495,0.432
0.016972418311216767,0.433
0.01689695278490666,0.434
0.016823889425981207,0.435
0.01675308743469089,0.436
0.016684407141164082,0.437
0.016617704331467257,0.438
0.016552831653466465,0.439
0.01648964614028805,0.44
0.01642801729637635,0.441
0.01636783201262077,0.442
0.016308995855145187,0.443
0.016251431633955368,0.444
0.0161950763230608,0.445
0.016139877046229625,0.446
0.01608578630812646,0.447
0.016032756327345885,0.448
0.015980733207670045,0.449
0.015929653735182382,0.45
0.01587944705912789,0.451
0.015830039624136313,0.452
0.015781359894998584,0.453
0.015733341000338616,0.454
0.015685920948989882,0.455
0.015639040631107867,0.456
0.015592640150093134,0.457
0.015546654274940178,0.458
0.015501008102976596,0.459
0.015455614191472481,0.46
0.015410371474797867,0.461
0.015365165097450346,0.462
0.015319866936138436,0.463
0.015274337344147886,0.464
0.015228427531669387,0.465
0.015181981033595589,0.466
0.015134833245588439,0.467
0.015086809758331845,0.468
0.015037726271117912,0.469
0.01498739197643115,0.47
0.014935614745241877,0.471
0.014882205032172363,0.472
0.014826976577987245,0.473
0.014769743459822661,0.474
0.014710316028746763,0.475
0.014648501480014077,0.476
0.014584112120199735,0.477
0.014516977586784326,0.478
0.014446955006241886,0.479
0.014373933361343814,0.48
0.014297830437439511,0.481
0.014218582791537307,0.482
0.014136133917887098,0.483
0.014050430359560002,0.484
0.013961430297875431,0.485
0.013869117798784181,0.486
0.013773513694699766,0.487
0.013674679714175578,0.488
0.013572716090920001,0.489
0.013467754082512176,0.49
0.013359945444522224,0.491
0.013249450893515029,0.492
0.013136430020597277,0.493
0.013021036028746897,0.494
0.012903416584255603,0.495
0.01278371780175611,0.496
0.01266208790891859,0.497
0.012538679721971042,0.498
0.012413652254999921,0.499
0.01228717167338224,0.5
0.012159411625009754,0.501
0.012030552863524904,0.502
0.011900782046536839,0.503
0.011770289652251038,0.504
0.011639267089718098,0.505
0.011507903245169518,0.506
0.011376381046149985,0.507
0.011244875095046325,0.508
0.011113551075865655,0.509
0.010982566268184973,0.51
0.010852069842664442,0.511
0.010722202411227188,0.512
0.010593095295989507,0.513
0.010464870153484981,0.514
0.010337639001373649,0.515
0.010211504342117374,0.516
0.010086559551897408,0.517
0.009962889930188477,0.518
0.009840574260310896,0.519
0.009719686388958534,0.52
0.009600296475001576,0.521
0.009482471702122333,0.522
0.009366276306008581,0.523
0.009251770823166664,0.524
0.009139010691257424,0.525
0.00902804495193993,0.526
0.008918916146130617,0.527
0.00881166146789847,0.528
0.00870631383471179,0.529
0.00860290172477887,0.53
0.008501448369313932,0.531
0.008401972084975723,0.532
0.008304488390780785,0.533
0.008209012512608343,0.534
0.008115560635391296,0.535
0.008024149311071207,0.536
0.007934793402395763,0.537
0.007847504105153846,0.538
0.007762289003140527,0.539
0.007679154372359478,0.54
0.007598107986458963,0.541
0.00751916082392642,0.542
0.00744232722822622,0.543
0.007367623666398931,0.544
0.007295066417243346,0.545
0.007224668924053375,0.546
0.007156440190143959,0.547
0.007090385165808025,0.548
0.0070265064443362155,0.549
0.006964805907500214,0.55
0.00690528565238559,0.551
0.006847948118917802,0.552
0.006792795472380864,0.553
0.006739828362349784,0.554
0.006689044292611389,0.555
0.006640436059885421,0.556
0.006593990835060307,0.557
0.006549689952980246,0.558
0.006507508948467986,0.559
0.006467417757623509,0.56
0.006429381297089991,0.561
0.0063933601086963755,0.562
0.006359310476870236,0.563
0.006327183982906041,0.564
0.006296927269965933,0.565
0.006268482680462627,0.566
0.006241789361936469,0.567
0.006216783996292236,0.568
0.006193400800208392,0.569
0.006171570919278106,0.57
0.0061512215750487015,0.571
0.006132275451670536,0.572
0.00611465078909302,0.573
0.006098262456595899,0.574
0.006083023936228869,0.575
0.006068849733705191,0.576
0.0060556573991534975,0.577
0.006043368251090097,0.578
0.006031906152698513,0.579
0.006021194914424712,0.58
0.006011156897951111,0.581
0.006001714996065914,0.582
0.005992796882503496,0.583
0.005984338856140374,0.584
0.0059762877657895674,0.585
0.0059686006337576186,0.586
0.005961242089605519,0.587
0.0059541803348723,0.588
0.005947383509154057,0.589
0.00594081887325141,0.59
0.005934455295174438,0.591
0.005928266966432865,0.592
0.005922236219436806,0.593
0.005916354643965764,0.594
0.005910622332718426,0.595
0.005905045287524452,0.596
0.005899631676511502,0.597
0.005894388896289953,0.598
0.00588932342879833,0.599
0.005884443116476007,0.6
0.0058797595623234005,0.601
0.0058752890316688235,0.602
0.005871051673780698,0.603
0.005867069525630196,0.604
0.005863363937242772,0.605
0.005859953279529837,0.606
0.005856851836454001,0.607
0.005854069942537175,0.608
0.005851614391634355,0.609
0.005849488288657795,0.61
