VaMe,time
0.016709988755852948,0.001
0.01720603628398364,0.002
0.017701828466114157,0.003
0.018196769007189327,0.004
0.018690261800149086,0.005
0.01918171867366189,0.006
0.019670565660047767,0.007
0.02015624643401334,0.008
0.020638221802289403,0.009
0.021115964440614948,0.01
0.021588949799823336,0.011
0.022056648375986997,0.012
0.022518526826575166,0.013
0.02297405978796385,0.014
0.02342274669496604,0.015
0.023864127086351293,0.016
0.024297790544425064,0.017
0.024723378512350003,0.018
0.025140575856879416,0.019
0.025549093206355924,0.02
0.02594864937537012,0.021
0.02633896884367022,0.022
0.026719798707971035,0.023
0.027090933118870144,0.024
0.027452231871632527,0.025
0.02780362819105655,0.026
0.028145125512310885,0.027
0.028476784745868476,0.028
0.028798704787944034,0.029
0.029110999905968746,0.03
0.02941377973280238,0.031
0.02970713958717184,0.032
0.02999116346944957,0.033
0.030265933043646987,0.034
0.030531535785729647,0.035
0.03078807109874096,0.036
0.031035655203516206,0.037
0.03127442485837244,0.038
0.03150453914880612,0.039
0.03172617809504259,0.04
0.03193953692722745,0.041
0.0321448156038409,0.042
0.032342205942405895,0.043
0.0325318834361536,0.044
0.03271400969468805,0.045
0.03288874254573372,0.046
0.0330562459734133,0.047
0.0332166952109726,0.048
0.03337027595860202,0.049
0.033517178071890856,0.05
0.033657585161703675,0.051
0.03379166447505237,0.052
0.03391956416425412,0.053
0.034041420837004815,0.054
0.034157372144982434,0.055
0.034267567648754445,0.056
0.034372174841344756,0.057
0.034471379337997855,0.058
0.03456537907440961,0.059
0.03465437336868993,0.06
0.03473854990418746,0.061
0.03481807598231843,0.062
0.03489309913750901,0.063
0.0349637551730058,0.064
0.0350301779575137,0.065
0.03509250774342537,0.066
0.03515089710966818,0.067
0.03520551391715641,0.068
0.0352565408004876,0.069
0.03530417121476661,0.07
0.03534860244227896,0.071
0.03539002594096606,0.072
0.03542861694948552,0.073
0.03546452932466613,0.074
0.03549790112280651,0.075
0.03552886866534222,0.076
0.03555758183532788,0.077
0.03558421498663667,0.078
0.03560897037663596,0.079
0.03563207274275858,0.08
0.03565375558228129,0.081
0.035674244222823344,0.082
0.03569374689206615,0.083
0.03571246078084253,0.084
0.03573058648823033,0.085
0.03574834029974481,0.086
0.035765960068432835,0.087
0.03578370448933375,0.088
0.035801846490518624,0.089
0.035820662210267744,0.09
0.03584041793589373,0.091
0.035861359219183396,0.092
0.035883707285148635,0.093
0.03590766388811226,0.094
0.0359334204863134,0.095
0.035961167709479255,0.096
0.03599110386010028,0.097
0.03602344175992309,0.098
0.03605841259449413,0.099
0.036096265254645384,0.1
0.03613726037199906,0.101
0.03618165968651192,0.102
0.03622971312529637,0.103
0.036281647688476214,0.104
0.0363376621849293,0.105
0.036397928107720315,0.106
0.036462593389232696,0.107
0.03653178700413166,0.108
0.03660562493329592,0.109
0.03668421793437908,0.11
0.03676768027996313,0.111
0.036856137791084174,0.112
0.036949733304173886,0.113
0.03704862805194837,0.114
0.03715299808775815,0.115
0.03726302561626723,0.116
0.03737888650518612,0.117
0.03750073901055522,0.118
0.03762872162931281,0.119
0.03776296260670088,0.12
0.03790359466586908,0.121
0.03805076743147982,0.122
0.03820465428357082,0.123
0.03836545266542912,0.124
0.038533377568289236,0.125
0.03870864872477657,0.126
0.038891475047333306,0.127
0.03908204500344073,0.128
0.039280529555427865,0.129
0.03948709342650377,0.13
0.03970190535798938,0.131
0.039925142406364966,0.132
0.040156987728162855,0.133
0.04039762290422207,0.134
0.040647216605978836,0.135
0.04090591304518482,0.136
0.04117382586172299,0.137
0.04145104037753391,0.138
0.04173762056110597,0.139
0.042033615799047845,0.14
0.042339065892116785,0.141
0.04265400412164322,0.142
0.0429784579480151,0.143
0.04331244673885142,0.144
0.04365597607113227,0.145
0.044009029276370994,0.146
0.044371559891787496,0.147
0.04474349040563156,0.148
0.045124718301821215,0.149
0.04551512431243438,0.15
0.04591457761870685,0.151
0.04632293618909706,0.152
0.04674004258531803,0.153
0.04716571650987116,0.154
0.04759974616913799,0.155
0.04804188130631175,0.156
0.04849183015925567,0.157
0.04894925958174568,0.158
0.049413795184949,0.159
0.04988501987731098,0.16
0.05036247258073198,0.161
0.050845649508915854,0.162
0.05133400752094323,0.163
0.051826966811937686,0.164
0.05232391057840689,0.165
0.05282418183299521,0.166
0.05332708190630508,0.167
0.05383187618961974,0.168
0.05433780721650508,0.169
0.05484411023449793,0.17
0.05535002612259374,0.171
0.05585480747683994,0.172
0.056357714587351816,0.173
0.056858001117272246,0.174
0.057354897616914646,0.175
0.05784760804159282,0.176
0.058335325222406566,0.177
0.05881725387297282,0.178
0.05929262715545525,0.179
0.059760711617938285,0.18
0.06022080091418626,0.181
0.060672200840875164,0.182
0.06111420953047163,0.183
0.06154609721242796,0.184
0.061967090577198514,0.185
0.062376366085093164,0.186
0.06277305210918906,0.187
0.06315623586525616,0.188
0.06352497296734189,0.189
0.06387830094626472,0.19
0.06421525823930459,0.191
0.06453490824169057,0.192
0.06483636571692306,0.193
0.06511882059928573,0.194
0.06538155253546601,0.195
0.06562392921548574,0.196
0.06584538345973563,0.197
0.066045374561972,0.198
0.06622336029640197,0.199
0.06637880828277902,0.2
0.06651124299380073,0.201
0.06662029895903271,0.202
0.06670575772919982,0.203
0.0667675611998339,0.204
0.06680580068413983,0.205
0.0668206847250248,0.206
0.06681249190579504,0.207
0.06678151978306329,0.208
0.06672804847294772,0.209
0.06665233451314112,0.21
0.06655463063402206,0.211
0.06643521314972614,0.212
0.06629440507619326,0.213
0.06613259299702753,0.214
0.06595023783427148,0.215
0.06574787865228159,0.216
0.06552612798692994,0.217
0.06528565731721157,0.218
0.06502717235937025,0.219
0.06475138168136155,0.22
0.06445897066774976,0.221
0.06415059628492914,0.222
0.06382690411995376,0.223
0.06348855271851904,0.224
0.06313623161672069,0.225
0.06277066923146957,0.226
0.06239263114982094,0.227
0.062002910311621535,0.228
0.061602311313232884,0.229
0.06119163141718323,0.23
0.06077164131431305,0.231
0.06034307053217088,0.232
0.05990660315835308,0.233
0.05946288442138915,0.234
0.05901253238847538,0.235
0.058556149617751435,0.236
0.05809433326341872,0.237
0.057627682949902594,0.238
0.057156804958060956,0.239
0.05668231097540904,0.24
0.05620481025016086,0.241
0.055724895693023545,0.242
0.05524312902143675,0.243
0.05476003486307251,0.244
0.05427610839134694,0.245
0.05379182898987706,0.246
0.05330767023871641,0.247
0.05282410273223357,0.248
0.052341590063917254,0.249
0.05186057969381731,0.25
0.05138149148371975,0.251
0.05090470720894422,0.252
0.05043056386384146,0.253
0.04995935115079112,0.254
0.04949131101469892,0.255
0.04902663774498783,0.256
0.04856547957955025,0.257
0.048107943423080425,0.258
0.04765410310303769,0.259
0.047204009976672096,0.26
0.04675770349807188,0.261
0.04631521894317801,0.262
0.04587658997753913,0.263
0.04544184494741029,0.264
0.04501099741087214,0.265
0.04458403497300372,0.266
0.04416091458901439,0.267
0.04374156870697003,0.268
0.043325916960180476,0.269
0.04291387615880655,0.27
0.04250536626492258,0.271
0.04210031275883589,0.272
0.04169864608587935,0.273
0.04130029882408644,0.274
0.04090520097804665,0.275
0.04051327348613813,0.276
0.04012441992719897,0.277
0.03973851860337563,0.278
0.03935542119897199,0.279
0.038974962399794026,0.28
0.038596977049998885,0.281
0.038221318259016875,0.282
0.037847872083974804,0.283
0.03747656575545318,0.284
0.03710736690879778,0.285
0.0367402725275704,0.286
0.03637529015201755,0.287
0.03601242193697911,0.288
0.03565166481083882,0.289
0.03529302745601249,0.29
0.03493655110118332,0.291
0.034582322339113784,0.292
0.034230474349434305,0.293
0.03388117739724036,0.294
0.03353462122630232,0.295
0.03319099498383724,0.296
0.03285047470370628,0.297
0.032513225085412864,0.298
0.032179410536235784,0.299
0.03184920560957759,0.3
0.03152280025938559,0.301
0.031200400029802903,0.302
0.030882222387607572,0.303
0.030568490433494612,0.304
0.030259425108395948,0.305
0.029955236849802093,0.306
0.029656118013525926,0.307
0.02936223853628235,0.308
0.02907374695642026,0.309
0.028790775984246963,0.31
0.028513449913637023,0.311
0.028241891878540558,0.312
0.027976229853796053,0.313
0.027716600405719702,0.314
0.02746314925126556,0.315
0.027216027997666863,0.316
0.026975387012486543,0.317
0.026741366441588754,0.318
0.02651409078899814,0.319
0.0262936712840226,0.32
0.026080213551266516,0.321
0.025873824961343307,0.322
0.025674618689907516,0.323
0.025482714042717413,0.324
0.02529823339305179,0.325
0.025121296484983693,0.326
0.024952013282248046,0.327
0.024790477477152767,0.328
0.024636763553198448,0.329
0.024490928329843953,0.33
0.024353014611436803,0.331
0.024223054359473653,0.332
0.024101070603808863,0.333
0.023987077948115665,0.334
0.02388108145711604,0.335
0.023783073916862043,0.336
0.023693032127178444,0.337
0.02361091385376888,0.338
0.023536656913447928,0.339
0.023470180032007792,0.34
0.023411383959468186,0.341
0.023360152189011312,0.342
0.023316351678105498,0.343
0.02327983395048656,0.344
0.023250436395418742,0.345
0.023227983080013604,0.346
0.023212284235448334,0.347
0.02320313421793335,0.348
0.023200309306201185,0.349
0.023203567286467084,0.35
0.023212648724822833,0.351
0.023227277789262795,0.352
0.023247161293904424,0.353
0.023271986609410857,0.354
0.023301419974411184,0.355
0.023335106572719016,0.356
0.023372673020783677,0.357
0.023413731936904384,0.358
0.023457887345382594,0.359
0.02350473906697668,0.36
0.023553884128991752,0.361
0.023604913986295974,0.362
0.023657409806287534,0.363
0.02371094276337314,0.364
0.023765083992815645,0.365
0.023819420111353164,0.366
0.023873566467276203,0.367
0.023927172815353212,0.368
0.023979918841947664,0.369
0.024031500788215164,0.37
0.024081617970266325,0.371
0.02412997157697864,0.372
0.02417627792032483,0.373
0.02422028518533597,0.374
0.02426178286018046,0.375
0.02430060069871617,0.376
0.02433659872514741,0.377
0.02436965164332036,0.378
0.024399632641851375,0.379
0.024426402720453322,0.38
0.024449808423621842,0.381
0.02446968435604677,0.382
0.02448585528272811,0.383
0.02449813642077861,0.384
0.024506333281923233,0.385
0.024510242683973785,0.386
0.02450965602061253,0.387
0.024504365170649897,0.388
0.02449417064216393,0.389
0.024478890766593632,0.39
0.024458370092426865,0.391
0.024432484720606128,0.392
0.02440114232201071,0.393
0.024364275120450165,0.394
0.024321826822770735,0.395
0.024273741006498702,0.396
0.024219961665508247,0.397
0.024160447591286313,0.398
0.024095190958115433,0.399
0.024024230665302335,0.4
0.023947657257442002,0.401
0.023865609765268,0.402
0.023778266083989818,0.403
0.023685829140895266,0.404
0.02358851117203562,0.405
0.02348651940387756,0.406
0.02338004823467937,0.407
0.023269280255083038,0.408
0.023154391891833718,0.409
0.023035558182753876,0.41
0.022912954983876306,0.411
0.022786759224153012,0.412
0.022657148171543205,0.413
0.022524298646206666,0.414
0.02238838687584878,0.415
0.022249589295928903,0.416
0.022108084165914192,0.417
0.021964053516766408,0.418
0.02181768473787835,0.419
0.02166917107889938,0.42
0.021518710476801834,0.421
0.021366502389902387,0.422
0.02121274266255732,0.423
0.021057617519465017,0.424
0.02090129981086437,0.425
0.020743950422217206,0.426
0.020585723977135265,0.427
0.02042677543898618,0.428
0.020267265277166917,0.429
0.020107362470415464,0.43
0.019947245236388442,0.431
0.01978709962060174,0.432
0.019627116237666085,0.433
0.019467485560260452,0.434
0.01930839225234813,0.435
0.019150009703266278,0.436
0.018992497008677584,0.437
0.018835999723939564,0.438
0.01868065290564846,0.439
0.01852658417437376,0.44
0.018373915926624726,0.441
0.018222766609267475,0.442
0.0180732508682866,0.443
0.017925478236501514,0.444
0.01777955023175445,0.445
0.017635556997190514,0.446
0.017493576110584566,0.447
0.017353674793156793,0.448
0.017215913404493167,0.449
0.017080347552561572,0.45
0.0169470280273279,0.451
0.016815998955871523,0.452
0.01668729487901713,0.453
0.016560937811686872,0.454
0.016436935765012168,0.455
0.016315283401296878,0.456
0.016195963819932494,0.457
0.016078950202061175,0.458
0.01596420689431426,0.459
0.015851689895690566,0.46
0.01574134673346385,0.461
0.015633115795045255,0.462
0.015526925294412795,0.463
0.015422692169904481,0.464
0.015320321316609348,0.465
0.015219705609560763,0.466
0.015120727118156456,0.467
0.015023259726322269,0.468
0.014927173081876782,0.469
0.014832337429541199,0.47
0.014738628448505472,0.471
0.014645930784667627,0.472
0.014554138730155512,0.473
0.014463152722770928,0.474
0.014372872983866037,0.475
0.014283196548315478,0.476
0.01419402294578245,0.477
0.014105265536030769,0.478
0.014016861747541468,0.479
0.013928778623566817,0.48
0.013841012981729956,0.481
0.013753586661489287,0.482
0.013666538078564449,0.483
0.013579912019501737,0.484
0.013493750973323674,0.485
0.013408091733591396,0.486
0.013322967602422424,0.487
0.013238412478228536,0.488
0.013154463689055181,0.489
0.013071163235541711,0.49
0.012988558124304729,0.491
0.012906700258169894,0.492
0.012825646029745986,0.493
0.01274545551246767,0.494
0.012666191081027397,0.495
0.01258791542285567,0.496
0.012510689108822422,0.497
0.012434568017941289,0.498
0.012359600859219605,0.499
0.012285827107258642,0.5
0.012213276086208829,0.501
0.012141967774563863,0.502
0.012071914878848615,0.503
0.012003125266413103,0.504
0.011935604249210512,0.505
0.011869356464799793,0.506
0.011804387033461905,0.507
0.011740701635304735,0.508
0.011678305300267314,0.509
0.011617200013080345,0.51
0.01155738176507125,0.511
0.011498838372725756,0.512
0.011441549224115196,0.513
0.011385486696220396,0.514
0.011330618034859382,0.515
0.011276906970143984,0.516
0.0112243150372374,0.517
0.011172802695358388,0.518
0.011122330180106776,0.519
0.011072857832740762,0.52
0.01102434551558291,0.521
0.01097675073960001,0.522
0.010930025960375444,0.523
0.01088411718715433,0.524
0.010838965846721843,0.525
0.010794512995543593,0.526
0.010750703381034694,0.527
0.010707487738327677,0.528
0.010664822762220309,0.529
0.010622668720223417,0.53
0.01058098540818649,0.531
0.01053972859965239,0.532
0.010498849826081938,0.533
0.010458300107259916,0.534
0.010418035334571332,0.535
0.01037802081639166,0.536
0.010338233789367155,0.537
0.01029866335764548,0.538
0.01025930763924892,0.539
0.01022016859725632,0.54
0.010181246770120845,0.541
0.010142539474179703,0.542
0.010104043536214363,0.543
0.010065759411926088,0.544
0.010027693413726724,0.545
0.00998985749859713,0.546
0.0099522676003389,0.547
0.009914941669485478,0.548
0.009877898253941822,0.549
0.00984115587833994,0.55
0.00980473296412777,0.551
0.009768647750470805,0.552
0.009732917656495785,0.553
0.009697557711371202,0.554
0.009662578314032954,0.555
0.009627983693505886,0.556
0.00959377248477387,0.557
0.009559940117999313,0.558
0.009526481532556221,0.559
0.009493393296672864,0.56
0.00946067507809506,0.561
0.009428330678554718,0.562
0.009396368767951252,0.563
0.009364803251734827,0.564
0.009333652993287915,0.565
0.009302940515737976,0.566
0.009272689395574527,0.567
0.009242920872633358,0.568
0.009213651775219935,0.569
0.009184895691318301,0.57
0.009156666550593003,0.571
0.009128982088765255,0.572
0.009101865586894286,0.573
0.00907534561047934,0.574
0.00904945416456262,0.575
0.009024223975077014,0.576
0.008999685565690281,0.577
0.008975864639167348,0.578
0.008952780355694938,0.579
0.008930445115118554,0.58
0.008908865796695756,0.581
0.00888804570897389,0.582
0.00886798660039386,0.583
0.00884869048713535,0.584
0.008830161161705053,0.585
0.008812405188162778,0.586
0.0087954321502366,0.587
0.008779253938451482,0.588
0.008763882971998295,0.589
0.008749329562027886,0.59
0.008735599411211653,0.591
0.008722692836277366,0.592
0.008710606167824781,0.593
0.00869933393609559,0.594
0.008688870381943607,0.595
0.00867920996465283,0.596
0.008670347146933405,0.597
0.008662275813799176,0.598
0.00865498860088842,0.599
0.008648476244162385,0.6
0.008642726905137215,0.601
0.0086377253419257,0.602
0.00863345181626786,0.603
