VaMe,time
0.0012148638454125493,0.001
0.001640698426130079,0.002
0.0020637463447706994,0.003
0.0024835672822313072,0.004
0.00289972725108347,0.005
0.0033118010600980768,0.006
0.003719374447005552,0.007
0.004122045823812867,0.008
0.0045194277398097095,0.009
0.004911148344810334,0.01
0.005296853211177174,0.011
0.005676207777375049,0.012
0.0060489004160600565,0.013
0.006414645751020746,0.014
0.006773187397773121,0.015
0.007124298875450122,0.016
0.00746778124318005,0.017
0.007803456327124434,0.018
0.008131157164907978,0.019
0.008450722423068002,0.02
0.00876200068705533,0.021
0.009064861834536728,0.022
0.009359208322800815,0.023
0.009644982483082855,0.024
0.00992216917298395,0.025
0.010190794105187442,0.026
0.010450918447379746,0.027
0.010702630432175748,0.028
0.010946034872311963,0.029
0.011181242515232722,0.03
0.01140836324535291,0.031
0.01162750630859699,0.032
0.011838785723660332,0.033
0.01204232616672843,0.034
0.012238266396579064,0.035
0.012426759527207001,0.036
0.012607970288220326,0.037
0.01278206978924842,0.038
0.012949229021700606,0.039
0.013109613659779345,0.04
0.013263382775324285,0.041
0.013410691257867273,0.042
0.013551693198762519,0.043
0.013686544162318166,0.044
0.013815401919425386,0.045
0.013938425730413586,0.046
0.014055774243672395,0.047
0.014167602167398192,0.048
0.014274056506284208,0.049
0.01437527424483048,0.05
0.014471382912894595,0.051
0.014562503243810709,0.052
0.014648752214841458,0.053
0.014730245754567802,0.054
0.014807101161631425,0.055
0.014879439216291389,0.056
0.01494738563155148,0.057
0.015011071226012071,0.058
0.015070630241828666,0.059
0.015126196601843373,0.06
0.015177899032330347,0.061
0.015225857926319988,0.062
0.015270186787962948,0.063
0.015310997776999059,0.064
0.015348408383833886,0.065
0.015382546834110056,0.066
0.015413555074451014,0.067
0.015441588877427331,0.068
0.015466815150815159,0.069
0.015489406958461566,0.07
0.015509537053538,0.071
0.015527371882647297,0.072
0.015543069551511102,0.073
0.015556783439939843,0.074
0.015568668943380097,0.075
0.01557888993038927,0.076
0.01558762344381163,0.077
0.01559506216044063,0.078
0.015601414239777617,0.079
0.015606900375073268,0.08
0.015611748118226158,0.081
0.015616184611078481,0.082
0.015620431165628798,0.083
0.01562470337213276,0.084
0.01562921619665036,0.085
0.015634189973753522,0.086
0.015639854294460066,0.087
0.01564644920916339,0.088
0.015654224087556567,0.089
0.015663434610307506,0.09
0.015674338482560318,0.091
0.015687190631068028,0.092
0.015702238736559588,0.093
0.01571971978166758,0.094
0.015739857890006113,0.095
0.01576286332398111,0.096
0.015788932282503183,0.097
0.015818247080484186,0.098
0.01585097629291374,0.099
0.015887274600013237,0.1
0.015927282638754682,0.101
0.015971127710890536,0.102
0.016018925764577596,0.103
0.016070784030216757,0.104
0.016126803278973346,0.105
0.016187078962617025,0.106
0.016251700962912605,0.107
0.016320752185095648,0.108
0.016394306659801443,0.109
0.01647242799978468,0.11
0.016555168920536927,0.111
0.01664257208310561,0.112
0.016734671863810367,0.113
0.01683149607712829,0.114
0.016933066508591877,0.115
0.017039397459690037,0.116
0.017150492892687302,0.117
0.017266344943635895,0.118
0.01738693622679247,0.119
0.01751224490407249,0.12
0.017642249695695042,0.121
0.017776933006382303,0.122
0.017916281373613598,0.123
0.0180602829586287,0.124
0.018208922520181747,0.125
0.018362176083813766,0.126
0.018520009261974363,0.127
0.018682380882482988,0.128
0.018849248794534635,0.129
0.01902057391399414,0.13
0.019196321252233625,0.131
0.019376458546182366,0.132
0.019560953641374973,0.133
0.019749771599996323,0.134
0.019942871828837548,0.135
0.0201402048456989,0.136
0.02034170873638561,0.137
0.02054730730698826,0.138
0.0207569123914256,0.139
0.020970430000932738,0.14
0.021187767736447583,0.141
0.02140884120290654,0.142
0.021633578008559827,0.143
0.02186191840490146,0.144
0.022093812256903822,0.145
0.02232921287940073,0.146
0.022568069020388888,0.147
0.02281031710997095,0.148
0.023055876549106544,0.149
0.023304649185716515,0.15
0.02355652105264919,0.151
0.023811364044470984,0.152
0.02406903706286175,0.153
0.024329387066731357,0.154
0.024592250259847053,0.155
0.02485745332264107,0.156
0.025124814418175094,0.157
0.025394143696978268,0.158
0.025665243105076844,0.159
0.025937905373912856,0.16
0.026211912111109004,0.161
0.02648703094310836,0.162
0.026763011895319704,0.163
0.027039584149758523,0.164
0.02731645526703401,0.165
0.027593313767872083,0.166
0.02786983356869599,0.167
0.028145678286814226,0.168
0.028420504433758403,0.169
0.028693963077434135,0.17
0.028965699761083673,0.171
0.029235352735129297,0.172
0.029502549848753532,0.173
0.02976690471993561,0.174
0.030028012959323627,0.175
0.030285449149320087,0.176
0.030538764926102916,0.177
0.03078748792979622,0.178
0.031031120809846085,0.179
0.03126914021974991,0.18
0.031500998357582494,0.181
0.031726130416770554,0.182
0.031943968405787025,0.183
0.03215395917209088,0.184
0.03235558376441345,0.185
0.032548374679567914,0.186
0.03273192701137306,0.187
0.03290589972354577,0.188
0.03307000433658967,0.189
0.0332239825867509,0.19
0.03336758541531808,0.191
0.033500572294576515,0.192
0.03362273567536393,0.193
0.03373393485292198,0.194
0.03383412243905423,0.195
0.03392335709865769,0.196
0.03400180185089326,0.197
0.03406970893992207,0.198
0.03412739362336971,0.199
0.03417520199222376,0.2
0.03421348428351284,0.201
0.0342425872075614,0.202
0.03426286597215177,0.203
0.034274702065711274,0.204
0.034278514710976864,0.205
0.03427476342256584,0.206
0.03426394323744057,0.207
0.034246574692312445,0.208
0.03422319069782296,0.209
0.03419432228954515,0.21
0.034160485548840235,0.211
0.03412217297951109,0.212
0.03407985153316059,0.213
0.03403396539545185,0.214
0.03398493949771355,0.215
0.03393318155622773,0.216
0.03387908249512186,0.217
0.033823015578445005,0.218
0.03376533458006871,0.219
0.033706371370422726,0.22
0.033646433248171084,0.221
0.0335858002494376,0.222
0.033524723073449315,0.223
0.033463423019343255,0.224
0.03340209483386401,0.225
0.033340911748046285,0.226
0.033280031319126525,0.227
0.03321960093613239,0.228
0.033159761803058845,0.229
0.033100650095453585,0.23
0.033042394249487864,0.231
0.03298510876416496,0.232
0.032928888404317375,0.233
0.03287380870603939,0.234
0.032819934180046854,0.235
0.03276732935739385,0.236
0.03271606747991825,0.237
0.032666234710777245,0.238
0.03261792940806372,0.239
0.03257125651088536,0.24
0.03252631763856743,0.241
0.03248320036149162,0.242
0.0324419744260767,0.243
0.03240269951636056,0.244
0.032365439264968834,0.245
0.03233027318082959,0.246
0.03229730234602194,0.247
0.032266647896854926,0.248
0.03223844296319163,0.249
0.03221282018465399,0.25
0.03218989873031956,0.251
0.03216977666541003,0.252
0.03215253182851748,0.253
0.03213822788408609,0.254
0.0321269204907706,0.255
0.032118661803814584,0.256
0.032113503669141306,0.257
0.03211150007662575,0.258
0.03211270916276006,0.259
0.03211719456819092,0.26
0.032125025480661526,0.261
0.03213627445368338,0.262
0.03215101221925036,0.263
0.032169299567449135,0.264
0.03219117905032496,0.265
0.03221667186820594,0.266
0.03224578207566833,0.267
0.03227850379553725,0.268
0.03231482641237779,0.269
0.032354736348081725,0.27
0.032398215993609515,0.271
0.03244524070651476,0.272
0.03249577481607295,0.273
0.0325497673769038,0.274
0.03260714809967268,0.275
0.03266782359401943,0.276
0.032731674039381375,0.277
0.03279855090120006,0.278
0.032868276612911425,0.279
0.032940646245353304,0.28
0.033015430055150244,0.281
0.03309237586490087,0.282
0.03317121086280501,0.283
0.03325164271423149,0.284
0.033333359987076136,0.285
0.033416031954669266,0.286
0.03349930779260887,0.287
0.03358281505222239,0.288
0.03366615714621688,0.289
0.03374891039519065,0.29
0.03383062331987052,0.291
0.03391082092463586,0.292
0.03398901350206246,0.293
0.03406470738194684,0.294
0.03413741520957985,0.295
0.034206663464635176,0.296
0.03427199511181323,0.297
0.03433296623951545,0.298
0.034389136899589945,0.299
0.03444005875094102,0.3
0.034485266132222935,0.301
0.034524277569449105,0.302
0.03455660756871911,0.303
0.03458178212658129,0.304
0.034599352422849304,0.305
0.0346089047052211,0.306
0.034610066006344455,0.307
0.03460250571365132,0.308
0.03458593288413399,0.309
0.03456008888251173,0.31
0.03452473493523667,0.311
0.034479635874297594,0.312
0.03442454656333493,0.313
0.03435921115555194,0.314
0.03428337845349072,0.315
0.03419682597615626,0.316
0.034099384032140564,0.317
0.033990955134423406,0.318
0.03387152529817456,0.319
0.03374116364742112,0.32
0.03360000798213003,0.321
0.033448237798944874,0.322
0.03328604613784687,0.323
0.03311363016791152,0.324
0.032931207962512705,0.325
0.0327390456662782,0.326
0.032537476552601766,0.327
0.03232690610768988,0.328
0.032107804456054434,0.329
0.03188068926210169,0.33
0.03164610313749185,0.331
0.031404591042473236,0.332
0.03115668560631916,0.333
0.03090290547787929,0.334
0.030643762618529812,0.335
0.030379770154322902,0.336
0.030111446453956525,0.337
0.029839315230480445,0.338
0.029563902468425374,0.339
0.02928573100300591,0.34
0.02900531360731454,0.341
0.02872314592937216,0.342
0.028439701560011982,0.343
0.02815543072084145,0.344
0.027870760907218836,0.345
0.027586096916870903,0.346
0.027301821113075914,0.347
0.027018296572420414,0.348
0.026735872731860108,0.349
0.026454890399380464,0.35
0.026175683635335834,0.351
0.025898577760828507,0.352
0.025623884632856458,0.353
0.025351898691190353,0.354
0.025082897363028843,0.355
0.024817145541243164,0.356
0.02455490069203083,0.357
0.024296416022174055,0.358
0.024041941192537407,0.359
0.02379172098182749,0.36
0.023545992538573066,0.361
0.02330498183234142,0.362
0.023068899836094014,0.363
0.022837939443672798,0.364
0.022612274696400578,0.365
0.02239206272964965,0.366
0.022177446718756412,0.367
0.021968557785633194,0.368
0.021765514939069714,0.369
0.021568423166974278,0.37
0.02137737120230167,0.371
0.021192431273421103,0.372
0.021013661267829022,0.373
0.020841107182292016,0.374
0.020674803871311372,0.375
0.020514773832509315,0.376
0.020361024832840312,0.377
0.020213547686556622,0.378
0.020072315386716725,0.379
0.019937283582342414,0.38
0.019808391319061102,0.381
0.01968556131665041,0.382
0.019568699935889604,0.383
0.019457697309357088,0.384
0.019352428029793957,0.385
0.019252752546681313,0.386
0.019158519052112032,0.387
0.019069565263432384,0.388
0.018985719313419958,0.389
0.01890679907715166,0.39
0.018832610092597624,0.391
0.018762943823948212,0.392
0.018697578368517473,0.393
0.01863628154097828,0.394
0.018578814379092336,0.395
0.018524933614998323,0.396
0.018474392880128573,0.397
0.018426942937332887,0.398
0.018382331299934614,0.399
0.018340301472004213,0.4
0.018300591786236286,0.401
0.01826293354427631,0.402
0.018227048294973416,0.403
0.01819264544233647,0.404
0.01815942300004938,0.405
0.018127073199243435,0.406
0.01809529158523175,0.407
0.01806378704116226,0.408
0.0180322906327397,0.409
0.018000561257396692,0.41
0.017968386176260925,0.411
0.01793557530639138,0.412
0.01790195028065823,0.413
0.01786733375720954,0.414
0.01783154709299791,0.415
0.017794418345435607,0.416
0.017755793697979798,0.417
0.01771554521496678,0.418
0.017673573001479034,0.419
0.01762980274744014,0.42
0.017584180428071212,0.421
0.017536666071024463,0.422
0.017487228057545434,0.423
0.017435838674969225,0.424
0.017382470894548856,0.425
0.017327095826936527,0.426
0.01726968009884434,0.427
0.017210182574735385,0.428
0.01714855107990618,0.429
0.01708472165487885,0.43
0.017018622241283355,0.431
0.01695017969501546,0.432
0.016879328013666556,0.433
0.01680601669222179,0.434
0.01673021841346725,0.435
0.016651934898371502,0.436
0.016571199586613142,0.437
0.016488076093995115,0.438
0.016402652096652905,0.439
0.016315029209259462,0.44
0.01622531151728501,0.441
0.016133598414833198,0.442
0.016039985673321485,0.443
0.01594457192312696,0.444
0.0158474652159841,0.445
0.01574878758927848,0.446
0.015648677993463075,0.447
0.015547293937058388,0.448
0.015444811603410371,0.449
0.015341423934883455,0.45
0.015237336491876516,0.451
0.015132761491086886,0.452
0.015027910852222782,0.453
0.014922989804788737,0.454
0.01481819359192036,0.455
0.014713708396204731,0.456
0.014609714337923678,0.457
0.01450638789785283,0.458
0.014403903066621971,0.459
0.014302431568991282,0.46
0.014202142554533599,0.461
0.014103202031017654,0.462
0.014005772157081386,0.463
0.013910010379689702,0.464
0.013816068337314602,0.465
0.013724090454291375,0.466
0.013634212206663967,0.467
0.013546558379404118,0.468
0.013461242212169605,0.469
0.013378366008610991,0.47
0.013298022535238194,0.471
0.013220296114045465,0.472
0.013145262902335975,0.473
0.013072990330309573,0.474
0.013003535948325285,0.475
0.01293694631802678,0.476
0.012873256671787854,0.477
0.012812491398191704,0.478
0.012754664699666454,0.479
0.012699780896856888,0.48
0.01264783433049071,0.481
0.012598808968374228,0.482
0.012552677847881624,0.483
0.012509402666014165,0.484
0.012468933935731324,0.485
0.012431211798075744,0.486
0.012396167154531118,0.487
0.012363722768687628,0.488
0.012333794184629794,0.489
0.012306290399846131,0.49
0.012281114230867585,0.491
0.012258162293502869,0.492
0.012237324532746766,0.493
0.012218483327090293,0.494
0.012201512339115397,0.495
0.012186275397635392,0.496
0.012172625695785914,0.497
0.012160405482377942,0.498
0.012149446280610671,0.499
0.01213956953423915,0.5
0.012130587450961166,0.501
0.012122303685912307,0.502
0.012114513428919345,0.503
0.012107002826294773,0.504
0.012099548779840109,0.505
0.012091920733955371,0.506
0.012083884953276714,0.507
0.012075210494550641,0.508
0.012065675851793568,0.509
0.012055075265073937,0.51
0.012043223357180877,0.511
0.012029956510601323,0.512
0.012015129605443474,0.513
0.011998608455722263,0.514
0.011980262701615748,0.515
0.011959966523973489,0.516
0.01193760891051999,0.517
0.011913107253414946,0.518
0.011886417542553563,0.519
0.011857538378511454,0.52
0.011826508468083589,0.521
0.011793398415996333,0.522
0.011758298499164072,0.523
0.011721305868848293,0.524
0.011682517078433369,0.525
0.011642029321077834,0.526
0.011599946669788344,0.527
0.011556385538787425,0.528
0.01151147715445886,0.529
0.011465367317257325,0.53
0.011418214174134113,0.531
0.011370184730485325,0.532
0.01132145072789726,0.533
0.011272184370934295,0.534
0.011222554250551603,0.535
0.011172721969388863,0.536
0.011122840358837293,0.537
0.011073053606657784,0.538
0.011023498246451352,0.539
0.010974303744538106,0.54
0.010925592314706483,0.541
0.010877478192783147,0.542
0.010830066757021434,0.543
0.010783453859402796,0.544
0.010737725572877038,0.545
0.010692958352988686,0.546
0.010649219472642208,0.547
0.010606567568082686,0.548
0.01056505319077732,0.549
0.010524719305597115,0.55
0.010485601668343933,0.551
0.01044772899436602,0.552
0.010411122847359316,0.553
0.010375797225329633,0.554
0.010341757893315352,0.555
0.010309001751317295,0.556
0.0102775168132886,0.557
0.010247283098160864,0.558
0.010218274019250713,0.559
0.010190457585156182,0.56
0.010163796910616385,0.561
0.010138249701288215,0.562
0.010113767002198406,0.563
0.010090292788754993,0.564
0.010067765964898733,0.565
0.010046124398008945,0.566
0.010025309415391792,0.567
0.010005269510612775,0.568
0.009985962380408157,0.569
0.009967354573447296,0.57
0.009949418356849152,0.571
0.009932126790617023,0.572
0.009915450521688414,0.573
0.009899359490377568,0.574
0.009883828273692788,0.575
0.009868841089450549,0.576
0.00985439397840432,0.577
0.009840493774236875,0.578
0.009827154519345542,0.579
0.009814392513163427,0.58
0.00980222136567652,0.581
0.009790648271684481,0.582
0.00977967208829248,0.583
0.009769282990484482,0.584
0.009759463260357303,0.585
0.009750188771993427,0.586
0.009741430256775338,0.587
0.009733153372135213,0.588
0.009725318089790718,0.589
0.009717879650545606,0.59
0.00971079241619582,0.591
0.009704015202380794,0.592
0.00969751579403299,0.593
0.009691273380897845,0.594
0.009685278542406231,0.595
0.009679530910533647,0.596
0.009674035049628684,0.597
0.00966879549669374,0.598
0.00966381255036755,0.599
0.009659080551561845,0.6
0.009654588785193274,0.601
0.00965032326641307,0.602
0.009646267977300949,0.603
0.009642405447561347,0.604
0.009638717070463819,0.605
0.009635183474372458,0.606
0.009631785122099066,0.607
0.009628503110184932,0.608
0.009625319921202746,0.609
0.009622219705560906,0.61
0.009619187617877013,0.611
0.009616207865347882,0.612
0.009613260934391016,0.613
0.009610321943013547,0.614
0.00960736191485799,0.615
0.009604351312808642,0.616
0.009601263736831145,0.617
0.009598078440666322,0.618
0.00959478121386789,0.619
0.00959136351544573,0.62
0.009587819997838904,0.621
0.009584144829624287,0.622
0.009580327908091362,0.623
0.009576352977264856,0.624
0.009572198785277151,0.625
0.009567842093373103,0.626
0.009563260891797893,0.627
0.009558437275431438,0.628
0.009553359767469814,0.629
0.009548024598426123,0.63
0.00954243530716944,0.631
0.009536600172301023,0.632
0.009530528020609452,0.633
0.009524225084776492,0.634
0.009517695918617569,0.635
0.00951094808593521,0.636
0.009503997490579081,0.637
0.009496871793851978,0.638
0.009489611011971742,0.639
0.00948226528219526,0.64
0.009474890374729953,0.641
0.009467542246656477,0.642
0.009460272673453712,0.643
0.009453127534205347,0.644
0.009446147159848555,0.645
0.00943936672106965,0.646
0.009432815545933114,0.647
0.009426515836148237,0.648
0.009420481816611192,0.649
0.00941471961551961,0.65
0.009409227507743364,0.651
0.009403997025652299,0.652
0.009399016032078078,0.653
0.009394273683338053,0.654
0.009389766085583041,0.655
0.009385501240948651,0.656
0.009381501896900978,0.657
0.009377805147219363,0.658
0.009374458295629391,0.659
