VaMe,time
0.0009135131109729846,0.001
0.0010047907715874567,0.002
0.0010956226915825463,0.003
0.0011859231388296945,0.004
0.0012756066820088967,0.005
0.0013645887664620908,0.006
0.0014527859919801019,0.007
0.0015401158207366435,0.008
0.0016264958896238528,0.009
0.0017118438012231954,0.01
0.0017960781073480545,0.011
0.0018791200565694572,0.012
0.001960895165672206,0.013
0.0020413340537114963,0.014
0.0021203723336902275,0.015
0.0021979495844362314,0.016
0.0022740076540541366,0.017
0.002348488821642285,0.018
0.0024213346191865786,0.019
0.0024924858313787415,0.02
0.002561883418908575,0.021
0.0026294698815558302,0.022
0.002695190913165358,0.023
0.0027589972685787513,0.024
0.002820846468925554,0.025
0.002880703690995268,0.026
0.002938541153886272,0.027
0.002994335871321574,0.028
0.0030480671520964914,0.029
0.003099716279705118,0.03
0.0031492690357469103,0.031
0.0031967189245716856,0.032
0.0032420687181858826,0.033
0.003285329458604272,0.034
0.00332651744368968,0.035
0.0033656512979600844,0.036
0.0034027516331424264,0.037
0.00343784330541509,0.038
0.0034709577022919557,0.039
0.003502132926089718,0.04
0.0035314116705983446,0.041
0.003558838323726361,0.042
0.0035844577722738227,0.043
0.0036083168127170654,0.044
0.0036304663417543333,0.045
0.0036509622943462525,0.046
0.003669864929862094,0.047
0.0036872370115014425,0.048
0.0037031416136311768,0.049
0.0037176402243144497,0.05
0.0037307915368909664,0.051
0.0037426509615803632,0.052
0.003753270573914785,0.053
0.003762699175472801,0.054
0.00377098251787925,0.055
0.0037781640661003367,0.056
0.003784286415312783,0.057
0.0037893929898789357,0.058
0.0037935294814230255,0.059
0.0037967445786071595,0.06
0.0037990897437824534,0.061
0.003800618055712861,0.062
0.0038013824837094022,0.063
0.003801434395699065,0.064
0.0038008231063449385,0.065
0.003799596391949229,0.066
0.0037978010779399387,0.067
0.0037954829917419006,0.068
0.0037926863086231704,0.069
0.0037894529813375325,0.07
0.003785823004409988,0.071
0.003781835455588284,0.072
0.003777529542029891,0.073
0.0037729449862024013,0.074
0.0037681214942432246,0.075
0.0037630976221403787,0.076
0.003757910170237063,0.077
0.00375259504560442,0.078
0.0037471891206565786,0.079
0.0037417319493957026,0.08
0.0037362667194954687,0.081
0.0037308403207950854,0.082
0.0037255026184876833,0.083
0.0037203051457608744,0.084
0.0037152994832102583,0.085
0.0037105357088994804,0.086
0.0037060615126276587,0.087
0.003701922324365274,0.088
0.003698162090386279,0.089
0.0036948240745574962,0.09
0.003691951388122152,0.091
0.0036895872122768613,0.092
0.0036877747521273188,0.093
0.0036865569936350086,0.094
0.0036859763395824976,0.095
0.003686074172787898,0.096
0.0036868903549885264,0.097
0.003688462649253474,0.098
0.0036908261362188282,0.099
0.0036940128660765265,0.1
0.003698051925220092,0.101
0.0037029697480694943,0.102
0.0037087903503153084,0.103
0.0037155353181077227,0.104
0.003723223554392693,0.105
0.0037318709125585513,0.106
0.0037414899630281296,0.107
0.003752090023426981,0.108
0.003763677296813978,0.109
0.003776254900878131,0.11
0.0037898227409734666,0.111
0.003804377328197936,0.112
0.0038199116690577324,0.113
0.0038364152406203797,0.114
0.003853874005588312,0.115
0.0038722705317339365,0.116
0.0038915842843221843,0.117
0.003911791980548147,0.118
0.003932867806854584,0.119
0.003954783361287276,0.12
0.003977507346966537,0.121
0.004001005321203568,0.122
0.004025239865847247,0.123
0.004050171167866132,0.124
0.004075757676097006,0.125
0.004101956576575497,0.126
0.004128724020759105,0.127
0.004156015130429164,0.128
0.004183783833317159,0.129
0.004211982589565371,0.13
0.004240562054304946,0.131
0.0042694707000572015,0.132
0.004298654407684365,0.133
0.004328056026210081,0.134
0.004357614937505004,0.135
0.004387266776165967,0.136
0.004416943483675711,0.137
0.004446573682466383,0.138
0.0044760831669670605,0.139
0.004505395312121603,0.14
0.004534431267803703,0.141
0.004563109850347118,0.142
0.004591347101956787,0.143
0.004619055669209135,0.144
0.004646144395996753,0.145
0.004672518363012758,0.146
0.004698079047951672,0.147
0.004722724263656054,0.148
0.004746348267299868,0.149
0.004768842764601092,0.15
0.004790098957883429,0.151
0.0048100102341744905,0.152
0.004828475014379407,0.153
0.004845399252156212,0.154
0.004860697948055477,0.155
0.004874295017644811,0.156
0.004886121040187777,0.157
0.004896109612899719,0.158
0.004904195249754757,0.159
0.004910315483336077,0.16
0.004914416129253965,0.161
0.004916456611870215,0.162
0.004916413416723042,0.163
0.004914281055245872,0.164
0.004910070458482552,0.165
0.004903805117542897,0.166
0.004895515710131737,0.167
0.004885234808831842,0.168
0.004872994102048174,0.169
0.004858825023307631,0.17
0.004842760785108299,0.171
0.004824837633808293,0.172
0.0048050949511017306,0.173
0.00478357467409517,0.174
0.004760320499874395,0.175
0.0047353772178184315,0.176
0.004708790323523851,0.177
0.004680605888826765,0.178
0.004650870562756382,0.179
0.004619631579679629,0.18
0.0045869367206022894,0.181
0.004552834254004578,0.182
0.004517372922065487,0.183
0.004480602008615626,0.184
0.004442571435486656,0.185
0.004403331731459225,0.186
0.004362933661778121,0.187
0.004321427329372271,0.188
0.004278860970552195,0.189
0.004235280466342671,0.19
0.0041907304375109625,0.191
0.004145256446083704,0.192
0.0040989071948617775,0.193
0.004051736084374153,0.194
0.004003801909753824,0.195
0.003955168655421781,0.196
0.003905904484815269,0.197
0.0038560801199369233,0.198
0.0038057668621405273,0.199
0.00375503471505465,0.2
0.0037039513781344656,0.201
0.003652582461819547,0.202
0.003600992293414138,0.203
0.003549244522036834,0.204
0.003497402312784104,0.205
0.00344552824863393,0.206
0.0033936840844284396,0.207
0.003341930464998551,0.208
0.0032903266618062145,0.209
0.0032389303266193562,0.21
0.0031877972341917632,0.211
0.0031369809976361128,0.212
0.0030865327715226027,0.213
0.0030365010010802514,0.214
0.0029869313128789076,0.215
0.0029378665875252116,0.216
0.002889347135611309,0.217
0.0028414108701200905,0.218
0.0027940934199614654,0.219
0.00274742815592949,0.22
0.0027014461300201033,0.221
0.0026561760229300378,0.222
0.0026116442562536743,0.223
0.002567875304476665,0.224
0.0025248920549051975,0.225
0.002482716031954447,0.226
0.002441367387788481,0.227
0.0024008646809438594,0.228
0.002361224638679898,0.229
0.0023224621524417705,0.23
0.002284590509184976,0.231
0.002247621610836042,0.232
0.0022115659964070857,0.233
0.0021764326736425183,0.234
0.0021422288937849813,0.235
0.0021089600671433837,0.236
0.0020766299146964483,0.237
0.0020452407379237727,0.238
0.0020147936342579395,0.239
0.001985288567898149,0.24
0.001956724265180953,0.241
0.0019290980216466163,0.242
0.0019024056792434566,0.243
0.001876641938329508,0.244
0.0018518008366019975,0.245
0.0018278761148816341,0.246
0.0018048613311107686,0.247
0.0017827497046509608,0.248
0.0017615337478848398,0.249
0.0017412048617918854,0.25
0.0017217531603046364,0.251
0.0017031676149231601,0.252
0.0016854363195263026,0.253
0.0016685466696340473,0.254
0.001652485435550574,0.255
0.0016372387873903067,0.256
0.001622792311980557,0.257
0.0016091310353307012,0.258
0.0015962394507395509,0.259
0.0015841015464707322,0.26
0.0015727008091815282,0.261
0.001562020148867977,0.262
0.0015520417069579877,0.263
0.001542746664969344,0.264
0.0015341153277493612,0.265
0.0015261275919662824,0.266
0.0015187635768905989,0.267
0.0015120041353110165,0.268
0.0015058311293199174,0.269
0.0015002274679488954,0.27
0.0014951769245883735,0.271
0.0014906637415993463,0.272
0.0014866720692144626,0.273
0.0014831854678315042,0.274
0.0014801868293585593,0.275
0.0014776587952260699,0.276
0.0014755843313414506,0.277
0.0014739470927087352,0.278
0.0014727314376003226,0.279
0.0014719221002514767,0.28
0.0014715036346584112,0.281
0.001471459883514413,0.282
0.0014717737447448142,0.283
0.0014724272238777595,0.284
0.0014734014714671477,0.285
0.0014746766595194246,0.286
0.0014762319373823733,0.287
0.0014780457091290613,0.288
0.0014800961088912818,0.289
0.001482361382399285,0.29
0.001484819989341431,0.291
0.0014874503514237928,0.292
0.0014902303912566286,0.293
0.0014931373459563782,0.294
0.0014961482010255559,0.295
0.0014992404802550798,0.296
0.0015023929158548164,0.297
0.0015055857705698183,0.298
0.0015088007516302817,0.299
0.0015120205108442037,0.3
0.0015152278832060017,0.301
0.0015184053229095997,0.302
0.00152153501924195,0.303
0.001524599649402328,0.304
0.0015275832897628098,0.305
0.0015304720952069503,0.306
0.0015332545730834392,0.307
0.001535921357439728,0.308
0.001538464441507422,0.309
0.001540876138721633,0.31
0.0015431485678184024,0.311
0.0015452742174994242,0.312
0.0015472471104077774,0.313
0.001549063723003368,0.314
0.0015507232741646501,0.315
0.001552227343288759,0.316
0.0015535789092695244,0.317
0.0015547811858972428,0.318
0.0015558370126384704,0.319
0.0015567492183274241,0.32
0.0015575214279984512,0.321
0.0015581585744611358,0.322
0.0015586668878304515,0.323
0.0015590534612712034,0.324
0.0015593255673233487,0.325
0.0015594899536368358,0.326
0.0015595523983269338,0.327
0.0015595176934777668,0.328
0.0015593899474138004,0.329
0.0015591729764477893,0.33
0.0015588706492144333,0.331
0.0015584871087608583,0.332
0.001558026786622263,0.333
0.001557494137063609,0.334
0.0015568931668174593,0.335
0.0015562271054142195,0.336
0.0015554985552798286,0.337
0.0015547100288687268,0.338
0.0015538644841224108,0.339
0.0015529655759067692,0.34
0.0015520175236264366,0.341
0.0015510246254170522,0.342
0.0015499906847862783,0.343
0.0015489188233346598,0.344
0.0015478118731815035,0.345
0.001546672997178276,0.346
0.0015455061054754696,0.347
0.0015443159303010555,0.348
0.0015431078099522948,0.349
0.0015418872926216771,0.35
0.001540659677611803,0.351
0.001539429570267723,0.352
0.0015382005246360195,0.353
0.0015369749243774042,0.354
0.001535754211517757,0.355
0.0015345393753365573,0.356
0.0015333315302107563,0.357
0.0015321324591353008,0.358
0.001530945014201347,0.359
0.0015297732691041622,0.36
0.00152862236828719,0.361
0.0015274980955403581,0.362
0.0015264062565808335,0.363
0.0015253520456617563,0.364
0.0015243396287205916,0.365
0.0015233720574184036,0.366
0.001522451373282772,0.367
0.0015215787081066107,0.368
0.0015207543456419407,0.369
0.001519977806791292,0.37
0.0015192479983869571,0.371
0.0015185634064877106,0.372
0.0015179222604478771,0.373
0.0015173225646474854,0.374
0.0015167619081913222,0.375
0.0015162371178478833,0.376
0.00151574407971256,0.377
0.0015152779648177058,0.378
0.0015148336319241254,0.379
0.001514405814767577,0.38
0.0015139889490089228,0.381
0.0015135768511525581,0.382
0.001513162733018491,0.383
0.0015127398263783784,0.384
0.0015123023510091582,0.385
0.001511846388743972,0.386
0.0015113704076573408,0.387
0.0015108753081217916,0.388
0.0015103639322040234,0.389
0.001509840135064495,0.39
0.0015093078725671569,0.391
0.001508770993883529,0.392
0.0015082339272793907,0.393
0.0015077026771114967,0.394
0.0015071855027893669,0.395
0.0015066930816703772,0.396
0.0015062382155589347,0.397
0.001505835229623852,0.398
0.001505499246078378,0.399
0.0015052454870796048,0.4
0.0015050886947864481,0.401
0.0015050426981716527,0.402
0.0015051201561030528,0.403
0.0015053325286171848,0.404
0.0015056902770682668,0.405
0.0015062032084380973,0.406
0.0015068808591086242,0.407
0.0015077328186809261,0.408
0.001508768879325651,0.409
0.0015099989123278181,0.41
0.0015114324798693683,0.411
0.0015130783965387768,0.412
0.0015149445529996602,0.413
0.0015170380489736642,0.414
0.0015193653534297,0.415
0.00152193226135658,0.416
0.0015247436706049135,0.417
0.001527803350874575,0.418
0.0015311138779038936,0.419
0.0015346767563244803,0.42
0.0015384926011209046,0.421
0.0015425612620277212,0.422
0.0015468818631028073,0.423
0.0015514527595083378,0.424
0.0015562714041306507,0.425
0.0015613341527532028,0.426
0.0015666361373489624,0.427
0.0015721713246866689,0.428
0.001577932686019326,0.429
0.0015839122924779622,0.43
0.0015901012386449038,0.431
0.0015964894727120657,0.432
0.0016030657443805425,0.433
0.0016098177722406529,0.434
0.0016167324665121259,0.435
0.00162379598069672,0.436
0.0016309935549180306,0.437
0.0016383093713365007,0.438
0.001645726716874363,0.439
0.0016532284822937198,0.44
0.001660797731962644,0.441
0.001668418064085015,0.442
0.0016760736079222446,0.443
0.0016837486151638963,0.444
0.0016914268286012247,0.445
0.0016990911265340534,0.446
0.0017067237808246548,0.447
0.0017143070540699085,0.448
0.0017218236755474788,0.449
0.0017292570385118264,0.45
0.001736591173602047,0.451
0.0017438105934104834,0.452
0.001750900088165405,0.453
0.0017578445067019735,0.454
0.0017646285135534923,0.455
0.0017712362922200629,0.456
0.0017776511874881538,0.457
0.0017838554114126763,0.458
0.0017898300908083574,0.459
0.0017955558178319024,0.46
0.0018010135561340446,0.461
0.0018061856390965052,0.462
0.001811056654213991,0.463
0.0018156140340793378,0.464
0.0018198481979052731,0.465
0.0018237521629295144,0.466
0.0018273206533646173,0.467
0.001830548926984884,0.468
0.0018334318414494973,0.469
0.001835963692082064,0.47
0.0018381387773208646,0.471
0.0018399521518657428,0.472
0.001841400167856561,0.473
0.001842480737173888,0.474
0.001843193367926919,0.475
0.0018435390383054447,0.476
0.0018435199748772584,0.477
0.0018431394014416975,0.478
0.001842401311900748,0.479
0.0018413102876456058,0.48
0.0018398713311033152,0.481
0.0018380896441985923,0.482
0.0018359702680473353,0.483
0.0018335175970753714,0.484
0.0018307350331838734,0.485
0.0018276251433830422,0.486
0.0018241903524804288,0.487
0.0018204338432567318,0.488
0.0018163603435836042,0.489
0.001811976634829009,0.49
0.0018072916998551547,0.491
0.0018023164926004543,0.492
0.0017970633908638003,0.493
0.0017915454632882544,0.494
0.001785775715403916,0.495
0.0017797664660765082,0.496
0.0017735289488901324,0.497
0.0017670731501043902,0.498
0.0017604078117625026,0.499
0.0017535404718131025,0.5
0.0017464774301674136,0.501
0.0017392236893012949,0.502
0.0017317830992741058,0.503
0.0017241588425970403,0.504
0.0017163541102615172,0.505
0.0017083727291449995,0.506
0.001700219607636361,0.507
0.0016919009631658566,0.508
0.001683424350513385,0.509
0.0016747985399434943,0.51
0.0016660332889649285,0.511
0.0016571390236812878,0.512
0.0016481264270871289,0.513
0.001639005944067891,0.514
0.0016297872689979692,0.515
0.0016204789663345417,0.516
0.0016110883570230323,0.517
0.0016016216163323724,0.518
0.0015920838971280205,0.519
0.0015824793782274478,0.52
0.0015728112763865893,0.521
0.0015630819092886706,0.522
0.0015532928823669128,0.523
0.0015434454311215801,0.524
0.0015335408962345854,0.525
0.0015235812559116233,0.526
0.0015135696026962,0.527
0.0015035104439293549,0.528
0.001493409730530096,0.529
0.0014832745683452972,0.53
0.001473112625223772,0.531
0.001462931403352821,0.532
0.0014527377960150709,0.533
0.0014425382476653309,0.534
0.001432339315448668,0.535
0.0014221481850741583,0.536
0.0014119728982062234,0.537
0.0014018222492553245,0.538
0.0013917053780183484,0.539
0.0013816311957191873,0.54
0.0013716079750380114,0.541
0.001361643382503038,0.542
0.0013517448276233832,0.543
0.0013419197696575235,0.544
0.001332175778898054,0.545
0.0013225203454254749,0.546
0.0013129605256597173,0.547
0.0013035026288443564,0.548
0.001294152176233659,0.549
0.0012849141529028025,0.55
0.0012757933392235432,0.551
0.0012667945362353078,0.552
0.001257922643655926,0.553
0.0012491826124190867,0.554
0.0012405792992850574,0.555
0.0012321172472477832,0.556
0.0012238004190729544,0.557
0.0012156319716011236,0.558
0.001207614234067007,0.559
0.0011997489625212713,0.56
0.001192037735503215,0.561
0.0011844823032182844,0.562
0.0011770847943279993,0.563
0.001169847755666711,0.564
0.001162774034702283,0.565
0.0011558665316319906,0.566
0.0011491278619906197,0.567
0.0011425600581516221,0.568
0.0011361645448352664,0.569
0.0011299424955528879,0.57
0.0011238953874678013,0.571
0.0011180254922772066,0.572
0.0011123361565182727,0.573
0.0011068318217971585,0.574
0.0011015178041560247,0.575
0.001096399911631544,0.576
0.0010914840000913332,0.577
0.0010867755509258406,0.578
0.001082279354669399,0.579
0.0010779994045067437,0.58
0.0010739390274529478,0.581
0.0010701011460702223,0.582
0.001066488553625745,0.583
0.0010631041623594612,0.584
0.001059951211380755,0.585
0.001057033406385633,0.586
0.0010543549541102615,0.587
0.001051920466444991,0.588
0.0010497347423409076,0.589
0.0010478024715593007,0.59
0.0010461279240015127,0.591
0.0010447146850153192,0.592
0.001043565473383105,0.593
0.0010426820459515963,0.594
0.0010420651757485214,0.595
0.0010417147055518361,0.596
0.0010416297010152934,0.597
0.0010418087139862707,0.598
0.0010422501123078837,0.599
0.0010429523728292393,0.6
0.0010439142139209152,0.601
0.0010451344846985435,0.602
0.0010466118503312796,0.603
0.0010483444921190138,0.604
0.001050330059258561,0.605
0.0010525658428224378,0.606
0.0010550489244905833,0.607
0.0010577761412704936,0.608
0.001060743890330551,0.609
0.00106394788394511,0.61
0.0010673829766890508,0.611
0.0010710431214866166,0.612
0.0010749214082593226,0.613
0.0010790101223914655,0.614
0.001083300816027399,0.615
0.00108778440528245,0.616
0.0010924512756209045,0.617
0.0010972913395330686,0.618
0.0011022939781320572,0.619
0.0011074478856584258,0.62
0.001112741012935022,0.621
0.0011181607927922563,0.622
0.0011236945764474295,0.623
0.0011293300835793897,0.624
0.001135055735802459,0.625
0.0011408607874588293,0.626
0.0011467351731170971,0.627
0.0011526690826648804,0.628
0.001158652548848852,0.629
0.0011646755045465215,0.63
0.0011707284055445376,0.631
0.0011768029880951944,0.632
0.0011828926916133175,0.633
0.001188992561985767,0.634
0.0011950986591512138,0.635
0.0012012072375468103,0.636
0.0012073142730851464,0.637
0.0012134156851200068,0.638
0.0012195078993956032,0.639
0.0012255881896392387,0.64
0.001231654578665022,0.641
0.0012377053717300066,0.642
0.0012437386408841312,0.643
0.0012497521250701394,0.644
0.0012557436799249051,0.645
0.0012617119017898865,0.646
0.0012676565029700196,0.647
0.0012735782853857695,0.648
0.0012794787321631005,0.649
0.0012853593753125955,0.65
0.0012912212993850109,0.651
0.0012970651016702573,0.652
0.0013028912153369913,0.653
0.0013087002224669987,0.654
0.0013144929298552308,0.655
0.0013202702152565172,0.656
0.0013260327472703706,0.657
0.001331780692229171,0.658
0.001337513490390433,0.659
0.0013432297309014123,0.66
0.0013489271167340848,0.661
0.0013546025077577986,0.662
0.0013602520441172254,0.663
0.0013658713490946877,0.664
0.001371455782877324,0.665
0.0013770006894545702,0.666
0.0013825015709351622,0.667
0.0013879541379508316,0.668
0.0013933542093161186,0.669
0.0013986974582739342,0.67
0.0014039790495338064,0.671
0.001409193329812451,0.672
0.001414333814440644,0.673
0.0014193935514141423,0.674
0.0014243657014023367,0.675
0.0014292441496677173,0.676
0.0014340240644854574,0.677
0.0014387023402893564,0.678
0.0014432778430949408,0.679
0.0014477513759753604,0.68
0.001452125314747405,0.681
0.0014564029200347178,0.682
0.0014605875043037968,0.683
0.0014646819230830054,0.684
0.0014686887792389777,0.685
0.0014726111650021764,0.686
0.0014764534709233283,0.687
0.001480221983883059,0.688
0.001483925188931272,0.689
0.0014875737360318514,0.69
0.0014911800566815132,0.691
0.001494757653525225,0.692
0.0014983202243189424,0.693
0.001501881043719621,0.694
0.0015054529919603257,0.695
0.001509049091684211,0.696
0.0015126830540996249,0.697
0.0015163695154785338,0.698
0.0015201239405859806,0.699
0.0015239623029526476,0.7
0.0015279006831238687,0.701
0.0015319549000405949,0.702
0.0015361402287846992,0.703
0.0015404711990277783,0.704
0.0015449614393005114,0.705
0.001549623533727235,0.706
0.0015544688757169074,0.707
0.0015595075324124604,0.708
0.001564748167443732,0.709
0.0015701980628419813,0.71
0.0015758632287353803,0.711
0.001581748560961677,0.712
0.0015878580152157923,0.713
0.001594194768814613,0.714
0.0016007613371132451,0.715
0.0016075596217142512,0.716
0.0016145908943823858,0.717
0.001621855751000939,0.718
0.0016293540829146983,0.719
0.0016370850958908854,0.72
0.0016450473689087167,0.721
0.0016532389098946178,0.722
0.0016616571518868705,0.723
0.0016702988447658174,0.724
0.0016791598281218612,0.725
0.001688234751919587,0.726
0.0016975169222115682,0.727
0.0017069983879136204,0.728
0.001716670158872235,0.729
0.0017265223666122372,0.73
0.0017365442722861956,0.731
0.001746724111142167,0.732
0.0017570488785438026,0.733
0.0017675042886767555,0.734
0.001778075025565002,0.735
0.0017887451227995258,0.736
0.0017994982207958068,0.737
0.0018103175572984935,0.738
0.0018211856868428106,0.739
0.0018320841614381945,0.74
0.0018429935602206316,0.741
0.0018538939836592844,0.742
0.0018647657183405455,0.743
0.0018755897559169102,0.744
0.0018863480731124314,0.745
0.0018970237100698125,0.746
0.0019076007105234467,0.747
0.001918063970653692,0.748
0.0019283990079014789,0.749
0.0019385916380268223,0.75
0.0019486275531407757,0.751
0.0019584918142709073,0.752
0.001968168347740192,0.753
0.00197763967331163,0.754
0.0019868870586970417,0.755
0.001995891024531183,0.756
0.0020046319713991952,0.757
0.002013090772000354,0.758
0.0020212492473456684,0.759
0.002029090470863261,0.76
0.0020365988728175736,0.761
0.002043760157805697,0.762
0.0020505610928579932,0.763
0.0020569892597392353,0.764
0.002063032874159234,0.765
0.0020686807427962714,0.766
0.0020739223572178033,0.767
0.0020787480329794335,0.768
0.002083148929360979,0.769
0.002087116766163196,0.77
0.002090643201028994,0.771
0.0020937192693385774,0.772
0.002096335583723489,0.773
0.002098483499247533,0.774
0.0021001566944487873,0.775
0.0021013525196230906,0.776
0.0021020727963431173,0.777
0.0021023239826704772,0.778
0.0021021167445818066,0.779
0.002101465063194799,0.78
0.002100385045207488,0.781
0.0020988936042865367,0.782
0.002097007249003057,0.783
0.0020947413579560357,0.784
0.002092110165382967,0.785
0.002089127193880334,0.786
0.0020858056995001844,0.787
0.0020821589539012355,0.788
0.0020782004143694633,0.789
0.002073943893869058,0.79
0.002069403832870547,0.791
0.0020645957147209753,0.792
0.002059536575504072,0.793
0.0020542454792366713,0.794
0.00204874379683005,0.795
0.0020430551530894875,0.796
0.002037204972569626,0.797
0.002031219632968202,0.798
0.002025125433182417,0.799
0.002018947931844783,0.8
0.0020127121478965226,0.801
0.0020064434312877474,0.802
0.0020001683823871533,0.803
0.0019939154066084797,0.804
0.001987714791069198,0.805
0.001981598324441422,0.806
0.001975598554185364,0.807
0.0019697478623184675,0.808
0.00196407767460691,0.809
0.0019586181073376315,0.81
0.001953397993277839,0.811
0.0019484449057303867,0.812
0.001943785014608075,0.813
0.0019394430146550434,0.814
0.0019354423088349898,0.815
0.001931805266269688,0.816
0.001928553301944508,0.817
0.001925706729301218,0.818
0.001923284490629224,0.819
0.001921303927596346,0.82
0.0019197806963157436,0.821
0.0019187287774780476,0.822
0.0019181604737520865,0.823
0.0019180863699774246,0.824
0.0019185153033651604,0.825
0.0019194543867099248,0.826
0.0019209090962466011,0.827
0.0019228834109730922,0.828
0.0019253799785858808,0.829
0.0019284002832770197,0.83
0.0019319447956656524,0.831
0.0019360130886935428,0.832
0.0019406039052763256,0.833
0.0019457151668002917,0.834
0.0019513439183745634,0.835
0.0019574862189482008,0.836
0.0019641370004858777,0.837
0.0019712899332958844,0.838
0.001978937336947218,0.839
0.001987070165010003,0.84
0.001995678067477726,0.841
0.002004749500141762,0.842
0.002014271813965312,0.843
0.002024231235329989,0.844
0.002034612702612901,0.845
0.00204539971786844,0.846
0.002056574503918305,0.847
0.002068118551455256,0.848
0.00208001332174806,0.849
0.002092240815701792,0.85
0.0021047838531466577,0.851
0.0021176260276667977,0.852
0.002130751390790385,0.853
0.0021441439703885805,0.854
0.002157787221189226,0.855
0.002171663484200595,0.856
0.00218575359898871,0.857
0.0022000369041463553,0.858
0.002214491738020927,0.859
0.002229096300902577,0.86
0.002243829661314979,0.861
0.0022586727214003403,0.862
0.0022736089360975487,0.863
0.002288624569093434,0.864
0.0023037083314685104,0.865
0.0023188503659926914,0.866
0.0023340409111176808,0.867
0.002349269567595435,0.868
0.002364525854456719,0.869
0.0023798005904948094,0.87
0.0023950871718902236,0.871
0.0024103822923775228,0.872
0.0024256860441462334,0.873
0.002441001454064049,0.874
0.0024563335685265568,0.875
0.002471688237619785,0.876
0.00248707085191227,0.877
0.002502485455329571,0.878
0.0025179345192006615,0.879
0.002533419133531491,0.88
0.0025489391178680453,0.881
0.0025644928268334683,0.882
0.0025800767716615694,0.883
0.0025956853258039363,0.884
0.0026113106379278698,0.885
0.0026269426371719534,0.886
0.002642569139480509,0.887
0.002658176308953456,0.888
0.002673749572834695,0.889
0.002689274774985361,0.89
0.0027047392539784458,0.891
0.002720132581186743,0.892
0.0027354467885413202,0.893
0.0027506760469548862,0.894
0.0027658158872575916,0.895
0.0027808621365909033,0.896
0.002795809797001435,0.897
0.0028106521943210895,0.898
0.002825380721841231,0.899
0.0028399851678978746,0.9
0.002854454273440215,0.901
0.002868776226122971,0.902
0.0028829390212952357,0.903
0.002896930707708311,0.904
0.002910739552322835,0.905
0.002924354174455617,0.906
0.0029377636960376736,0.907
0.002950957921611755,0.908
0.0029639275082087744,0.909
0.0029766640367843806,0.91
0.0029891598795146806,0.911
0.0030014077832276375,0.912
0.0030134001496290737,0.913
0.003025128151390616,0.914
0.003036581108711386,0.915
0.0030477465756318482,0.916
0.00305861110822622,0.917
0.0030691612992316147,0.918
0.0030793847711960685,0.919
0.0030892710416681067,0.92
0.0030988122288510243,0.921
0.003108003535413519,0.922
0.0031168434087907285,0.923
0.0031253332595523237,0.924
0.0031334766517848284,0.925
0.0031412779610619445,0.926
0.0031487408591380464,0.927
0.00315586757511745,0.928
0.0031626595792348168,0.929
0.003169119131311219,0.93
0.0031752507401076762,0.931
0.0031810621120178183,0.932
0.003186564530493718,0.933
0.0031917727081080564,0.934
0.003196704221013241,0.935
0.0032013786579347444,0.936
0.003205816589439786,0.937
0.0032100384117854947,0.938
0.0032140632157341637,0.939
0.003217908136960369,0.94
0.0032215885974081833,0.941
0.0032251192342799503,0.942
0.0032285149627995415,0.943
0.0032317918407866286,0.944
0.0032349676503174015,0.945
0.003238062174754966,0.946
0.0032410971608201797,0.947
0.0032440959672200105,0.948
0.003247082910827517,0.949
0.003250082328351492,0.95
0.0032531174934192922,0.951
0.0032562098481622647,0.952
0.0032593790557641452,0.953
0.0032626437911893093,0.954
0.003266022664440386,0.955
0.0032695348061713976,0.956
0.0032732000090845556,0.957
0.0032770385035869125,0.958
0.0032810705037065427,0.959
0.003285315657252983,0.96
0.0032897924885300594,0.961
0.003294517865117296,0.962
0.003299506481571683,0.963
0.0033047704106930337,0.964
0.0033103189181106943,0.965
0.003316158680461959,0.966
0.003322294277214722,0.967
0.003328728742615175,0.968
0.003335464071910432,0.969
0.0033425016132716144,0.97
0.003349842258459042,0.971
0.0033574863553542927,0.972
0.0033654333073463638,0.973
0.0033736809154887083,0.974
0.0033822247305407317,0.975
0.0033910578463094312,0.976
0.0034001712703232516,0.977
0.003409554501782339,0.978
0.00341919590270155,0.979
0.0034290827404022187,0.98
0.0034392009587204298,0.981
0.003449534791073807,0.982
0.0034600663414316906,0.983
0.0034707752341170146,0.984
0.0034816383898297327,0.985
0.003492629935391907,0.986
0.0035037211977433764,0.987
0.003514880674779501,0.988
0.0035260739313454437,0.989
0.0035372636193331006,0.99
0.0035484099315837496,0.991
0.0035594715212460925,0.992
0.003570406641833403,0.993
0.0035811742599306537,0.994
0.003591734966552681,0.995
0.0036020515425113464,0.996
0.0036120890499959186,0.997
0.003621814353864364,0.998
0.0036311950356535793,0.999
0.0036401979685602376,1.0
0.0036487884355794983,1.001
0.0036569306560544,1.002
0.003664589531588724,1.003
0.003671732694549875,1.004
0.0036783321856398623,1.005
0.003684365476935701,1.006
0.0036898157125183403,1.007
0.0036946711387365913,1.008
0.0036989238041324267,1.009
0.0037025677089572756,1.01
0.003705596769617246,1.011
0.0037080032949282377,1.012
0.0037097776292604277,1.013
0.0037109088348753045,1.014
0.003711385672389324,1.015
0.0037111974014495406,1.016
0.003710334392246673,1.017
0.0037087886470488695,1.018
0.0037065542526198494,1.019
0.0037036277016537196,1.02
0.0037000079713063712,1.021
0.003695696243438435,1.022
0.0036906951901163458,1.023
0.0036850078201961073,1.024
0.0036786361082384914,1.025
0.0036715800395676523,1.026
0.003663837688090172,1.027
0.003655406185903583,1.028
0.0036462828992502444,1.029
0.003636466345888675,1.03
0.003625956743391,1.031
0.0036147561694802786,1.032
0.0036028682940540836,1.033
0.0035902976270206026,1.034
0.003577048338073711,1.035
0.003563123160741196,1.036
0.0035485232885119115,1.037
0.0035332495860620097,1.038
0.0035173043851046263,1.039
0.003500692963718396,1.04
0.0034834242787177934,1.041
0.0034655108022124343,1.042
0.0034469674394798995,1.043
0.003427809803006418,1.044
0.0034080527297433976,1.045
0.003387710135072214,1.046
0.00336679628697301,1.047
0.003345327452900833,1.048
0.003323322972028457,1.049
0.0033008054876473105,1.05
0.0032778004332909764,1.051
0.0032543349923805837,1.052
0.0032304368153424617,1.053
0.00320613276919181,1.054
0.0031814479221120937,1.055
0.0031564048589440945,1.056
0.0031310233204710704,1.057
0.003105320085150173,1.058
0.003079308972074023,1.059
0.0030530008832497534,1.06
0.0030264039519279267,1.061
0.002999523956390363,1.062
0.0029723650669614033,1.063
0.0029449308697211706,1.064
0.0029172255560515497,1.065
0.0028892551230848655,1.066
0.0028610283867998715,1.067
0.002832557596714403,1.068
0.0028038584702431263,1.069
0.0027749495367041833,1.07
0.0027458507921694513,1.071
0.002716582108526117,1.072
0.0026871625212257343,1.073
0.002657611095686632,1.074
0.0026279486220804893,1.075
0.0025981989777679572,1.076
0.0025683896921190824,1.077
0.0025385517233544766,1.078
0.002508718620894881,1.079
0.0024789253527272717,1.08
0.002449207092662647,1.081
0.002419598190206964,1.082
0.0023901314303274392,1.083
0.002360837604620761,1.084
0.0023317453819580837,1.085
0.0023028814245285452,1.086
0.0022742706521476385,1.087
0.002245936579487964,1.088
0.0022179016917501324,1.089
0.0021901878281190435,1.09
0.0021628165368020773,1.091
0.0021358093667076298,1.092
0.002109188060816514,1.093
0.0020829746178516327,1.094
0.0020571912005356847,1.095
0.002031859893401533,1.096
0.0020070023422976884,1.097
0.0019826393273601087,1.098
0.001958790346713897,1.099
0.001935473333985986,1.1
0.001912704601600108,1.101
0.0018904989452401967,1.102
0.0018688697489610791,1.103
0.0018478290012840354,1.104
0.0018273872285985615,1.105
0.0018075533909352583,1.106
0.0017883348056365075,1.107
0.0017697371432562569,1.108
0.0017517644633166288,1.109
0.001734419258728833,1.11
0.001717702600139104,1.111
0.001701614494481036,1.112
0.0016861544179338822,1.113
0.001671321864632139,1.114
0.0016571167528176812,1.115
0.001643539570987185,1.116
0.0016305912086054001,1.117
0.0016182724984215105,1.118
0.0016065836390971092,1.119
0.0015955238316216992,1.12
0.0015850913369734958,1.121
0.0015752837667845692,1.122
0.0015660982888971709,1.123
0.0015575316293382345,1.124
0.0015495799130662536,1.125
0.0015422384264054984,1.126
0.0015355013835304165,1.127
0.0015293617584641354,1.128
0.0015238112116162533,1.129
0.0015188401064664355,1.13
0.0015144375863912613,1.131
0.0015105916701311,1.132
0.0015072893315220687,1.133
0.001504516551809931,1.134
0.0015022583552102746,1.135
0.0015004988413606702,1.136
0.0014992212093540454,1.137
0.0014984077479694503,1.138
0.0014980397703757277,1.139
0.0014980974991188416,1.14
0.0014985599328470088,1.141
0.0014994047425216464,1.142
0.0015006082626962743,1.143
0.001502145635654845,1.144
0.0015039911244492895,1.145
0.0015061185801555888,1.146
0.0015085020269191513,1.147
0.0015111162871579095,1.148
0.0015139375232117187,1.149
0.0015169435448552917,1.15
0.0015201137396474674,1.151
0.0015234285336336848,1.152
0.0015268685620013058,1.153
0.0015304142211052178,1.154
0.0015340461733561344,1.155
0.0015377465160827557,1.156
0.001541499896275211,1.157
0.0015452941652132931,1.158
0.0015491204828537142,1.159
0.0015529728987137422,1.16
0.0015568475008687656,1.161
0.0015607412926163164,1.162
0.001564651134042292,1.163
0.0015685732357300192,1.164
0.0015725033320541399,1.165
0.0015764370637226784,1.166
0.001580370089482641,1.167
0.0015842978393870413,1.168
0.0015882150717991055,1.169
0.0015921155229972187,1.17
0.0015959918470279464,1.171
0.0015998357022740995,1.172
0.0016036377412349248,1.173
0.0016073876100618186,1.174
0.0016110743059323139,1.175
0.0016146869833479484,1.176
0.0016182159533294313,1.177
0.001621653572216246,1.178
0.0016249948201218143,1.179
0.0016282374502640134,1.18
0.0016313816660420164,1.181
0.0016344293666778866,1.182
0.0016373831143897,1.183
0.0016402451977289827,1.184
0.0016430172984034288,1.185
0.0016457008807707356,1.186
0.0016482978610120017,1.187
0.0016508111123250643,1.188
0.0016532446965779575,1.189
0.0016556038641900787,1.19
0.0016578948746430624,1.191
0.0016601246914783373,1.192
0.0016623006071835576,1.193
0.0016644298544751716,1.194
0.0016665192558110399,1.195
0.0016685749517488097,1.196
0.0016706022325517493,1.197
0.0016726054741319377,1.198
0.0016745881483426971,1.199
0.001676552849175649,1.2
0.001678501268303552,1.201
0.0016804340743459306,1.202
0.0016823507181243699,1.203
0.001684249286533959,1.204
0.0016861265218708684,1.205
0.0016879779729163194,1.206
0.0016897981623992398,1.207
0.0016915807299789699,1.208
0.0016933185891158087,1.209
0.0016950041356125043,1.21
0.0016966294983010064,1.211
0.0016981867727231673,1.212
0.0016996681572182134,1.213
0.001701065925323414,1.214
0.001702372206091999,1.215
0.00170357858710518,1.216
0.0017046756675302877,1.217
0.0017056528585058528,1.218
0.0017064986335816818,1.219
0.0017072010814798246,1.22
0.0017077484980244483,1.221
0.0017081298807267648,1.222
0.0017083352434531154,1.223
0.001708355659207009,1.224
0.0017081829570269327,1.225
0.0017078091026796409,1.226
0.0017072255865745545,1.227
0.0017064233660077663,1.228
0.001705393545656163,1.229
0.0017041283708611461,1.23
0.001702622036200312,1.231
0.0017008711120959099,1.232
0.0016988745724986856,1.233
0.0016966334736948,1.234
0.0016941503763433887,1.235
0.0016914286092196867,1.236
0.0016884714683449147,1.237
0.0016852815447174563,1.238
0.001681860519851048,1.239
0.0016782095755265539,1.24
0.0016743301332188764,1.241
0.0016702245534062504,1.242
0.0016658966380477373,1.243
0.0016613519136821596,1.244
0.001656597719692477,1.245
0.0016516431502925065,1.246
0.0016464988897028376,1.247
0.0016411769558066609,1.248
0.0016356903539393032,1.249
0.0016300526452653092,1.25
0.001624277439767166,1.251
0.0016183778529638645,1.252
0.0016123660820102931,1.253
0.0016062533436526536,1.254
0.0016000502289698522,1.255
0.00159376724409833,1.256
0.001587415290178201,1.257
0.0015810059829109424,1.258
0.0015745517798578807,1.259
0.0015680658916702088,1.26
0.0015615619681960203,1.261
0.0015550535871662625,1.262
0.0015485536756408404,1.263
0.0015420741070808286,1.264
0.0015356255756262286,1.265
0.0015292175938052665,1.266
0.0015228585858894877,1.267
0.0015165562542854073,1.268
0.0015103181791300034,1.269
0.0015041523522748505,1.27
0.001498067394229415,1.271
0.001492072366236249,1.272
0.0014861762634813282,1.273
0.0014803875078804511,1.274
0.001474713846055057,1.275
0.0014691627248082958,1.276
0.001463741802469662,1.277
0.0014584592563689585,1.278
0.0014533237771425398,1.279
0.0014483442745199483,1.28
0.0014435293879649209,1.281
0.0014388869971967678,1.282
0.0014344239901795178,1.283
0.0014301463609711356,1.284
0.0014260594145290614,1.285
0.0014221678293761882,1.286
0.0014184755313909768,1.287
0.0014149855573740802,1.288
0.001411700184922981,1.289
0.0014086214006739151,1.29
0.0014057514796285162,1.291
0.0014030933981735143,1.292
0.001400650929309847,1.293
0.0013984283898986062,1.294
0.0013964301137017463,1.295
0.0013946598542865375,1.296
0.0013931204099995828,1.297
0.0013918135709906885,1.298
0.0013907401634256906,1.299
0.001389899981476536,1.3
0.0013892916427448781,1.301
0.001388912487654803,1.302
0.0013887585897980525,1.303
0.0013888248876247843,1.304
0.0013891054051960348,1.305
0.0013895935240018074,1.306
0.0013902823031611247,1.307
0.0013911648668640353,1.308
0.0013922348480602486,1.309
0.0013934868151802013,1.31
0.001394916562615571,1.311
0.0013965211524002107,1.312
0.0013982986505121904,1.313
0.0014002475748140346,1.314
0.0014023662201634196,1.315
0.001404652236973547,1.316
0.001407102732059616,1.317
0.0014097147016511838,1.318
0.0014124854200252882,1.319
0.0014154126184516877,1.32
0.001418494470841927,1.321
0.0014217294368635313,1.322
0.0014251160030727516,1.323
0.0014286523528214275,1.324
0.001432335999254316,1.325
0.0014361634507875389,1.326
0.0014401300149692866,1.327
0.001444229765404491,1.328
0.0014484555574338805,1.329
0.0014527990249495917,1.33
0.0014572506623346613,1.331
0.0014618000980225615,1.332
0.0014664365091441366,1.333
0.0014711490390397766,1.334
0.0014759270956654891,1.335
0.00148076044059226,1.336
0.0014856390152036712,1.337
0.00149055253117505,1.338
0.001495490040054719,1.339
0.0015004398523240665,1.34
0.0015053899593896742,1.341
0.0015103287088059655,1.342
0.0015152454154153186,1.343
0.0015201307673097238,1.344
0.0015249769801483118,1.345
0.0015297776866820712,1.346
0.0015345275917570064,1.347
0.0015392219614991079,1.348
0.0015438560351291298,1.349
0.0015484244561831872,1.35
0.001552920853973014,1.351
0.001557337722625858,1.352
0.0015616666236594016,1.353
0.001565898578670964,1.354
0.0015700245234402113,1.355
0.0015740357815385774,1.356
0.0015779245352771068,1.357
0.0015816842492702616,1.358
0.0015853099838788328,1.359
0.0015887985313321085,1.36
0.0015921483194163944,1.361
0.0015953590504036933,1.362
0.001598431068228563,1.363
0.0016013645938706097,1.364
0.001604159276178412,1.365
0.0016068144676403236,1.366
0.0016093300646990627,1.367
0.0016117074010061562,1.368
0.0016139498553889532,1.369
0.001616063069578551,1.37
0.001618054764343928,1.371
0.0016199341861020545,1.372
0.001621711253381276,1.373
0.0016233956348204492,1.374
0.0016249962383451892,1.375
0.0016265213748756766,1.376
0.0016279792416910345,1.377
0.0016293782340776192,1.378
0.0016307269455540557,1.379
0.0016320339479721055,1.38
0.0016333074906723193,1.381
0.0016345552488411283,1.382
0.0016357841989945129,1.383
0.0016370006261681748,1.384
0.001638210203694266,1.385
0.0016394180575178858,1.386
0.0016406287385065583,1.387
0.001641846064251965,1.388
0.0016430728606426901,1.389
0.0016443107426159182,1.39
0.0016455601100087392,1.391
0.0016468203877768918,1.392
0.0016480903790800938,1.393
0.0016493686077867769,1.394
0.001650653604916395,1.395
0.0016519441323802368,1.396
0.0016532393587147952,1.397
0.001654539009617728,1.398
0.001655843491582427,1.399
0.0016571539409771078,1.4
0.0016584721169730723,1.401
0.001659800065062322,1.402
0.0016611395743807123,1.403
0.0016624916735204802,1.404
0.001663856530213321,1.405
0.0016652338324567141,1.406
0.0016666233430563866,1.407
0.0016680253299471532,1.408
0.001669440796982751,1.409
0.0016708715434245293,1.41
0.001672320096861423,1.411
0.0016737895706404945,1.412
0.0016752834959699243,1.413
0.0016768056720983986,1.414
0.001678360063736467,1.415
0.0016799507500438167,1.416
0.0016815818965100063,1.417
0.0016832576926930631,1.418
0.0016849821923591158,1.419
0.0016867590159672754,1.42
0.001688590957924437,1.421
0.0016904796887830347,1.422
0.0016924257693613789,1.423
0.001694428971512001,1.424
0.0016964887033227803,1.425
0.0016986043832136893,1.426
0.0017007757257191283,1.427
0.0017030029421341488,1.428
0.0017052868551643808,1.429
0.0017076289164518089,1.43
0.0017100311130119066,1.431
0.0017124957629930657,1.432
0.0017150252273312062,1.433
0.0017176215838337102,1.434
0.0017202863071386974,1.435
0.0017230199694488323,1.436
0.0017258219702439047,1.437
0.0017286903770038734,1.438
0.001731622006426491,1.439
0.0017346127484761077,1.44
0.001737657972488023,1.441
0.0017407528485607973,1.442
0.0017438925004587382,1.443
0.001747071967128863,1.444
0.0017502859856840022,1.445
0.001753528627065118,1.446
0.0017567928919693648,1.447
0.0017600705235708643,1.448
0.0017633522153023635,1.449
0.001766628058038038,1.45
0.001769887941444595,1.451
0.0017731217551108307,1.452
0.0017763193332840307,1.453
0.0017794701214131467,1.454
0.0017825627044934767,1.455
0.0017855846220472865,1.456
0.0017885227788109748,1.457
0.0017913642085081586,1.458
0.001794096730358313,1.459
0.0017967092414120306,1.46
0.0017991915496638113,1.461
0.001801533765310559,1.462
0.001803725558492876,1.463
0.0018057558904862785,1.464
0.0018076134996461277,1.465
0.0018092877001473038,1.466
0.001810768926607495,1.467
0.0018120488436210195,1.468
0.0018131200784685508,1.469
0.0018139756936817594,1.47
0.0018146085228683746,1.471
0.0018150105345960006,1.472
0.001815172506745389,1.473
0.0018150842121880057,1.474
0.0018147349843921556,1.475
0.0018141143873977403,1.476
0.001813212835585146,1.477
0.001812022101215282,1.478
0.0018105356622326178,1.479
0.00180874885013476,1.48
0.0018066587654918592,1.481
0.0018042639398401443,1.482
0.001801563747851028,1.483
0.0017985576240426946,1.484
0.00179524429657848,1.485
0.0017916214412533242,1.486
0.001787685958701784,1.487
0.0017834346094786366,1.488
0.0017788646757430015,1.489
0.0017739745610568331,1.49
0.0017687643218541492,1.491
0.0017632360794709787,1.492
0.0017573942366585946,1.493
0.0017512454364550412,1.494
0.0017447982497324395,1.495
0.0017380626370310502,1.496
0.0017310492707341878,1.497
0.00172376880733507,1.498
0.0017162312222803627,1.499
0.0017084454155473147,1.5
0.0017004192843056642,1.501
0.0016921602187752536,1.502
0.0016836757949920357,1.503
0.001674974484787884,1.504
0.0016660662848185731,1.505
0.0016569631797102211,1.506
0.001647679362056252,1.507
0.0016382311614355825,1.508
0.0016286366721917926,1.509
0.0016189151052804613,1.51
0.0016090859527910235,1.511
0.001599168236770423,1.512
0.0015891802599640491,1.513
0.0015791399724322758,1.514
0.0015690655699809848,1.515
0.0015589759168635536,1.516
0.0015488906809390437,1.517
0.0015388302245619744,1.518
0.0015288153238569113,1.519
0.0015188667951331197,1.52
0.001509005095603168,1.521
0.0014992499469337723,1.522
0.0014896200214661258,1.523
0.0014801327388921399,1.524
0.0014708042032237382,1.525
0.0014616492421673575,1.526
0.0014526814689778801,1.527
0.0014439133133489926,1.528
0.00143535600234114,1.529
0.0014270195101306988,1.53
0.00141891255715303,1.531
0.001411042723980161,1.532
0.0014034166395394767,1.533
0.0013960401610033934,1.534
0.0013889185012237093,1.535
0.001382056281393974,1.536
0.0013754574793286918,1.537
0.0013691252790569567,1.538
0.001363061971949115,1.539
0.0013572691495496241,1.54
0.0013517482457489885,1.541
0.0013465012261939366,1.542
0.0013415311687558014,1.543
0.001336842555882847,1.544
0.0013324411781628063,1.545
0.0013283336413162658,1.546
0.0013245266453789687,1.547
0.0013210264311280522,1.548
0.0013178387090450319,1.549
0.0013149689208888772,1.55
0.0013124224310312297,1.551
0.0013102044494533436,1.552
0.0013083197452894847,1.553
0.0013067723054820384,1.554
0.001305565100387361,1.555
0.0013047000722783881,1.556
0.001304178369552505,1.557
0.001304000746428485,1.558
0.0013041679839481265,1.559
0.0013046811872286777,1.56
0.00130554186550689,1.561
0.0013067517757213564,1.562
0.0013083125744029831,1.563
0.0013102253932017127,1.564
0.00131249054757055,1.565
0.001315107557502616,1.566
0.001318075436999773,1.567
0.001321393060318816,1.568
0.0013250594787658913,1.569
0.0013290741615242377,1.57
0.0013334371567401706,1.571
0.0013381491547292607,1.572
0.0013432114224397316,1.573
0.0013486255828623836,1.574
0.0013543932366929154,1.575
0.0013605155048131933,1.576
0.001366992711188841,1.577
0.001373824401200052,1.578
0.0013810096120175379,1.579
0.0013885471316875942,1.58
0.0013964355787802357,1.581
0.0014046732852717907,1.582
0.001413258045985627,1.583
0.0014221868366953508,1.584
0.0014314556049297622,1.585
0.0014410592020265036,1.586
0.0014509914749974452,1.587
0.0014612454967257312,1.588
0.0014718138891556898,1.589
0.0014826891780572752,1.59
0.0014938641041364216,1.591
0.001505331810920495,1.592
0.0015170858461936053,1.593
0.0015291199511751402,1.594
0.0015414276591023208,1.595
0.0015540018126659562,1.596
0.0015668342286872005,1.597
0.0015799156844310957,1.598
0.0015932361421476114,1.599
0.0016067850079239093,1.6
0.001620551335589114,1.601
0.0016345239962862713,1.602
0.0016486918487945814,1.603
0.001663043922440575,1.604
0.001677569595325035,1.605
0.0016922587302444457,1.606
0.001707101729230282,1.607
0.0017220894826486075,1.608
0.0017372132084457052,1.609
0.0017524641920699368,1.61
0.0017678334485613863,1.611
0.0017833113393122958,1.612
0.0017988871830335663,1.613
0.0018145489260395446,1.614
0.0018302829833148594,1.615
0.001846074321617259,1.616
0.0018619067425681972,1.617
0.0018777633106068798,1.618
0.001893626926471204,1.619
0.0019094810331113181,1.62
0.0019253103740939175,1.621
0.0019411016677292727,1.622
0.0019568440431022654,1.623
0.0019725291166734268,1.624
0.0019881506516372474,1.625
0.002003703806279307,1.626
0.0020191841055627294,1.627
0.0020345865839448175,1.628
0.0020499057136123587,1.629
0.0020651362352392226,1.63
0.0020802743494977884,1.631
0.0020953187136867257,1.632
0.0021102710328644108,1.633
0.0021251362166236753,1.634
0.002139922128442197,1.635
0.002154638987261818,1.636
0.0021692984915986317,1.637
0.0021839127366865816,1.638
0.002198493153550278,1.639
0.0022130500057587457,1.64
0.00222759277490444,1.641
0.0022421310632129913,1.642
0.0022566754479206377,1.643
0.0022712380521476678,1.644
0.0022858327865467737,1.645
0.0023004752498527858,1.646
0.002315182313259139,1.647
0.0023299714494831518,1.648
0.0023448598981730957,1.649
0.002359863834248792,1.65
0.0023749978236346433,1.651
0.002390274766430391,1.652
0.002405706201132318,1.653
0.0024213026902593243,1.654
0.0024370741362691713,1.655
0.0024530299842897164,1.656
0.0024691792691744455,1.657
0.0024855304651292317,1.658
0.0025020911337359413,1.659
0.0025188674362818415,1.66
0.002535863688327093,1.661
0.0025530821832521755,1.662
0.002570523322594531,1.663
0.002588185840849763,1.664
0.0026060669153685568,1.665
0.0026241620916814487,1.666
0.0026424650592485896,1.667
0.002660967467984241,1.668
0.0026796590553213504,1.669
0.002698528130733975,1.67
0.00271756217129376,1.671
0.002736748237862585,1.672
0.0027560730350829057,1.673
0.00277552254537812,1.674
0.0027950813923726596,1.675
0.002814732455637037,1.676
0.00283445720826932,1.677
0.0028542366440057173,1.678
0.002874052315590088,1.679
0.0028938871621837997,1.68
0.0029137259634623293,1.681
0.0029335552981842672,1.682
0.0029533629394287815,1.683
0.002973136758719732,1.684
0.002992863586391303,1.685
0.0030125288227337904,1.686
0.003032117122801504,1.687
0.0030516135568166352,1.688
0.003071004526375954,1.689
0.003090278210018004,1.69
0.0031094245972216146,1.691
0.0031284352427915097,1.692
0.0031473028925590304,1.693
0.0031660210865968315,1.694
0.003184583759614342,1.695
0.0032029847729817306,1.696
0.0032212172684329874,1.697
0.0032392728885795906,1.698
0.0032571413276893837,1.699
0.0032748107618417437,1.7
0.0032922691045758016,1.701
0.0033095055198014813,1.702
0.0033265116775813845,1.703
0.0033432824394409736,1.704
0.0033598157861662705,1.705
0.0033761119545454655,1.706
0.003392171937852389,1.707
0.0034079958153590585,1.708
0.0034235816955477737,1.709
0.0034389256549583625,1.71
0.003454022106971831,1.711
0.0034688638462715966,1.712
0.003483441636548233,1.713
0.0034977437441748075,1.714
0.00351175588168918,1.715
0.003525461603766205,1.716
0.0035388427871022826,1.717
0.0035518798724073907,1.718
0.003564551775549926,1.719
0.003576835478732209,1.72
0.0035887054892443588,1.721
0.0036001336829991817,1.722
0.0036110899564988073,1.723
0.0036215435289413647,1.724
0.003631464488866628,1.725
0.0036408253439541138,1.726
0.0036496023933018686,1.727
0.003657776688140914,1.728
0.003665334335975682,1.729
0.0036722659636689438,1.73
0.0036785652845998463,1.731
0.003684227045763333,1.732
0.0036892453142911828,1.733
0.003693613327389326,1.734
0.0036973250611218875,1.735
0.003700377423271317,1.736
0.00370277202565057,1.737
0.0037045161524606922,1.738
0.0037056228509009833,1.739
0.0037061101764612604,1.74
0.0037059997412846385,1.741
0.0037053148118394784,1.742
0.003704078319525293,1.743
0.0037023113380654123,1.744
0.003700032517455949,1.745
0.0036972583444851823,1.746
0.003694003588224387,1.747
0.0036902815165254688,1.748
0.003686103915787417,1.749
0.0036814810870949254,1.75
0.0036764219610529174,1.751
0.003670934419942819,1.752
0.003665025842618485,1.753
0.0036587037999457907,1.754
0.003651976746490399,1.755
0.003644854505923258,1.756
0.003637348350625438,1.757
0.0036294705303767873,1.758
0.003621233210006617,1.759
0.0036126471800581117,1.76
0.0036037213155109297,1.761
0.0035944634133860368,1.762
0.00358488179646426,1.763
0.0035749866860187336,1.764
0.003564790901150928,1.765
0.0035543098224422127,1.766
0.0035435606789864806,1.767
0.003532561302372812,1.768
0.0035213286703904517,1.769
0.003509877899235881,1.77
0.0034982222517052097,1.771
0.003486373943927949,1.772
0.0034743450148939157,1.773
0.003462147784442661,1.774
0.0034497948278588977,1.775
0.0034372985534106247,1.776
0.003424670510769923,1.777
0.0034119205696844382,1.778
0.0033990561752364865,1.779
0.0033860819901463048,1.78
0.0033730000568997793,1.781
0.0033598102389303746,1.782
0.003346510661426983,1.783
0.0033330980913957135,1.784
0.003319568291583243,1.785
0.003305916368053499,1.786
0.003292137097598765,1.787
0.0032782251729109564,1.788
0.003264175262402198,1.789
0.003249981770135134,1.79
0.003235638219140096,1.791
0.0032211364818397325,1.792
0.0032064665923505677,1.793
0.003191617687227976,1.794
0.003176579693167648,1.795
0.0031613450088867467,1.796
0.0031459097463214444,1.797
0.0031302743304635026,1.798
0.0031144433522384144,1.799
0.00309842468208288,1.8
0.0030822279594219988,1.801
0.003065862843372858,1.802
0.0030493378745245076,1.803
0.003032660639747227,1.804
0.0030158389131663276,1.805
0.0029988818832054225,1.806
0.0029818009594627603,1.807
0.002964610098136919,1.808
0.0029473257158979817,1.809
0.002929966289433831,1.81
0.0029125517546122266,1.811
0.0028951028168611205,1.812
0.0028776402560715306,1.813
0.0028601842672117137,1.814
0.002842753843210868,1.815
0.0028253662090833975,1.816
0.0028080364023168503,1.817
0.0027907771806537185,1.818
0.002773599316302549,1.819
0.00275651211455386,1.82
0.002739523973602017,1.821
0.0027226429029637298,1.822
0.0027058769509471473,1.823
0.002689234499462424,1.824
0.002672724420778322,1.825
0.0026563561277488028,1.826
0.00264013955438842,1.827
0.0026240850718899757,1.828
0.002608203299464099,1.829
0.0025925047411190743,1.83
0.0025769991933941223,1.831
0.0025616950741539734,1.832
0.002546599177474706,1.833
0.002531717217244175,1.834
0.002517054864180808,1.835
0.002502618736295407,1.836
0.002488417044205573,1.837
0.002474459765715291,1.838
0.002460758314294925,1.839
0.002447324784584473,1.84
0.0024341709587706027,1.841
0.0024213073556422597,1.842
0.002408742640097805,1.843
0.0023964834464156835,1.844
0.0023845343559676406,1.845
0.0023728979245756423,1.846
0.0023615748667268665,1.847
0.0023505643088984744,1.848
0.0023398638550375804,1.849
0.002329469432680443,1.85
0.002319375279698282,1.851
0.002309574403781793,1.852
0.0023000593656819263,1.853
0.002290823028857404,1.854
0.0022818591086165786,1.855
0.0022731625073203468,1.856
0.002264729459910787,1.857
0.0022565575149949397,1.858
0.0022486453559742575,1.859
0.0022409924486470143,1.86
0.002233598505673561,1.861
0.0022264627891658843,1.862
0.002219583397706271,1.863
0.002212956861097585,1.864
0.002206578229857459,1.865
0.002200441442404788,1.866
0.0021945396649292654,1.867
0.002188865520984166,1.868
0.0021834112494450433,1.869
0.002178168829028574,1.87
0.0021731300976869056,1.871
0.0021682868862061624,1.872
0.0021636311711273563,1.873
0.0021591552344988572,1.874
0.0021548518067200247,1.875
0.002150714170395258,1.876
0.0021467362139825905,1.877
0.0021429124319153224,1.878
0.0021392378603354665,1.879
0.0021357079141858886,1.88
0.0021323180701157537,1.881
0.0021290633448308545,1.882
0.0021259376869819566,1.883
0.0021229337098982435,1.884
0.0021200430766646103,1.885
0.0021172572769925587,1.886
0.002114568330681573,1.887
0.002111969193580334,1.888
0.002109453817851086,1.889
0.0021070168890407024,1.89
0.0021046533337096725,1.891
0.00210235774519485,1.892
0.002100123890559101,1.893
0.002097944430617866,1.894
0.002095810917296003,1.895
0.002093714051124494,1.896
0.002091644111978372,1.897
0.002089591435486534,1.898
0.00208754679789644,1.899
0.0020855015875844082,1.9
0.0020834476814459188,1.901
0.0020813770110077127,1.902
0.0020792809149072014,1.903
0.0020771495532413784,1.904
0.002074971724668296,1.905
0.002072735141806298,1.906
0.002070426882402367,1.907
0.002068033768936506,1.908
0.0020655426356728248,1.909
0.0020629405148131453,1.91
0.0020602147676795596,1.911
0.0020573531901813638,1.912
0.0020543441282153594,1.913
0.0020511766281898366,1.914
0.002047840614252481,1.915
0.0020443270477169474,1.916
0.0020406280123453444,1.917
0.002036736686935909,1.918
0.0020326471958840822,1.919
0.0020283543452721715,1.92
0.0020238532456230856,1.921
0.0020191388026577642,1.922
0.0020142051332992725,1.923
0.0020090452010309637,1.924
0.0020036510068278347,1.925
0.0019980142836097422,1.926
0.0019921273262056734,1.927
0.0019859836883034864,1.928
0.001979578687206004,1.929
0.001972909750360897,1.93
0.001965976656776838,1.931
0.0019587817101954542,1.932
0.0019513298381743224,1.933
0.0019436285591109006,1.934
0.0019356877254316273,1.935
0.0019275189621533674,1.936
0.00191913478019223,1.937
0.0019105475539559526,1.938
0.0019017688842626762,1.939
0.001892809750502083,1.94
0.0018836812009311516,1.941
0.0018743950282866886,1.942
0.0018649641605565951,1.943
0.0018554027717999383,1.944
0.0018457261958914604,1.945
0.001835950735133664,1.946
0.0018260934410131197,1.947
0.0018161719168782954,1.948
0.0018062041614663527,1.949
0.0017962084442719162,1.95
0.0017862031847784155,1.951
0.0017762068031464693,1.952
0.001766237519519625,1.953
0.001756313094075163,1.954
0.001746450510399365,1.955
0.001736665644410492,1.956
0.0017269730549063426,1.957
0.0017173860336052295,1.958
0.0017079168716120008,1.959
0.0016985771602743439,1.96
0.0016893779925789085,1.961
0.001680330026529599,1.962
0.0016714434190289713,1.963
0.001662727663501658,1.964
0.001654191383554107,1.965
0.0016458421466385052,1.966
0.0016376863627562536,1.967
0.0016297293183512905,1.968
0.0016219753632391622,1.969
0.0016144282270331152,1.97
0.0016070914064658035,1.971
0.0015999685477345721,1.972
0.0015930637466239756,1.973
0.0015863816930482362,1.974
0.0015799275932626752,1.975
0.0015737068249291114,1.976
0.0015677244058109477,1.977
0.0015619846051193773,1.978
0.0015564910334675477,1.979
0.0015512471363954125,1.98
0.0015462567207165676,1.981
0.001541524262922613,1.982
0.0015370549496555082,1.983
0.001532854479850736,1.984
0.0015289286895493737,1.985
0.0015252830872442248,1.986
0.0015219223994497734,1.987
0.0015188502158777514,1.988
0.001516068791835774,1.989
0.0015135790062708388,1.99
0.001511380421952003,1.991
0.0015094714028630535,1.992
0.0015078492786977677,1.993
0.0015065105487189934,1.994
0.001505451096841894,1.995
0.0015046663749792137,1.996
0.0015041515125225045,1.997
0.0015039013242261422,1.998
0.0015039102042678013,1.999
0.0015041719011636234,2.0
0.0015046792351727347,2.001
0.00150542397091298,2.002
0.001506397035468766,2.003
0.0015075890023697378,2.004
0.0015089906138929683,2.005
0.0015105931908134525,2.006
0.001512388858557053,2.007
0.0015143705503665873,2.008
0.0015165317780548274,2.009
0.0015188661923413664,2.01
0.0015213670340550236,2.011
0.0015240267339066864,2.012
0.0015268369265654593,2.013
0.0015297888462571093,2.014
0.0015328738169335361,2.015
0.0015360836109384486,2.016
0.0015394106084178044,2.017
0.0015428477663693744,2.018
0.0015463884424009905,2.019
0.001550026141539266,2.02
0.0015537542544189402,2.021
0.001557565833327815,2.022
0.0015614534193716695,2.023
0.001565408900484761,2.024
0.001569423355510254,2.025
0.0015734868596979509,2.026
0.0015775883388587895,2.027
0.001581715655793954,2.028
0.0015858560058432814,2.029
0.0015899965015444882,2.03
0.0015941247807218074,2.031
0.001598229527499251,2.032
0.0016023008232996102,2.033
0.001606330263925756,2.034
0.001610310815388841,2.035
0.0016142364155756423,2.036
0.001618101344547946,2.037
0.0016218995174050153,2.038
0.0016256241406563442,2.039
0.0016292680929006883,2.04
0.0016328248155691113,2.041
0.0016362892040481327,2.042
0.0016396581780758533,2.043
0.0016429308220174952,2.044
0.0016461081097327518,2.045
0.0016491923333155332,2.046
0.0016521864095963234,2.047
0.0016550932217321637,2.048
0.0016579150850287608,2.049
0.0016606533492361318,2.05
0.0016633081160365353,2.051
0.00166587808632284,2.052
0.0016683605808744898,2.053
0.0016707517235540936,2.054
0.001673046720300321,2.055
0.0016752401904472668,2.056
0.0016773265478445128,2.057
0.0016793004287857178,2.058
0.0016811571330065701,2.059
0.0016828930076106137,2.06
0.0016845056830891894,2.061
0.0016859940793416792,2.062
0.0016873581385568191,2.063
0.001688598302151383,2.064
0.0016897148234067524,2.065
0.001690707132138389,2.066
0.0016915735567737803,2.067
0.001692311500617062,2.068
0.001692917826842839,2.069
0.001693389189069304,2.07
0.0016937222370057242,2.071
0.0016939137082009493,2.072
0.0016939604212760826,2.073
0.0016938591981078739,2.074
0.0016936067554960122,2.075
0.001693199609298117,2.076
0.001692634016226009,2.077
0.0016919059415075092,2.078
0.001691011001733775,2.079
0.0016899443143633096,2.08
0.0016887002243125284,2.081
0.0016872720418250953,2.082
0.0016856521019865934,2.083
0.0016838323195740301,2.084
0.0016818050546309746,2.085
0.001679563967897967,2.086
0.0016771046323022156,2.087
0.0016744247483133747,2.088
0.0016715238886673808,2.089
0.00166840280629629,2.09
0.0016650624947937612,2.091
0.001661503406385766,2.092
0.0016577252477836786,2.093
0.0016537273726882058,2.094
0.0016495094291276479,2.095
0.0016450720194952713,2.096
0.0016404173447296165,2.097
0.001635549804727482,2.098
0.0016304764356954446,2.099
0.0016252070232305644,2.1
0.0016197537678335678,2.101
0.001614130481228431,2.102
0.0016083515140328621,2.103
0.0016024309587909264,2.104
0.0015963826451498148,2.105
0.0015902208025416666,2.106
0.001583960798344435,2.107
0.0015776195500157237,2.108
0.0015712155489885598,2.109
0.0015647685730930156,2.11
0.0015582992056200895,2.111
0.0015518282922933541,2.112
0.0015453764466430158,2.113
0.0015389636686970062,2.114
0.001532609093052131,2.115
0.001526330846644826,2.116
0.001520145975732546,2.117
0.0015140703904515005,2.118
0.0015081187934236054,2.119
0.0015023046433402943,2.12
0.0014966402846120351,2.121
0.0014911373132840383,2.122
0.0014858071041753344,2.123
0.0014806613531233239,2.124
0.0014757124899220325,2.125
0.0014709738379062825,2.126
0.0014664594465495057,2.127
0.0014621836041666086,2.128
0.0014581602090083079,2.129
0.0014544023954914732,2.13
0.0014509226662836635,2.131
0.0014477332935888846,2.132
0.0014448465953364542,2.133
0.001442274930341679,2.134
0.0014400304507449706,2.135
0.0014381247245030054,2.136
0.0014365683741348332,2.137
0.001435370864360965,2.138
0.00143454050908491,2.139
0.0014340846802754624,2.14
0.0014340101261088468,2.141
0.00143432327523969,2.142
0.0014350304254345107,2.143
0.0014361377678885176,2.144
0.0014376512517342425,2.145
0.0014395763250197586,2.146
0.0014419176219904767,2.147
0.0014446787324301426,2.148
0.0014478621912115332,2.149
0.0014514696817859282,2.15
0.0014555023221898848,2.151
0.0014599609360279899,2.152
0.001464846289051909,2.153
0.0014701592920819979,2.154
0.0014759011567703057,2.155
0.0014820734691767953,2.156
0.0014886781307379747,2.157
0.001495717124256972,2.158
0.0015031921059549373,2.159
0.0015111039573351308,2.16
0.001519452579983031,2.161
0.0015282370638105508,2.162
0.0015374559957332973,2.163
0.0015471076074263733,2.164
0.001557189657311438,2.165
0.001567699125732294,2.166
0.0015786319724773385,2.167
0.0015899831900047403,2.168
0.0016017470946371897,2.169
0.001613917609550253,2.17
0.001626488382314738,2.171
0.0016394527101807586,2.172
0.0016528033028772834,2.173
0.001666531946965537,2.174
0.0016806291744285574,2.175
0.0016950840453162702,2.176
0.001709884062490766,2.177
0.001725015135409575,2.178
0.0017404615485128966,2.179
0.001756205985125567,2.18
0.001772229685934362,2.181
0.00178851279271334,2.182
0.0018050348637389773,2.183
0.0018217754762043365,2.184
0.0018387147899316591,2.185
0.0018558339458544756,2.186
0.0018731152114533972,2.187
0.001890541844212519,2.188
0.0019080976927057273,2.189
0.0019257665813263262,2.19
0.0019435316213050132,2.191
0.0019613747862073927,2.192
0.0019792770314361074,2.193
0.001997218815580257,2.194
0.002015180638111906,2.195
0.002033143337525496,2.196
0.0020510880600600996,2.197
0.0020689958910348554,2.198
0.0020868472577173017,2.199
0.0021046214226878076,2.2
0.0021222964471709995,2.201
0.0021398496704872734,2.202
0.002157258386526846,2.203
0.0021745004021862645,2.204
0.0021915543143865893,2.205
0.0022083993918982354,2.206
0.00222501500652459,2.207
0.0022413799064993074,2.208
0.0022574721145797983,2.209
0.0022732699761984516,2.21
0.002288753959167309,2.211
0.002303908447867574,2.212
0.0023187230320448676,2.213
0.002333192966559719,2.214
0.002347318594748133,2.215
0.0023611037493931823,2.216
0.0023745536521690472,2.217
0.00238767352159623,2.218
0.0024004687785381044,2.219
0.0024129462981720574,2.22
0.0024251155247241338,2.221
0.00243698889194597,2.222
0.002448581595578078,2.223
0.002459910947064286,2.224
0.0024709955694747912,2.225
0.0024818546581633566,2.226
0.0024925074355075347,2.227
0.002502972813542357,2.228
0.002513269183737396,2.229
0.002523414215180533,2.23
0.0025334245651088636,2.231
0.0025433154728251237,2.232
0.0025531003573221107,2.233
0.0025627907018661482,2.234
0.0025723963881788487,2.235
0.0025819263097699653,2.236
0.0025913889959119827,2.237
0.0026007930938388747,2.238
0.002610147616210274,2.239
0.0026194618790782455,2.24
0.002628745100861939,2.241
0.002638005721048412,2.242
0.0026472507150138917,2.243
0.0026564853772640482,2.244
0.002665713756536692,2.245
0.00267493936749208,2.246
0.002684165709827389,2.247
0.0026933963999222735,2.248
0.002702634890443071,2.249
0.0027118838407547774,2.25
0.002721144421148229,2.251
0.0027304160780798215,2.252
0.002739697036687463,2.253
0.0027489852153342533,2.254
0.002758279069186456,2.255
0.0027675781073625582,2.256
0.002776882952214087,2.257
0.00278619486613189,2.258
0.002795514831580843,2.259
0.0028048426066317523,2.26
0.0028141763825338686,2.261
0.002823513188178764,2.262
0.0028328494842986105,2.263
0.0028421814100139317,2.264
0.002851504615611709,2.265
0.002860813869985682,2.266
0.0028701026632594172,2.267
0.0028793629709182107,2.268
0.002888585243649148,2.269
0.0028977585889500574,2.27
0.0029068710483720075,2.271
0.0029159098518916934,2.272
0.002924861536189604,2.273
0.002933711832267217,2.274
0.002942445256735483,2.275
0.0029510445510892856,2.276
0.002959490512084962,2.277
0.002967762663642619,2.278
0.002975840547108953,2.279
0.0029837051147028515,2.28
0.0029913399260912132,2.281
0.0029987319877728237,2.282
0.0030058720999388572,2.283
0.003012754628323366,2.284
0.0030193766971782295,2.285
0.0030257368763696407,2.286
0.0030318336499547335,2.287
0.003037664404601563,2.288
0.003043225686827238,2.289
0.00304851462199084,2.29
0.003053530703733861,2.291
0.0030582773328492944,2.292
0.0030627628591107466,2.293
0.003067001024943113,2.294
0.0030710107787407463,2.295
0.0030748155103924343,2.296
0.0030784418351527134,2.297
0.003081918087519199,2.298
0.003085272704753861,2.299
0.003088532848272157,2.3
0.0030917238320197853,2.301
0.0030948695778931106,2.302
0.003097993612686462,2.303
0.0031011200461488896,2.304
0.0031042743580580383,2.305
0.0031074839843598036,2.306
0.0031107786728416884,2.307
0.0031141905583391655,2.308
0.003117753897147211,2.309
0.0031215044198504736,2.31
0.003125478324857181,2.311
0.003129711073727282,2.312
0.0031342363844808884,2.313
0.0031390858657255093,2.314
0.0031442892784491667,2.315
0.003149874939413723,2.316
0.003155869890908823,2.317
0.003162299824703632,2.318
0.003169188905455506,2.319
0.003176559633031631,2.32
0.0031844328115582473,2.321
0.003192827586384359,2.322
0.0032017614248223353,2.323
0.003211249895438094,2.324
0.003221306286924599,2.325
0.0032319414839118545,2.326
0.003243164479940289,2.327
0.003254983349044063,2.328
0.0032674062327395217,2.329
0.003280442073708085,2.33
0.003294100961390192,2.331
0.003308393996148194,2.332
0.0033233326329015927,2.333
0.0033389276383991627,2.334
0.0033551882184801977,2.335
0.003372122082186098,2.336
0.0033897366109545183,2.337
0.0034080405382783223,2.338
0.003427045508757807,2.339
0.0034467671943345843,2.34
0.0034672257518336713,2.341
0.0034884454273326868,2.342
0.003510453208786682,2.343
0.0035332768544446484,2.344
0.003556943437836949,2.345
0.003581479527051268,2.346
0.0036069126507241593,2.347
0.003633272650090114,2.348
0.0036605919805897456,2.349
0.003688904863286975,2.35
0.0037182456644213177,2.351
0.00374864726195974,2.352
0.003780140233787453,2.353
0.0038127529631293215,2.354
0.0038465119387936205,2.355
0.00388144169612746,2.356
0.003917564451075505,2.357
0.003954899673944372,2.358
0.003993463749248649,2.359
0.004033269732498616,2.36
0.004074327158801337,2.361
0.004116641962467928,2.362
0.00416021664628049,2.363
0.0042050506928116484,2.364
0.0042511410340766165,2.365
0.004298482413934057,2.366
0.004347067593132123,2.367
0.004396887419779455,2.368
0.004447930799111545,2.369
0.004500184571329928,2.37
0.004553633276954594,2.371
0.004608258775846889,2.372
0.0046640397245419464,2.373
0.00472095108985277,2.374
0.0047789640459960465,2.375
0.0048380463921451535,2.376
0.004898163205559143,2.377
0.004959277372196316,2.378
0.005021349854217066,2.379
0.005084339714811947,2.38
0.005148203996488712,2.381
0.005212897577996105,2.382
0.005278373102546282,2.383
0.005344580991499701,2.384
0.005411469472218562,2.385
0.005478984498728886,2.386
0.005547069451246954,2.387
0.00561566455224079,2.388
0.005684706106285519,2.389
0.0057541260109343125,2.39
0.00582385207878871,2.391
0.005893809272494848,2.392
0.005963921554191257,2.393
0.0060341140485255015,2.394
0.006104315236317115,2.395
0.006174458750353587,2.396
0.006244484234274286,2.397
0.006314336808667931,2.398
0.006383964973947673,2.399
0.006453317508329616,2.4
0.0065223411130749176,2.401
0.0065909805865233375,2.402
0.006659181312347822,2.403
0.006726892324463589,2.404
0.0067940687265506065,2.405
0.006860673180706791,2.406
0.006926676439535453,2.407
0.006992056871992499,2.408
0.007056798951804386,2.409
0.007120890778593599,2.41
0.0071843208572956,2.411
0.007247074907776494,2.412
0.007309134256995285,2.413
0.007370476631723853,2.414
0.007431078216048047,2.415
0.00749091548149359,2.416
0.007549966371954639,2.417
0.007608210996789639,2.418
0.007665632023708828,2.419
0.007722214901925008,2.42
0.0077779479081386315,2.421
0.00783282187662157,2.422
0.007886829434692212,2.423
0.007939963632594062,2.424
0.007992215977605514,2.425
0.008043574211679566,2.426
0.008094020798683987,2.427
0.008143533080407083,2.428
0.008192084884290777,2.429
0.008239648466775476,2.43
0.008286195985841486,2.431
0.008331700320799312,2.432
0.00837613535651121,2.433
0.008419475938351009,2.434
0.008461697669330937,2.435
0.008502776610109068,2.436
0.008542688845739853,2.437
0.008581409836558935,2.438
0.008618913449776727,2.439
0.008655170550649662,2.44
0.00869014729186736,2.441
0.008723804021367977,2.442
0.008756096033724842,2.443
0.008786976319886576,2.444
0.008816399342977056,2.445
0.008844324858350046,2.446
0.008870721116247617,2.447
0.008895566791180127,2.448
0.008918850971034932,2.449
0.008940570782788565,2.45
0.008960726918510546,2.451
0.008979318980778642,2.452
0.008996343975016285,2.453
0.009011799236478137,2.454
0.009025687267047913,2.455
0.00903801947878055,2.456
0.009048817848238178,2.457
0.00905811459494641,2.458
0.009065950228526486,2.459
0.009072370405284738,2.46
0.009077422052493919,2.461
0.00908114944924777,2.462
0.009083591493756055,2.463
0.009084781159476378,2.464
0.009084746656968581,2.465
0.009083512910115698,2.466
0.00908110261451705,2.467
0.0090775370098555,2.468
0.009072836701292322,2.469
0.00906702271739283,2.47
0.009060117752641206,2.471
0.009052147301220113,2.472
0.009043140248199915,2.473
0.009033128512750736,2.474
0.009022145526432818,2.475
0.00901022358862634,2.476
0.008997390873775582,2.477
0.008983670001007988,2.478
0.008969079493474698,2.479
0.00895363712885696,2.48
0.008937363380359433,2.481
0.008920284065738417,2.482
0.00890243183756517,2.483
0.008883846165067539,2.484
0.008864571556637862,2.485
0.008844654103597088,2.486
0.008824137652030075,2.487
0.008803062456729118,2.488
0.00878146791000233,2.489
0.0087593974844677,2.49
0.008736903081835244,2.491
0.008714047383588146,2.492
0.008690903633654651,2.493
0.008667552605793457,2.494
0.008644077682092988,2.495
0.00862056118024746,2.496
0.008597085173784396,2.497
0.008573736286411995,2.498
0.008550610962246148,2.499
0.00852781855904387,2.5
0.008505481466908044,2.501
0.008483732336608301,2.502
0.008462709022973532,2.503
0.008442549124032438,2.504
0.008423387399910704,2.505
0.008405357474938108,2.506
0.008388595189829333,2.507
0.00837324042180784,2.508
0.008359436559803623,2.509
0.008347328201181066,2.51
0.008337057984337023,2.511
0.008328763816225672,2.512
0.00832257765600082,2.513
0.008318625770963397,2.514
0.008317029148790393,2.515
0.00831790313136014,2.516
0.008321356587435946,2.517
0.008327491537742851,2.518
0.008336403588284101,2.519
0.008348182618505716,2.52
0.008362913099115533,2.521
0.008380673924680726,2.522
0.00840153793457901,2.523
0.00842557135709555,2.524
0.008452833381259192,2.525
0.00848337592764272,2.526
0.008517243509410393,2.527
0.008554473056986254,2.528
0.008595093865761416,2.529
0.008639127977655734,2.53
0.008686590924289835,2.531
0.008737492355393818,2.532
0.008791836161134017,2.533
0.008849620033330789,2.534
0.008910834678719542,2.535
0.008975463069688265,2.536
0.009043480151938066,2.537
0.009114853191776968,2.538
0.009189542645411865,2.539
0.009267503370385852,2.54
0.009348685976015304,2.541
0.009433037952882672,2.542
0.009520504156397668,2.543
0.009611026373854682,2.544
0.009704541955760879,2.545
0.009800982004168415,2.546
0.009900270377528367,2.547
0.0100023245385549,2.548
0.010107057832318246,2.549
0.010214382060407378,2.55
0.010324209620152663,2.551
0.010436454831621467,2.552
0.010551034200557204,2.553
0.01066786555064577,2.554
0.010786866176481098,2.555
0.010907950323323411,2.556
0.011031026452747183,2.557
0.011155995100482832,2.558
0.011282748215944664,2.559
0.011411169950494116,2.56
0.011541137779408264,2.561
0.011672522893021517,2.562
0.01180518948852335,2.563
0.011938993267405143,2.564
0.012073779973114512,2.565
0.012209384756410981,2.566
0.01234563312903173,2.567
0.01248234445762007,2.568
0.012619337941564503,2.569
0.012756439272856974,2.57
0.012893485467104828,2.571
0.013030325844254668,2.572
0.013166818275350425,2.573
0.013302822345097344,2.574
0.013438194694322735,2.575
0.013572791027772953,2.576
0.013706472892237784,2.577
0.01383911379646235,2.578
0.013970601451344638,2.579
0.014100835646323641,2.58
0.014229722486836266,2.581
0.014357167040445182,2.582
0.014483068258924663,2.583
0.01460731910403346,2.584
0.014729810445222407,2.585
0.014850435077702704,2.586
0.014969089947258412,2.587
0.01508567651041212,2.588
0.015200099517155775,2.589
0.015312264288427172,2.59
0.015422072605731151,2.591
0.015529418737584464,2.592
0.015634188873979007,2.593
0.01573626550449695,2.594
0.01583553421029267,2.595
0.015931889432493244,2.596
0.016025237718693578,2.597
0.01611549832378786,2.598
0.016202601571807657,2.599
0.01628648560519111,2.6
0.01636709205964641,2.601
0.016444360961892817,2.602
0.016518225533740192,2.603
0.016588609117425587,2.604
0.01665542677695114,2.605
0.016718591555224916,2.606
0.016778023033297756,2.607
0.016833655964723887,2.608
0.01688544744770477,2.609
0.01693338123048316,2.61
0.016977467967600707,2.611
0.01701774085603658,2.612
0.01705424690361432,2.613
0.017087036139100342,2.614
0.017116154507191603,2.615
0.017141645441019097,2.616
0.017163558310315758,2.617
0.017181957789801465,2.618
0.017196930261315007,2.619
0.017208586080924626,2.62
0.017217057511707136,2.621
0.017222492682624945,2.622
0.01722504654440566,2.623
0.01722487130888548,2.624
0.01722211108772421,2.625
0.017216903812250755,2.626
0.017209388032623056,2.627
0.017199710252851032,2.628
0.017188030628790724,2.629
0.01717452605928508,2.63
0.017159389543238018,2.631
0.017142824913888483,2.632
0.01712503821715899,2.633
0.01710623091427035,2.634
0.017086599928449377,2.635
0.01706634311252012,2.636
0.017045664645945063,2.637
0.017024777368346865,2.638
0.017003902246848786,2.639
0.016983265860858635,2.64
0.016963096561250182,2.641
0.016943619894526,2.642
0.016925053925804477,2.643
0.016907605230456518,2.644
0.016891466538587526,2.645
0.016876816517850023,2.646
0.016863820934962408,2.647
0.016852633986784733,2.648
0.016843399210782744,2.649
0.016836249899978138,2.65
0.01683130906073489,2.651
0.016828689001081087,2.652
0.016828490716286223,2.653
0.01683080330906212,2.654
0.016835703709805853,2.655
0.01684325692779397,2.656
0.016853516956772955,2.657
0.016866528281076505,2.658
0.016882327710052703,2.659
0.016900946068652365,2.66
0.01692240917385806,2.661
0.01694673760740057,2.662
0.016973945064627256,2.663
0.017004035579221165,2.664
0.01703700089217411,2.665
0.017072819840725457,2.666
0.017111460393019657,2.667
0.017152883054369544,2.668
0.017197044254061704,2.669
0.017243899244052983,2.67
0.01729340436620663,2.671
0.017345518440136935,2.672
0.017400202899535026,2.673
0.017457420178967703,2.674
0.017517129882855986,2.675
0.017579284010284215,2.676
0.017643825803375052,2.677
0.017710695667034444,2.678
0.017779841456009228,2.679
0.017851227584488358,2.68
0.01792483926172598,2.681
0.018000680158565627,2.682
0.018078763813661244,2.683
0.01815910301855319,2.684
0.018241704607893518,2.685
0.018326572430972188,2.686
0.018413712708006187,2.687
0.018503135476417357,2.688
0.018594851258455027,2.689
0.018688865031922908,2.69
0.018785170188803067,2.691
0.01888374476475944,2.692
0.01898455028316033,2.693
0.019087532508217302,2.694
0.019192624426036694,2.695
0.01929975159087617,2.696
0.019408838266731347,2.697
0.019519812197018954,2.698
0.01963260633017561,2.699
0.019747156611583844,2.7
0.019863396236199624,2.701
0.019981249026633084,2.702
0.02010062611497412,2.703
0.020221427106518385,2.704
0.020343542144283855,2.705
0.020466851458013822,2.706
0.020591222539464337,2.707
0.020716507235577393,2.708
0.02084254147764019,2.709
0.020969149653092874,2.71
0.021096153778655886,2.711
0.02122338534553648,2.712
0.02135069607455951,2.713
0.02147796365590796,2.714
0.021605089924318276,2.715
0.02173199119409071,2.716
0.021858584864491343,2.717
0.02198478175243538,2.718
0.022110490216159448,2.719
0.022235626936994532,2.72
0.022360125923450897,2.721
0.022483942589690085,2.722
0.022607053265226065,2.723
0.02272945120940796,2.724
0.022851140425928312,2.725
0.022972128423368793,2.726
0.023092418654049866,2.727
0.023212003460784288,2.728
0.02333085961224781,2.729
0.02344894882421225,2.73
0.023566223175115312,2.731
0.023682632976163184,2.732
0.02379813491719095,2.733
0.023912699194819587,2.734
0.02402631433798764,2.735
0.024138988290707455,2.736
0.024250744604310287,2.737
0.024361613413804876,2.738
0.024471620041549708,2.739
0.02458077893356306,2.74
0.02468909816751577,2.741
0.02479659001449193,2.742
0.024903279841885628,2.743
0.02500921019282767,2.744
0.025114440150017285,2.745
0.025219040930407506,2.746
0.025323088964628312,2.747
0.025426657708841515,2.748
0.025529809462979204,2.749
0.025632589056674003,2.75
0.025735021466431536,2.751
0.025837113367564654,2.752
0.025938856181403316,2.753
0.026040228590012347,2.754
0.02614119828524329,2.755
0.026241723456656672,2.756
0.02634175454383946,2.757
0.026441236659502588,2.758
0.02654011274001266,2.759
0.026638326869513947,2.76
0.02673582654402786,2.761
0.026832562298159855,2.762
0.02692848342561006,2.763
0.027023530645147113,2.764
0.027117630780323327,2.765
0.027210699215915284,2.766
0.027302649604652465,2.767
0.027393404842322024,2.768
0.02748290428624862,2.769
0.027571105221680364,2.77
0.027657978401001867,2.771
0.027743498749157436,2.772
0.02782763400010763,2.773
0.027910336053515075,2.774
0.027991538932353583,2.775
0.028071162127244517,2.776
0.02814911491753908,2.777
0.028225299268262744,2.778
0.02829961165891256,2.779
0.0283719447972599,2.78
0.028442189673014456,2.781
0.0285102377339333,2.782
0.028575982402367195,2.783
0.02863931893765625,2.784
0.028700141858563163,2.785
0.02875833961633673,2.786
0.028813787570393185,2.787
0.028866343108806154,2.788
0.028915847469563584,2.789
0.028962134553749585,2.79
0.029005042800672676,2.791
0.0290444264057746,2.792
0.029080163883930733,2.793
0.02911216261765977,2.794
0.029140358298485464,2.795
0.029164708754281517,2.796
0.029185182594874886,2.797
0.0292017453334026,2.798
0.02921434916715938,2.799
0.029222931974243763,2.8
0.0292274239951146,2.801
0.029227756094245664,2.802
0.029223866307946655,2.803
0.029215705257072407,2.804
0.029203241805970774,2.805
0.029186469378920554,2.806
0.029165411896886144,2.807
0.029140127049771525,2.808
0.029110704262137733,2.809
0.02907725560601884,2.81
0.02903990096587287,2.811
0.028998754692485532,2.812
0.02895392359683094,2.813
0.028905517989046458,2.814
0.028853667461632204,2.815
0.02879853347884853,2.816
0.02874031614892445,2.817
0.02867925472026683,2.818
0.028615621752573702,2.819
0.02854971175288677,2.82
0.028481826142110155,2.821
0.0284122583583841,2.822
0.028341284976039553,2.823
0.02826916562494997,2.824
0.028196147505377286,2.825
0.028122468934325573,2.826
0.028048360428856115,2.827
0.027974044316730996,2.828
0.027899734019178758,2.829
0.027825633798347005,2.83
0.027751939329037214,2.831
0.027678839078472368,2.832
0.02760651617938143,2.833
0.027535150181330105,2.834
0.027464917737942435,2.835
0.027395991085576315,2.836
0.027328533450660674,2.837
0.027262692925914354,2.838
0.027198600098796016,2.839
0.027136372887257405,2.84
0.02707612505070541,2.841
0.027017972862468282,2.842
0.02696203787287697,2.843
0.02690844602120525,2.844
0.026857323922384345,2.845
0.026808793285887155,2.846
0.02676296426837563,2.847
0.02671992922676089,2.848
0.02667975987823918,2.849
0.0266425095865388,2.85
0.026608218533148008,2.851
0.026576918608959586,2.852
0.026548636887156363,2.853
0.0265233976111518,2.854
0.026501222672628777,2.855
0.026482130567143145,2.856
0.026466133930909946,2.857
0.026453236007410612,2.858
0.026443426605289862,2.859
0.026436678055201637,2.86
0.02643294181393827,2.861
0.026432147238457392,2.862
0.02643420409296043,2.863
0.026439008549775427,2.864
0.026446450925792696,2.865
0.026456423216005946,2.866
0.026468824676368765,2.867
0.02648356413919642,2.868
0.026500558560347175,2.869
0.02651972807497034,2.87
0.02654098820823806,2.871
0.02656424158121829,2.872
0.026589374835469245,2.873
0.026616264897679483,2.874
0.026644791492549887,2.875
0.02667484990683752,2.876
0.02670636035450772,2.877
0.026739271851864168,2.878
0.02677355911981542,2.879
0.026809212099457434,2.88
0.026846221542714724,2.881
0.02688457067954285,2.882
0.026924240867602815,2.883
0.026965226500490068,2.884
0.027007548434945784,2.885
0.027051260006584657,2.886
0.02709644464710498,2.887
0.027143206273288437,2.888
0.027191654940239507,2.889
0.027241892376832465,2.89
0.027294004170966796,2.891
0.027348061254465147,2.892
0.027404125413098786,2.893
0.027462252949845053,2.894
0.027522495444135847,2.895
0.027584898680825774,2.896
0.027649500666435494,2.897
0.02771632933516729,2.898
0.027785400175256023,2.899
0.027856713668118118,2.9
0.02793025223632051,2.901
0.02800597697046164,2.902
0.028083825857857802,2.903
0.028163715118366617,2.904
0.02824554266692931,2.905
0.02832919104958894,2.906
0.0284145278161979,2.907
0.028501403141862114,2.908
0.028589647682397183,2.909
0.02867907510239717,2.91
0.028769489853178586,2.911
0.028860695891097545,2.912
0.028952501444161574,2.913
0.029044716991920225,2.914
0.0291371474685294,2.915
0.029229586017463116,2.916
0.029321817425947076,2.917
0.02941363005191835,2.918
0.029504827584469383,2.919
0.029595233962011587,2.92
0.029684689360928607,2.921
0.029773038812145835,2.922
0.029860120699153444,2.923
0.02994576556364607,2.924
0.030029807535208865,2.925
0.030112099245050917,2.926
0.030192520488953333,2.927
0.030270977256344596,2.928
0.030347391879571136,2.929
0.03042168807997827,2.93
0.030493778877097175,2.931
0.03056356514013027,2.932
0.030630944209000158,2.933
0.030695821094850445,2.934
0.03075811680471811,2.935
0.030817772855304248,2.936
0.0308747524606651,2.937
0.030929038702175688,2.938
0.030980629786956548,2.939
0.031029531463302618,2.94
0.031075746835743153,2.941
0.031119265613636902,2.942
0.031160058192336606,2.943
0.03119807864754599,2.944
0.031233273947085416,2.945
0.031265593969734724,2.946
0.03129499987872051,2.947
0.03132147066375086,2.948
0.031345007929903385,2.949
0.03136563872170485,2.95
0.03138341570309311,2.951
0.0313984136650955,2.952
0.03141072145006597,2.953
0.031420429596518876,2.954
0.03142761808319214,2.955
0.03143235268352263,2.956
0.03143469371846829,2.957
0.03143471094259743,2.958
0.031432496484098495,2.959
0.031428172542451116,2.96
0.031421893292980785,2.961
0.031413841342049345,2.962
0.031404219917549374,2.963
0.03139324245726946,2.964
0.03138112124519216,2.965
0.03136805648112008,2.966
0.03135422767646401,2.967
0.031339790177692645,2.968
0.03132487777893167,2.969
0.03130960887443756,2.97
0.03129409333473704,2.971
0.031278439151643196,2.972
0.03126275836404504,2.973
0.0312471713725608,2.974
0.031231808614451094,2.975
0.031216808755406538,2.976
0.031202313015544027,2.977
0.031188456092881532,2.978
0.031175356669344095,2.979
0.031163113298697243,2.98
0.031151808128992518,2.981
0.03114151346077889,2.982
0.0311322949416575,2.983
0.03112420942665908,2.984
