VaMe,time
-0.001460066152761067,0.001
-0.0013047835906536123,0.002
-0.0011501320210284929,0.003
-0.000996240098096004,0.004
-0.0008432343755805013,0.005
-0.0006912387870673778,0.006
-0.0005403738061151342,0.007
-0.0003907553146553626,0.008
-0.0002424932778235862,0.009
-9.569037618539756e-05,0.01
4.955921082631322e-05,0.011
0.00019317063530803203,0.012
0.0003350685794462967,0.013
0.0004751866496550596,0.014
0.0006134659589579461,0.015
0.000749853082919884,0.016
0.000884297784000986,0.017
0.0010167511881321422,0.018
0.0011471651246532702,0.019
0.0012754926864729087,0.02
0.001401689412437858,0.021
0.0015257146261989764,0.022
0.0016475328348531618,0.023
0.0017671150956177918,0.024
0.0018844401198781452,0.025
0.0019994948395653704,0.026
0.0021122742203829935,0.027
0.0022227802333666,0.028
0.0023310200443189895,0.029
0.002437003660140245,0.03
0.0025407416961925615,0.031
0.002642244307957486,0.032
0.002741521591241524,0.033
0.0028385844447456707,0.034
0.0029334448266620876,0.035
0.003026115195737116,0.036
0.003116607426420724,0.037
0.0032049316418048543,0.038
0.0032910954078436746,0.039
0.0033751034872323976,0.04
0.003456958141768521,0.041
0.0035366599355144005,0.042
0.0036142088495373656,0.043
0.0036896053643759264,0.044
0.003762851220123083,0.045
0.0038339497017292005,0.046
0.0039029054269593623,0.047
0.003969723740672204,0.048
0.004034409912424393,0.049
0.004096968360854801,0.05
0.004157402071049625,0.051
0.004215712247737598,0.052
0.004271898100335895,0.053
0.004325956534201569,0.054
0.004377881672297067,0.055
0.004427664699284776,0.056
0.004475294721921048,0.057
0.00452076062876499,0.058
0.004564053256959121,0.059
0.004605167191063318,0.06
0.004644101777176629,0.061
0.0046808611548695015,0.062
0.004715453335753207,0.063
0.004747888553647924,0.064
0.004778177217971068,0.065
0.004806327915517421,0.066
0.004832346062420736,0.067
0.0048562335637554665,0.068
0.0048779891405287875,0.069
0.004897608705580149,0.07
0.0049150855643863055,0.071
0.004930410608003854,0.072
0.004943572761853227,0.073
0.004954559907405694,0.074
0.004963360376585153,0.075
0.004969964935719138,0.076
0.00497436894276144,0.077
0.00497657411756058,0.078
0.004976589199950175,0.079
0.004974428815209734,0.08
0.004970110705356306,0.081
0.004963653397521103,0.082
0.004955076961811422,0.083
0.004944406830556752,0.084
0.004931678000683093,0.085
0.004916937347775687,0.086
0.004900243393849936,0.087
0.0048816637618558515,0.088
0.0048612710567388475,0.089
0.0048391387927357804,0.09
0.004815339599774475,0.091
0.004789946350128567,0.092
0.004763034334271351,0.093
0.0047346825661017935,0.094
0.004704973851133619,0.095
0.004673993981841505,0.096
0.004641830461515373,0.097
0.004608571096576408,0.098
0.004574302679308466,0.099
0.004539109859697393,0.1
0.004503074229566965,0.101
0.004466273675902018,0.102
0.004428782135363157,0.103
0.0043906697642030965,0.104
0.0043520033147291136,0.105
0.004312846517926881,0.106
0.004273260427702,0.107
0.004233303746325576,0.108
0.004193033151650592,0.109
0.004152503642439155,0.11
0.004111768897155726,0.111
0.004070881602129943,0.112
0.004029893663231251,0.113
0.003988856200613533,0.114
0.003947819263667517,0.115
0.003906831290013894,0.116
0.003865938428075853,0.117
0.0038251838940332105,0.118
0.003784607512102794,0.119
0.0037442455066018813,0.12
0.0037041305191874963,0.121
0.003664291751086287,0.122
0.003624755089396011,0.123
0.0035855431497715325,0.124
0.0035466754006377686,0.125
0.003508168631263134,0.126
0.0034700377923613567,0.127
0.003432297005460176,0.128
0.003394960517164914,0.129
0.0033580434200085264,0.13
0.003321562003160404,0.131
0.0032855336583092597,0.132
0.0032499763487589426,0.133
0.00321490774317567,0.134
0.0031803442041752105,0.135
0.0031462999109159204,0.136
0.0031127863882742073,0.137
0.0030798124507031045,0.138
0.0030473843115159365,0.139
0.0030155057346780874,0.14
0.0029841783500127216,0.141
0.0029534022584727713,0.142
0.0029231769097450584,0.143
0.0028935020897089127,0.144
0.0028643787642392703,0.145
0.002835809522074978,0.146
0.0028077984444144716,0.147
0.002780350371755555,0.148
0.002753469789729573,0.149
0.0027271599162069214,0.15
0.0027014225433565466,0.151
0.0026762584948505728,0.152
0.00265166803573749,0.153
0.002627650806448298,0.154
0.002604205340261923,0.155
0.002581328572772424,0.156
0.0025590158138373183,0.157
0.002537261240418771,0.158
0.0025160585101010715,0.159
0.0024954011135529886,0.16
0.0024752823382457323,0.161
0.0024556948605816233,0.162
0.0024366301377709895,0.163
0.002418078000919461,0.164
0.002400026774129621,0.165
0.0023824637910994876,0.166
0.002365375958534243,0.167
0.0023487501985397672,0.168
0.0023325737810934747,0.169
0.002316834589197891,0.17
0.002301521334747727,0.171
0.0022866237035048895,0.172
0.0022721323736764644,0.173
0.002258038842407303,0.174
0.002244335006268157,0.175
0.0022310124941983707,0.176
0.002218061995692796,0.177
0.0022054731481300376,0.178
0.0021932353086977,0.179
0.002181338852250808,0.18
0.00216977642609987,0.181
0.0021585438448157965,0.182
0.002147640469845631,0.183
0.002137068985093274,0.184
0.0021268345670188756,0.185
0.002116943582279001,0.186
0.002107402290033784,0.187
0.0020982163358994107,0.188
0.00208939130842031,0.189
0.0020809336870885368,0.19
0.002072851431915051,0.191
0.002065154013527707,0.192
0.0020578519731725407,0.193
0.002050956151556963,0.194
0.0020444768164173477,0.195
0.002038423071774303,0.196
0.002032802824819182,0.197
0.002027623140551608,0.198
0.0020228905786430513,0.199
0.002018611278107095,0.2
0.0020147907554559055,0.201
0.002011433516889582,0.202
0.002008542788711794,0.203
0.002006120710179616,0.204
0.002004169003358401,0.205
0.0020026898093326423,0.206
0.0020016863625864855,0.207
0.002001163278320288,0.208
0.0020011263117231722,0.209
0.0020015816182385846,0.21
0.0020025349385299736,0.211
0.002003991424574078,0.212
0.0020059563434513487,0.213
0.002008436069421772,0.214
0.00201143866649654,0.215
0.0020149737948311516,0.216
0.002019051982901243,0.217
0.0020236835810392953,0.218
0.0020288779969355407,0.219
0.0020346435578673483,0.22
0.0020409876293885063,0.221
0.0020479165072777267,0.222
0.0020554352169819194,0.223
0.002063547610831367,0.224
0.002072256702010814,0.225
0.0020815648127077467,0.226
0.0020914733492913436,0.227
0.0021019825244890777,0.228
0.0021130914927155837,0.229
0.0021247989329365832,0.23
0.0021371036966055506,0.231
0.0021500051937003548,0.232
0.002163503403106273,0.233
0.0021775984806429714,0.234
0.002192290082979175,0.235
0.002207576863818665,0.236
0.0022234566507762696,0.237
0.002239927245265192,0.238
0.0022569872938326195,0.239
0.002274636779441654,0.24
0.002292876976643488,0.241
0.0023117098770738475,0.242
0.002331137270649485,0.243
0.0023511599831448093,0.244
0.002371777807054148,0.245
0.0023929900787695146,0.246
0.00241479631602311,0.247
0.002437196446854144,0.248
0.0024601905255941083,0.249
0.0024837780605816,0.25
0.002507957338007177,0.251
0.0025327252921953916,0.252
0.0025580780936856557,0.253
0.002584012033001802,0.254
0.002610524202450196,0.255
0.0026376127485390403,0.256
0.0026652766155915424,0.257
0.002693514775708258,0.258
0.002722325252188036,0.259
0.0027517046863474895,0.26
0.0027816488796205585,0.261
0.0028121537792110273,0.262
0.002843216141437593,0.263
0.0028748336194391526,0.264
0.002907004369739769,0.265
0.0029397263496750274,0.266
0.0029729964684695595,0.267
0.003006809782816199,0.268
0.00304115901821992,0.269
0.0030760345300418486,0.27
0.003111424422602776,0.271
0.003147314495071634,0.272
0.003183688057767026,0.273
0.003220525943056331,0.274
0.0032578068698335926,0.275
0.0032955079584544916,0.276
0.0033336051059374362,0.277
0.003372073072558202,0.278
0.003410885224770381,0.279
0.0034500130117550514,0.28
0.003489425569273621,0.281
0.003529089965928279,0.282
0.003568972160584985,0.283
0.0036090382362005576,0.284
0.003649255447471331,0.285
0.003689592809575023,0.286
0.003730021077443925,0.287
0.0037705120670663687,0.288
0.003811037396231998,0.289
0.003851567058140256,0.29
0.0038920686825930167,0.291
0.0039325079359759,0.292
0.003972849437034292,0.293
0.004013057351346825,0.294
0.0040530954055598084,0.295
0.004092926392901722,0.296
0.004132511313877089,0.297
0.0041718084920053244,0.298
0.004210773243536592,0.299
0.004249358397977286,0.3
0.004287515304518797,0.301
0.004325194790939109,0.302
0.004362347799112051,0.303
0.004398925547348635,0.304
0.004434879093155486,0.305
0.0044701583208048255,0.306
0.004504710876347036,0.307
0.004538482042989016,0.308
0.004571415984868212,0.309
0.004603457631971563,0.31
0.004634554225856942,0.311
0.004664656043215788,0.312
0.004693716160450006,0.313
0.0047216892905174515,0.314
0.004748529957504899,0.315
0.004774190786891201,0.316
0.0047986220534817076,0.317
0.00482177282016951,0.318
0.004843592686534707,0.319
0.0048640329956428354,0.32
0.004883046971706518,0.321
0.004900588629893362,0.322
0.004916610956709082,0.323
0.0049310650700805205,0.324
0.004943901785197022,0.325
0.004955074863054983,0.326
0.004964544150658005,0.327
0.004972277460759417,0.328
0.0049782506584253785,0.329
0.004982445764083287,0.33
0.004984847658532734,0.331
0.004985441356889348,0.332
0.00498421207661744,0.333
0.004981148142692172,0.334
0.004976244746487405,0.335
0.004969506957237527,0.336
0.004960951547016148,0.337
0.004950607595022943,0.338
0.004938515840380458,0.339
0.0049247267688532865,0.34
0.004909297518419736,0.341
0.004892288092776973,0.342
0.004873758279253251,0.343
0.004853766964246772,0.344
0.0048323739100649184,0.345
0.004809642235044625,0.346
0.004785640057655098,0.347
0.00476044091987085,0.348
0.004734123142388809,0.349
0.0047067683885085405,0.35
0.004678459773669469,0.351
0.004649279858710744,0.352
0.004619308885257611,0.353
0.004588623643320328,0.354
0.0045572970912352295,0.355
0.004525398342177346,0.356
0.004492992644659214,0.357
0.004460141538238938,0.358
0.004426903474949623,0.359
0.004393334728319801,0.36
0.0043594901827947174,0.361
0.004325423753764637,0.362
0.004291188354507759,0.363
0.0042568354329143646,0.364
0.0042224142006558095,0.365
0.004187970846877891,0.366
0.004153548185610195,0.367
0.004119185914975089,0.368
0.00408492114739011,0.369
0.004050788820946208,0.37
0.004016821911967474,0.371
0.003983051533268211,0.372
0.003949507019302001,0.373
0.00391621607149675,0.374
0.0038832049751903503,0.375
0.0038504988419670264,0.376
0.003818121808960631,0.377
0.003786097134315575,0.378
0.003754447136914714,0.379
0.0037231929236277257,0.38
0.0036923538508746353,0.381
0.003661946881263152,0.382
0.0036319864011310926,0.383
0.0036024849115645894,0.384
0.0035734542405861883,0.385
0.003544906616760173,0.386
0.003516855228399589,0.387
0.0034893141405827,0.388
0.003462297584408495,0.389
0.0034358188557543313,0.39
0.003409889416836083,0.391
0.0033845188578600126,0.392
0.0033597157532448936,0.393
0.0033354888304749685,0.394
0.0033118479535723883,0.395
0.0032888047587802025,0.396
0.0032663728903856324,0.397
0.0032445677869981826,0.398
0.0032234060046800314,0.399
0.0032029041403057574,0.4
0.003183077620714711,0.401
0.003163939905557203,0.402
0.003145502483599529,0.403
0.00312777538063978,0.404
0.0031107676242852884,0.405
0.003094487432711085,0.406
0.0030789421906216572,0.407
0.0030641383366748955,0.408
0.003050081257152681,0.409
0.0030367752356748948,0.41
0.0030242234805713123,0.411
0.003012428251224911,0.412
0.0030013911130083643,0.413
0.002991113335791343,0.414
0.0029815963960099084,0.415
0.002972842457898851,0.416
0.0029648546329915835,0.417
0.0029576367960787954,0.418
0.002951192838877018,0.419
0.0029455256978974664,0.42
0.0029406370716897243,0.421
0.002936528355395601,0.422
0.002933202158824641,0.423
0.0029306634428883527,0.424
0.002928919829937033,0.425
0.002927981040435396,0.426
0.002927857607152576,0.427
0.002928559361577431,0.428
0.0029300945536439287,0.429
0.0029324700062088914,0.43
0.0029356916598048967,0.431
0.0029397647018030567,0.432
0.002944693135139384,0.433
0.00295047917402474,0.434
0.0029571230045768665,0.435
0.0029646230548471325,0.436
0.0029729763608732375,0.437
0.0029821786116028415,0.438
0.0029922238190216014,0.439
0.0030031038555424876,0.44
0.003014808227668452,0.441
0.0030273242122565327,0.442
0.0030406370785920124,0.443
0.0030547300939279135,0.444
0.003069584297036424,0.445
0.0030851782887589894,0.446
0.0031014883216112224,0.447
0.003118488682717009,0.448
0.0031361520825221325,0.449
0.003154449783409977,0.45
0.0031733513646090405,0.451
0.003192824256833147,0.452
0.0032128334841048053,0.453
0.003233341937594893,0.454
0.003254310949898004,0.455
0.003275700710325087,0.456
0.0032974702764093475,0.457
0.003319577165579691,0.458
0.00334197681623663,0.459
0.0033646225071025443,0.46
0.00338746604058011,0.461
0.0034104588349275215,0.462
0.00343355288751676,0.463
0.0034567013065433245,0.464
0.003479858259600933,0.465
0.003502978270602493,0.466
0.0035260150709997408,0.467
0.0035489207385186053,0.468
0.003571645943334613,0.469
0.0035941413036433977,0.47
0.0036163591286380043,0.471
0.0036382549366119534,0.472
0.0036597884851942574,0.473
0.003680924193887717,0.474
0.0037016309142173577,0.475
0.003721881091475106,0.476
0.003741649431465717,0.477
0.0037609112179162294,0.478
0.0037796406218868575,0.479
0.003797809746288129,0.48
0.0038153889590669446,0.481
0.003832348152228532,0.482
0.0038486581772343618,0.483
0.003864292113650166,0.484
0.0038792263624792436,0.485
0.0038934415875795172,0.486
0.003906923460006352,0.487
0.00391966308008,0.488
0.003931656911396953,0.489
0.0039429060854107465,0.49
0.003953415018638112,0.491
0.00396318940586231,0.492
0.003972234109702884,0.493
0.003980552162930775,0.494
0.0039881456168966555,0.495
0.003995017437003556,0.496
0.0040011732665974345,0.497
0.0040066226246340516,0.498
0.004011379505178478,0.499
0.004015462377006915,0.5
0.0040188935902364525,0.501
0.004021698206712329,0.502
0.004023902308815895,0.503
0.00402553113568721,0.504
0.00402660793888696,0.505
0.004027154233774376,0.506
0.004027190955744822,0.507
0.004026739474335462,0.508
0.00402582191152409,0.509
0.004024460734592715,0.51
0.0040226778038500305,0.511
0.0040204931882555,0.512
0.004017924210216421,0.513
0.004014985125149523,0.514
0.004011687394580667,0.515
0.0040080401294325056,0.516
0.00400405037786946,0.517
0.003999723168606451,0.518
0.003995061278431939,0.519
0.003990064789256626,0.52
0.003984730806562537,0.521
0.003979053801534026,0.522
0.003973026585966326,0.523
0.003966641487956634,0.524
0.003959891321293593,0.525
0.0039527699442084025,0.526
0.0039452723328890086,0.527
0.003937394177149742,0.528
0.003929131060759,0.529
0.0039204773523112725,0.53
0.00391142517892877,0.531
0.003901964150965092,0.532
0.0038920821855526204,0.533
0.0038817670340071052,0.534
0.0038710079448607392,0.535
0.003859797174834175,0.536
0.0038481311532434265,0.537
0.0038360110678110986,0.538
0.0038234426728581327,0.539
0.0038104352416473662,0.54
0.0037969997609465633,0.541
0.003783146858286043,0.542
0.0037688854952947727,0.543
0.0037542231275628723,0.544
0.0037391667688538325,0.545
0.003723723908979289,0.546
0.0037079028458526916,0.547
0.003691712526419485,0.548
0.003675162117352813,0.549
0.0036582605129492777,0.55
0.003641015937582202,0.551
0.003623435740596304,0.552
0.0036055264227708374,0.553
0.0035872938793273723,0.554
0.0035687437996858476,0.555
0.0035498821336131183,0.556
0.003530715519492383,0.557
0.0035112515717869055,0.558
0.003491498938693997,0.559
0.003471467067507817,0.56
0.003451165653256922,0.561
0.003430603785298492,0.562
0.003409788977067526,0.563
0.0033887266215698784,0.564
0.003367420388222336,0.565
0.003345873424955383,0.566
0.003324089800572136,0.567
0.0033020757868800227,0.568
0.0032798408139643187,0.569
0.0032573980092902347,0.57
0.0032347642677393335,0.571
0.003211959845766731,0.572
0.003189007528087067,0.573
0.003165931463946406,0.574
0.0031427557980291286,0.575
0.003119503367612767,0.576
0.003096194981307534,0.577
0.003072849528902351,0.578
0.003049484448384787,0.579
0.003026115908786389,0.58
0.0030027585217332836,0.581
0.0029794248229517762,0.582
0.0029561249184481913,0.583
0.00293286643254567,0.584
0.0029096546639653,0.585
0.002886493117631916,0.586
0.002863384656493754,0.587
0.0028403330788516444,0.588
0.0028173446565101287,0.589
0.0027944292517360246,0.59
0.002771600771421455,0.591
0.0027488768595656456,0.592
0.0027262778868311303,0.593
0.002703825432840282,0.594
0.0026815406905508652,0.595
0.002659443495199182,0.596
0.002637552346657437,0.597
0.002615884968818034,0.598
0.0025944587652777314,0.599
0.0025732909953681765,0.6
0.002552398783835622,0.601
0.0025317990974143573,0.602
0.0025115087943046845,0.603
0.002491544820087041,0.604
0.002471924576459626,0.605
0.0024526664190956766,0.606
0.00243379016232347,0.607
0.002415317416308513,0.608
0.002397271586712891,0.609
0.0023796774320700266,0.61
0.002362560181460852,0.611
0.0023459444752339425,0.612
0.002329853747497217,0.613
0.0023143104613278648,0.614
0.0022993368498830822,0.615
0.002284955564219781,0.616
0.002271189991566744,0.617
0.0022580642808166943,0.618
0.0022456031749208067,0.619
0.002233831754484108,0.62
0.002222775169296855,0.621
0.0022124583898551174,0.622
0.002202905968575031,0.623
0.0021941417783180915,0.624
0.0021861887028166377,0.625
0.00217906828180567,0.626
0.0021728003729918604,0.627
0.0021674029552803497,0.628
0.002162892122283427,0.629
0.0021592821379762873,0.63
0.0021565854220225683,0.631
0.0021548125151929966,0.632
0.002153972154578248,0.633
0.0021540714600060853,0.634
0.002155116106494655,0.635
0.002157110374951577,0.636
0.0021600570481360108,0.637
0.0021639572357069455,0.638
0.002168810368151464,0.639
0.002174614537201357,0.64
0.002181367068107539,0.641
0.00218906507479975,0.642
0.002197705831797727,0.643
0.002207286885666624,0.644
0.002217805897305157,0.645
0.0022292602769132734,0.646
0.002241646720987244,0.647
0.0022549607714627334,0.648
0.002269196488976014,0.649
0.002284346275319438,0.65
0.0023004008168053453,0.651
0.002317349075333322,0.652
0.0023351782427728104,0.653
0.0023538736226758348,0.654
0.0023734185204611746,0.655
0.002393794283641671,0.656
0.0024149805235245633,0.657
0.00243695542229778,0.658
0.0024596960459833256,0.659
0.002483178651989916,0.66
0.0025073789892881403,0.661
0.0025322725532283164,0.662
0.002557834716332812,0.663
0.002584040642319111,0.664
0.0026108649210957475,0.665
0.0026382809817596066,0.666
0.0026662605722354185,0.667
0.0026947736612301368,0.668
0.002723788751781134,0.669
0.0027532732091510616,0.67
0.0027831932706732106,0.671
0.0028135137006723822,0.672
0.0028441973170921743,0.673
0.0028752047532035257,0.674
0.0029064945835007515,0.675
0.0029380235644523365,0.676
0.0029697467639906894,0.677
0.0030016176290291177,0.678
0.003033588147137511,0.679
0.0030656091921349043,0.68
0.0030976310285137885,0.681
0.0031296038509169466,0.682
0.003161478191761955,0.683
0.0031932050392712956,0.684
0.003224735544367218,0.685
0.003256020276916557,0.686
0.0032870083498468105,0.687
0.0033176472440344064,0.688
0.003347883895181296,0.689
0.003377666616252742,0.69
0.003406947064075802,0.691
0.003435681770616869,0.692
0.0034638329570704156,0.693
0.0034913684218955917,0.694
0.0035182604259331365,0.695
0.0035444836581398844,0.696
0.0035700129096973747,0.697
0.003594821941471659,0.698
0.003618884500176379,0.699
0.0036421765632587196,0.7
0.0036646783038110776,0.701
0.0036863750922061602,0.702
0.003707257410539089,0.703
0.003727319759954762,0.704
0.003746558838401761,0.705
0.0037649714328197117,0.706
0.0037825526567219266,0.707
0.003799295145149782,0.708
0.0038151892061426633,0.709
0.0038302232983351493,0.71
0.0038443843939458483,0.711
0.003857658311948937,0.712
0.0038700302557696255,0.713
0.003881485665496648,0.714
0.003892011315759201,0.715
0.003901596426678501,0.716
0.003910233464830497,0.717
0.00391791831696824,0.718
0.003924649610261536,0.719
0.003930427152574264,0.72
0.003935250124505333,0.721
0.003939116497768429,0.722
0.003942024536414833,0.723
0.00394397544504429,0.724
0.0039449757379992016,0.725
0.003945038687523658,0.726
0.003944184706026697,0.727
0.003942440665532859,0.728
0.0039398382903636925,0.729
0.003936411870515936,0.73
0.003932195807100706,0.731
0.00392722293622811,0.732
0.003921524343971055,0.733
0.0039151302550017,0.734
0.003908070983579239,0.735
0.003900377435143983,0.736
0.0038920812142673876,0.737
0.003883214535266124,0.738
0.0038738100889091137,0.739
0.003863900945211395,0.74
0.0038535205042668943,0.741
0.003842702467146255,0.742
0.003831480789960834,0.743
0.0038198895896487182,0.744
0.0038079629658972908,0.745
0.003795734678862763,0.746
0.003783237592488784,0.747
0.0037705028928801823,0.748
0.00375755946832726,0.749
0.0037444340648632403,0.75
0.0037311523225387945,0.751
0.0037177400982941955,0.752
0.0037042244305401082,0.753
0.0036906338397000847,0.754
0.003676997904731279,0.755
0.0036633462238134045,0.756
0.003649707104070589,0.757
0.0036361065983157225,0.758
0.0036225683404517094,0.759
0.0036091139298115834,0.76
0.003595763233831881,0.761
0.00358253425769266,0.762
0.0035694426884458896,0.763
0.0035565015984420664,0.764
0.003543721751195545,0.765
0.0035311123932067557,0.766
0.0035186820529045128,0.767
0.003506439014882185,0.768
0.003494391375395172,0.769
0.0034825467165057293,0.77
0.0034709115143021934,0.771
0.003459490427780972,0.772
0.003448285634205335,0.773
0.0034372964014906925,0.774
0.003426518975954347,0.775
0.0034159466163006928,0.776
0.003405569572918107,0.777
0.0033953750709888385,0.778
0.0033853474500921293,0.779
0.0033754683753756815,0.78
0.003365716899962171,0.781
0.003356069430905856,0.782
0.003346500022298418,0.783
0.003336981324523587,0.784
0.0033274860549963575,0.785
0.0033179886440840006,0.786
0.003308466792671233,0.787
0.0032989027291563788,0.788
0.0032892839433412294,0.789
0.0032796031789662974,0.79
0.003269857519207814,0.791
0.0032600465388715754,0.792
0.003250170112268936,0.793
0.003240227378664305,0.794
0.0032302177717776523,0.795
0.0032201430921590035,0.796
0.003210009119892636,0.797
0.003199826248437023,0.798
0.0031896092386376742,0.799
0.003179376330006452,0.8
0.003169147994291931,0.801
0.003158945588326316,0.802
0.0031487900848616874,0.803
0.003138700994304547,0.804
0.0031286956344303953,0.805
0.0031187889498304503,0.806
0.0031089938647559223,0.807
0.003099321854380973,0.808
0.0030897834203230663,0.809
0.003080388320340292,0.81
0.003071145475831224,0.811
0.003062062532695997,0.812
0.003053145303587516,0.813
0.003044397671863437,0.814
0.0030358223269043964,0.815
0.003027421984124722,0.816
0.003019200469185106,0.817
0.003011163275670515,0.818
0.0030033174003775156,0.819
0.0029956704157430196,0.82
0.0029882292173439955,0.821
0.0029809995093595006,0.822
0.0029739866543062464,0.823
0.0029671971843992857,0.824
0.0029606399064883338,0.825
0.0029543261584491737,0.826
0.00294826921758177,0.827
0.0029424830341746072,0.828
0.0029369807721594298,0.829
0.002931774003466652,0.83
0.002926872995464942,0.831
0.0029222875372538638,0.832
0.0029180275734586652,0.833
0.0029141034608922488,0.834
0.002910525943896396,0.835
0.002907305931622092,0.836
0.0029044541081019977,0.837
0.0029019803572082024,0.838
0.0028998930851133033,0.839
0.002898198829076673,0.84
0.002896902567927989,0.841
0.002896008642184068,0.842
0.002895521810201717,0.843
0.002895448067593844,0.844
0.0028957950618750212,0.845
0.002896572052056778,0.846
0.002897789464692148,0.847
0.0028994581901395184,0.848
0.002901588811338993,0.849
0.0029041909409344853,0.85
0.0029072727649405213,0.851
0.002910840783798429,0.852
0.0029148996483491715,0.853
0.0029194519621159897,0.854
0.0029244980750903387,0.855
0.0029300361610260883,0.856
0.0029360628190261964,0.857
0.0029425740498548385,0.858
0.0029495662759319113,0.859
0.0029570371838927995,0.86
0.002964986269274637,0.861
0.002973415012042758,0.862
0.002982326662331995,0.863
0.002991725668256953,0.864
0.0030016168318913235,0.865
0.0030120043283338926,0.866
0.003022890758289087,0.867
0.003034276415752622,0.868
0.0030461588834093827,0.869
0.003058532923700682,0.87
0.00307139057396773,0.871
0.0030847213814488403,0.872
0.003098512668838694,0.873
0.003112749663749487,0.874
0.0031274154003728453,0.875
0.0031424905538768584,0.876
0.0031579535954178,0.877
0.003173781458639167,0.878
0.003189950464821423,0.879
0.003206437131377727,0.88
0.003223218651656673,0.881
0.0032402729641069074,0.882
0.00325757839925289,0.883
0.0032751129543725234,0.884
0.0032928533500958547,0.885
0.0033107742262583873,0.886
0.0033288478720098795,0.887
0.0033470444525403667,0.888
0.003365332237315529,0.889
0.0033836774710031036,0.89
0.003402044106172365,0.891
0.0034203939975163545,0.892
0.0034386878437062548,0.893
0.0034568865192377623,0.894
0.003474952246048207,0.895
0.0034928492479759116,0.896
0.0035105436838669935,0.897
0.0035280027567211737,0.898
0.003545193301945637,0.899
0.003562080942520048,0.9
0.003578630869838711,0.901
0.003594809993822531,0.902
0.0036105893273904355,0.903
0.0036259457780365234,0.904
0.0036408629993777697,0.905
0.0036553311855213855,0.906
0.0036693458732942525,0.907
0.0036829059935628286,0.908
0.003696011533162731,0.909
0.0037086613856335423,0.91
0.0037208522074921465,0.911
0.00373257855829081,0.912
0.0037438335879800616,0.913
0.0037546094885498506,0.914
0.0037648976151224384,0.915
0.0037746885299803153,0.916
0.0037839722272149773,0.917
0.003792738699661129,0.918
0.0038009788511470036,0.919
0.003808685600509424,0.92
0.0038158549171889837,0.921
0.0038224864883365656,0.922
0.0038285837446094253,0.923
0.0038341530627776536,0.924
0.003839202128033339,0.925
0.0038437380213955396,0.926
0.003847766427858125,0.927
0.0038512928242695134,0.928
0.003854324760597148,0.929
0.0038568738505978493,0.93
0.0038589568723110734,0.931
0.003860595876237085,0.932
0.0038618173375339327,0.933
0.003862650506982122,0.934
0.0038631252975169146,0.935
0.003863270471516841,0.936
0.003863113118399846,0.937
0.003862679595775646,0.938
0.0038619970091149244,0.939
0.003861094320486856,0.94
0.003860002823455529,0.941
0.0038587560376118807,0.942
0.0038573891459334933,0.943
0.003855938134572842,0.944
0.0038544387940068685,0.945
0.0038529257115302875,0.946
0.0038514313407023494,0.947
0.0038499852550607067,0.948
0.0038486137969373736,0.949
0.003847340248559326,0.95
0.003846185370142328,0.951
0.0038451680771124817,0.952
0.003844306164521261,0.953
0.0038436170362999775,0.954
0.003843118356372582,0.955
0.003842828506628708,0.956
0.0038427667460367325,0.957
0.0038429530242407844,0.958
0.003843407486820471,0.959
0.0038441497750717614,0.96
0.003845198241068148,0.961
0.0038465691694658734,0.962
0.003848276095300714,0.963
0.0038503293901474434,0.964
0.0038527362702728486,0.965
0.003855501136146302,0.966
0.003858625986297801,0.967
0.0038621107520903602,0.968
0.0038659535615876467,0.969
0.0038701510013881635,0.97
0.0038746984239206813,0.971
0.003879590280113293,0.972
0.003884820385559539,0.973
0.003890381997319789,0.974
0.0038962676041734514,0.975
0.0039024684006594905,0.976
0.003908973524666041,0.977
0.0039157693367884465,0.978
0.003922839138247827,0.979
0.003930163417197627,0.98
0.003937720266807664,0.981
0.003945485632094282,0.982
0.00395343332927483,0.983
0.003961534908001663,0.984
0.003969759420021412,0.985
0.003978073135661505,0.986
0.003986439236888051,0.987
0.003994817521780439,0.988
0.004003164175210437,0.989
0.00401143168314167,0.99
0.00401956897593135,0.991
0.004027521860221226,0.992
0.004035233734558265,0.993
0.004042646498196792,0.994
0.004049701484029815,0.995
0.004056340199136137,0.996
0.004062504651712145,0.997
0.004068137079760558,0.998
0.004073179045489971,0.999
0.0040775704051012295,1.0
0.00408124930652387,1.001
0.004084153897220537,1.002
0.004086225115984306,1.003
0.004087409502022109,1.004
0.004087661353596586,1.005
0.0040869438262413505,1.006
0.004085228680720782,1.007
0.004082494581928727,1.008
0.0040787241644453884,1.009
0.004073900983432908,1.01
0.004068008473262303,1.011
0.004061031943960499,1.012
0.004052962134408039,1.013
0.004043798318629827,1.014
0.004033550140370649,1.015
0.004022238033169679,1.016
0.004009892271446317,1.017
0.003996550871296076,1.018
0.003982256683527193,1.019
0.003967054233044703,1.02
0.003950987313896316,1.021
0.003934098348444692,1.022
0.003916429361040137,1.023
0.0038980233423313096,1.024
0.0038789250659052245,1.025
0.0038591811927495847,1.026
0.0038388398181069877,1.027
0.0038179496759677732,1.028
0.003796559238903114,1.029
0.0037747159263279116,1.03
0.0037524655715678087,1.031
0.0037298522137015904,1.032
0.00370691819038978,1.033
0.0036837044340871225,1.034
0.003660250840048496,1.035
0.0036365965886872597,1.036
0.0036127803481756666,1.037
0.003588840322673667,1.038
0.003564814125502313,1.039
0.003540738446282107,1.04
0.0035166484664321766,1.041
0.0034925771678231484,1.042
0.003468555093293268,1.043
0.0034446109872942727,1.044
0.003420772971899091,1.045
0.003397069604174268,1.046
0.003373530472934662,1.047
0.0033501862569072795,1.048
0.003327068297145914,1.049
0.003304207840373855,1.05
0.003281635155499977,1.051
0.0032593787056108816,1.052
0.003237464503920085,1.053
0.0032159157374386437,1.054
0.0031947526774145233,1.055
0.003173992787297475,1.056
0.0031536508831133325,1.057
0.003133739243155537,1.058
0.003114267618241393,1.059
0.0030952431390335244,1.06
0.003076670212115751,1.061
0.0030585505720937523,1.062
0.0030408835625612193,1.063
0.0030236665452664045,1.064
0.003006895291583113,1.065
0.002990564254219249,1.066
0.002974666632541542,1.067
0.0029591941509562957,1.068
0.00294413663450428,1.069
0.0029294818005100205,1.07
0.0029152156366525515,1.071
0.0029013231790225697,1.072
0.0028877892316163086,1.073
0.002874598787933595,1.074
0.0028617371366028003,1.075
0.0028491897184847936,1.076
0.0028369418340509025,1.077
0.0028249782849771006,1.078
0.0028132829807142002,1.079
0.0028018384766610024,1.08
0.00279062549412028,1.081
0.002779622761816521,1.082
0.002768807526190507,1.083
0.0027581566227418944,1.084
0.002747647731621851,1.085
0.0027372605563222067,1.086
0.0027269777767303396,1.087
0.0027167856417394604,1.088
0.002706674068305685,1.089
0.00269663613504514,1.09
0.0026866669203188358,1.091
0.0026767619622493754,1.092
0.0026669162618803894,1.093
0.0026571247129202947,1.094
0.0026473837061876592,1.095
0.002637692900396037,1.096
0.0026280564777391787,1.097
0.0026184836973869347,1.098
0.002608988758548677,1.099
0.0025995900663033245,1.1
0.002590309048439545,1.101
0.002581168712655271,1.102
0.0025721921644926414,1.103
0.002563401355561912,1.104
0.002554816338830464,1.105
0.0025464550591713193,1.106
0.0025383333862664726,1.107
0.002530465168676345,1.108
0.002522862389756811,1.109
0.002515535607876294,1.11
0.002508494766124399,1.111
0.002501750308806981,1.112
0.002495314404022596,1.113
0.002489201981383025,1.114
0.002483431287348754,1.115
0.0024780237604177754,1.116
0.0024730032127125634,1.117
0.0024683945011379394,1.118
0.002464222097018186,1.119
0.0024605091450074414,1.12
0.002457277293616265,1.121
0.0024545469044759665,1.122
0.002452337085684159,1.123
0.0024506654233220205,1.124
0.00244954766808186,1.125
0.0024489976629158503,1.126
0.002449027518399177,1.127
0.002449647811149054,1.128
0.002450867642611922,1.129
0.0024526945409286045,1.13
0.0024551342468474447,1.131
0.00245819048571263,1.132
0.0024618648905708205,1.133
0.002466157145091626,1.134
0.002471065235550124,1.135
0.0024765856897330414,1.136
0.0024827137858794103,1.137
0.0024894437574848657,1.138
0.002496769004038214,1.139
0.00250468229311829,1.14
0.002513175918622295,1.141
0.0025222417738710984,1.142
0.0025318713139945194,1.143
0.0025420554136467537,1.144
0.002552784153764094,1.145
0.002564046578622712,1.146
0.00257583045395018,1.147
0.0025881220413901678,1.148
0.002600905895929579,1.149
0.0026141646954552272,1.15
0.0026278791200445508,1.151
0.002642027801867837,1.152
0.002656587358556422,1.153
0.002671532506485942,1.154
0.0026868362300819845,1.155
0.0027024699573202212,1.156
0.002718403658771423,1.157
0.002734605760906932,1.158
0.002751042881082704,1.159
0.0027676797220661134,1.16
0.0027844795535489266,1.161
0.0028014052817419,1.162
0.0028184207406554275,1.163
0.0028354918757818788,1.164
0.0028525876357788807,1.165
0.002869680474505328,1.166
0.0028867464294062323,1.167
0.00290376478835645,1.168
0.002920717392823443,1.169
0.002937587666316778,1.17
0.002954359496299943,1.171
0.0029710161047052787,1.172
0.0029875390793429055,1.173
0.003003907855465146,1.174
0.0030200998661368455,1.175
0.003036091240761657,1.176
0.0030518577575455695,1.177
0.003067375861135602,1.178
0.0030826236511527355,1.179
0.0030975817668647382,1.18
0.003112234107412629,1.181
0.003126568337199825,1.182
0.0031405761297353192,1.183
0.0031542531096614384,1.184
0.0031675984656759797,1.185
0.0031806142271955844,1.186
0.0031933042290735294,1.187
0.003205672831328395,1.188
0.003217723578628188,1.189
0.003229458227519578,1.19
0.0032408765938640306,1.191
0.003251977184126048,1.192
0.003262758131572357,1.193
0.003273218065290961,1.194
0.0032833568074236742,1.195
0.003293175867619421,1.196
0.00330267869494112,1.197
0.003311870658767065,1.198
0.0033207587625087554,1.199
0.0033293511428643748,1.2
0.003337656460871792,1.201
0.0033456833275440617,1.202
0.0033534399020202156,1.203
0.0033609337422419263,1.204
0.003368171892323947,1.205
0.003375161096581883,1.206
0.0033819079771057934,1.207
0.003388419013672165,1.208
0.003394700208552156,1.209
0.0034007564043493825,1.21
0.003406590505538436,1.211
0.00341220323508237,1.212
0.0034175938185048624,1.213
0.0034227612185310343,1.214
0.0034277053127934995,1.215
0.003432427730738819,1.216
0.00343693227984164,1.217
0.003441224958555238,1.218
0.003445313603066141,1.219
0.003449207237590634,1.22
0.003452915200835474,1.221
0.0034564461210680473,1.222
0.003459806888232021,1.223
0.0034630019379313297,1.224
0.0034660330939607752,1.225
0.0034688997819622078,1.226
0.0034715991603068773,1.227
0.0034741259570473873,1.228
0.0034764722548224275,1.229
0.0034786276352666958,1.23
0.0034805797422065962,1.231
0.00348231487797544,1.232
0.003483818214998048,1.233
0.0034850734736564843,1.234
0.0034860623831290487,1.235
0.003486764701023747,1.236
0.003487159259347348,1.237
0.0034872256269074873,1.238
0.0034869456959660313,1.239
0.0034863048075325304,1.24
0.0034852922477840304,1.241
0.003483901047524818,1.242
0.003482127122886955,1.243
0.0034799678840657174,1.244
0.0034774205856598376,1.245
0.003474481027771144,1.246
0.0034711433462153523,1.247
0.003467400986869889,1.248
0.0034632481860621543,1.249
0.0034586812986418403,1.25
0.00345369972109646,1.251
0.0034483063381721066,1.252
0.003442507470282001,1.253
0.0034363123467654106,1.254
0.0034297321621579793,1.255
0.0034227787939857418,1.256
0.0034154633881275046,1.257
0.003407795339706086,1.258
0.003399782250437899,1.259
0.003391430829495913,1.26
0.0033827481370076714,1.261
0.00337374268502155,1.262
0.003364425235311309,1.263
0.0033548092350138563,1.264
0.0033449108387044106,1.265
0.0033347484990986346,1.266
0.003324342165492779,1.267
0.0033137121916236574,1.268
0.003302878107718848,1.269
0.0032918575508873583,1.27
0.003280665812766009,1.271
0.0032693161982165113,1.272
0.0032578208451399565,1.273
0.003246191583403752,1.274
0.0032344406891396654,1.275
0.0032225814971636063,1.276
0.003210628816664706,1.277
0.0031985990998301557,1.278
0.0031865103341062037,1.279
0.003174381655441294,1.28
0.003162232711279373,1.281
0.0031500828424850746,1.282
0.003137950192251817,1.283
0.003125850902823132,1.284
0.0031137986204705505,1.285
0.003101804434269939,1.286
0.0030898771232650292,1.287
0.003078023498277325,1.288
0.0030662487654894593,1.289
0.0030545569549994367,1.29
0.0030429514541421066,1.291
0.0030314356284393603,1.292
0.0030200134533726187,1.293
0.0030086900492237844,1.294
0.0029974720189536275,1.295
0.002986367517466508,1.296
0.00297538600674137,1.297
0.0029645376721966848,1.298
0.002953832507432866,1.299
0.0029432792855538484,1.3
0.0029328850067181027,1.301
0.0029226552444186465,1.302
0.002912595061579209,1.303
0.0029027098918943625,1.304
0.002893006110218505,1.305
0.0028834912447967074,1.306
0.0028741738135907506,1.307
0.002865062781236223,1.308
0.002856166677859329,1.309
0.002847492632514217,1.31
0.002839045869780094,1.311
0.0028308299515649674,1.312
0.0028228473393380905,1.313
0.0028150997344165503,1.314
0.002807588069300325,1.315
0.0028003122613307675,1.316
0.002793270870500107,1.317
0.002786460784564802,1.318
0.0027798770087642025,1.319
0.0027735125935327387,1.32
0.002767358706118604,1.321
0.002761404837196205,1.322
0.00275563911847901,1.323
0.0027500486986358806,1.324
0.0027446200827131633,1.325
0.0027393393061486866,1.326
0.002734191811828166,1.327
0.0027291620059484967,1.328
0.002724232814876047,1.329
0.002719385852670522,1.33
0.002714602448186069,1.331
0.0027098651128082346,1.332
0.002705158889911393,1.333
0.0027004722887957874,1.334
0.002695797688830076,1.335
0.0026911311976531367,1.336
0.002686472031495521,1.337
0.00268182153218443,1.338
0.0026771819416283706,1.339
0.0026725551266153615,1.34
0.0026679416802310968,1.341
0.0026633408522201054,1.342
0.0026587512428866947,1.343
0.0026541717226389624,1.344
0.002649602163311229,1.345
0.0026450439010305073,1.346
0.0026404999956052616,1.347
0.002635975361467085,1.348
0.002631476803670879,1.349
0.002627012934465308,1.35
0.0026225939174588167,1.351
0.002618231007995324,1.352
0.002613935914988649,1.353
0.0026097200676144894,1.354
0.002605593902278716,1.355
0.0026015662807349843,1.356
0.0025976441140606807,1.357
0.0025938322158269517,1.358
0.002590133359541745,1.359
0.002586548477058399,1.36
0.0025830769044515693,1.361
0.002579716565265718,1.362
0.0025764639889213074,1.363
0.002573314119285541,1.364
0.002570260057093097,1.365
0.0025672931056385955,1.366
0.0025644033732380965,1.367
0.0025615807991004416,1.368
0.0025588163276038835,1.369
0.0025561030439003817,1.37
0.002553437097931109,1.371
0.0025508182127645836,1.372
0.002548249607892477,1.373
0.0025457372826054544,1.374
0.0025432887649594516,1.375
0.0025409116422263917,1.376
0.002538612428421222,1.377
0.0025363962358192584,1.378
0.002534267136409115,1.379
0.0025322287076648,1.38
0.002530284477590904,1.381
0.002528438291775166,1.382
0.002526694650158842,1.383
0.0025250589714158017,1.384
0.0025235376977350336,1.385
0.00252213817884267,1.386
0.002520868348859526,1.387
0.0025197362863421707,1.388
0.0025187497869596787,1.389
0.002517916061756727,1.39
0.0025172416047017964,1.391
0.002516732171556494,1.392
0.0025163927160487473,1.393
0.0025162271220951133,1.394
0.0025162378402352335,1.395
0.0025164259379601398,1.396
0.002516791898267865,1.397
0.0025173368057183182,1.398
0.002518063301437874,1.399
0.0025189759638865636,1.4
0.0025200810538196236,1.401
0.0025213857654488576,1.402
0.0025228972807567643,1.403
0.00252462195605356,1.404
0.0025265648608816527,1.405
0.002528729695891116,1.406
0.0025311189383208916,1.407
0.0025337339837660914,1.408
0.002536575091077068,1.409
0.0025396410842284827,1.41
0.002542929013592419,1.411
0.002546434132932395,1.412
0.002550150332407789,1.413
0.0025540708237854867,1.414
0.002558188834753587,1.415
0.0025624982004575515,1.416
0.0025669937742845723,1.417
0.0025716715715835663,1.418
0.0025765286002529305,1.419
0.0025815624147488207,1.42
0.002586770515874374,1.421
0.0025921497641940316,1.422
0.0025976959597387925,1.423
0.0026034036706597675,1.424
0.002609266289737305,1.425
0.0026152761943511404,1.426
0.0026214248294412993,1.427
0.0026277025613046755,1.428
0.002634098290482382,1.429
0.002640599043815779,1.43
0.002647189848393378,1.431
0.002653853911694271,1.432
0.0026605728273685764,1.433
0.0026673265832583776,1.434
0.0026740933734423823,1.435
0.0026808493389042713,1.436
0.0026875683986308774,1.437
0.0026942223241228215,1.438
0.0027007811513296235,1.439
0.002707213932764524,1.44
0.00271348973809203,1.441
0.0027195787380251643,1.442
0.0027254531701445595,1.443
0.0027310880000389606,1.444
0.0027364611610029323,1.445
0.0027415533571190035,1.446
0.002746347500252972,1.447
0.0027508278821944377,1.448
0.0027549791586278637,1.449
0.00275878528235063,1.45
0.002762228798743974,1.451
0.002765291000292969,1.452
0.002767952942878618,1.453
0.0027701968402515766,1.454
0.0027720074144259293,1.455
0.002773373015218837,1.456
0.002774286395129824,1.457
0.002774745038455939,1.458
0.002774750985580405,1.459
0.0027743101512171823,1.46
0.0027734311861583763,1.461
0.002772123968789057,1.462
0.002770398047330395,1.463
0.00276826179448466,1.464
0.0027657228096630957,1.465
0.002762789120470676,1.466
0.0027594703447822804,1.467
0.0027557783943647114,1.468
0.0027517276442878776,1.469
0.0027473345905028057,1.47
0.0027426170674661274,1.471
0.0027375931364269,1.472
0.002732279915234528,1.473
0.002726692874661875,1.474
0.0027208459106251555,1.475
0.0027147518333388815,1.476
0.002708422711007186,1.477
0.002701869848206464,1.478
0.0026951034241851322,1.479
0.002688131973916598,1.48
0.002680962147769612,1.481
0.0026735990966638215,1.482
0.002666047305152074,1.483
0.0026583114353277777,1.484
0.0026503969074376976,1.485
0.0026423101041734127,1.486
0.0026340581580757546,1.487
0.002625648342646058,1.488
0.002617087224838997,1.489
0.0026083800323274853,1.49
0.0025995307713844694,1.491
0.002590543136574907,1.492
0.0025814217368359477,1.493
0.002572173193390146,1.494
0.002562806916469473,1.495
0.0025533354820740438,1.496
0.0025437745678329464,1.497
0.002534142440692996,1.498
0.00252445902384447,1.499
0.002514744651150479,1.5
0.002505018888164532,1.501
0.0024953000557977074,1.502
0.00248560566851904,1.503
0.0024759532190251217,1.504
0.0024663606825091177,1.505
0.002456846582586016,1.506
0.0024474297180491597,1.507
0.002438128702424469,1.508
0.0024289614703603794,1.509
0.0024199448554949386,1.51
0.0024110942692300735,1.511
0.002402423447515052,1.512
0.0023939442297369676,1.513
0.0023856664173167405,1.514
0.0023775978259377344,1.515
0.0023697445561850416,1.516
0.002362111366041468,1.517
0.0023547020097716455,1.518
0.0023475194629125895,1.519
0.002340565987347406,1.52
0.0023338430122588102,1.521
0.002327350830366555,1.522
0.002321088205978341,1.523
0.0023150521794971656,1.524
0.0023092383179474604,1.525
0.002303641317873715,1.526
0.002298255674965804,1.527
0.0022930762237781325,1.528
0.0022880984478920855,1.529
0.0022833185091090005,1.53
0.0022787330040390345,1.531
0.002274338512529507,1.532
0.002270131025260376,1.533
0.002266105356182222,1.534
0.0022622547255230522,1.535
0.002258570723815757,1.536
0.002255043655758308,1.537
0.002251663021711687,1.538
0.002248417912391899,1.539
0.002245297240291605,1.54
0.0022422898160440047,1.541
0.002239384311155248,1.542
0.002236569153572049,1.543
0.0022338323681039174,1.544
0.002231161313701628,1.545
0.0022285422989399995,1.546
0.0022259603042369858,1.547
0.0022233992140553117,1.548
0.0022208426502730873,1.549
0.0022182750401109667,1.55
0.0022156824891983455,1.551
0.0022130532068311433,1.552
0.002210377352889914,1.553
0.0022076462684398907,1.554
0.002204851355805199,1.555
0.002201983395200097,1.556
0.0021990329747927405,1.557
0.0021959917615359723,1.558
0.00219285383160322,1.559
0.0021896166099904394,1.56
0.0021862813288364385,1.561
0.0021828530319869467,1.562
0.002179340198052992,1.563
0.002175754072786309,1.564
0.002172107794764339,1.565
0.00216841537732304,1.566
0.0021646906551598733,1.567
0.0021609465068274753,1.568
0.002157194753922462,1.569
0.0021534467563463443,1.57
0.002149714272871156,1.571
0.00214601018923325,1.572
0.0021423489849003137,1.573
0.0021387469514661432,1.574
0.0021352222256574177,1.575
0.002131794715330082,1.576
0.002128485968322344,1.577
0.002125318981500262,1.578
0.002122317904856595,1.579
0.0021195075873219945,1.58
0.0021169129376992016,1.581
0.002114558188450001,1.582
0.0021124663692786427,1.583
0.002110659301228543,1.584
0.0021091580166149215,1.585
0.0021079831873894905,1.586
0.0021071552538664633,1.587
0.0021066941867852297,1.588
0.002106619002159467,1.589
0.002106947333210817,1.59
0.0021076953171092444,1.591
0.002108877669838481,1.592
0.002110507666543128,1.593
0.0021125971353221293,1.594
0.002115156818669591,1.595
0.002118197113781819,1.596
0.002121728854040821,1.597
0.002125763835437034,1.598
0.0021303149558146214,1.599
0.002135395938137255,1.6
0.0021410206887625917,1.601
0.0021472024829911414,1.602
0.0021539533667370783,1.603
0.002161284074437485,1.604
0.002169204294284134,1.605
0.0021777228404171855,1.606
0.0021868474952885554,1.607
0.0021965846695085863,1.608
0.0022069392795149756,1.609
0.0022179150394470385,1.61
0.0022295148946911278,1.611
0.0022417412330287025,1.612
0.0022545957497882717,1.613
0.0022680790517316017,1.614
0.0022821902933261337,1.615
0.002296927209803394,1.616
0.002312286598802935,1.617
0.00232826494659356,1.618
0.0023448588992255417,1.619
0.00236206545752963,1.62
0.002379881882157221,1.621
0.002398305363262066,1.622
0.002417332571265691,1.623
0.0024369592311970978,1.624
0.002457179840812025,1.625
0.0024779875931793503,1.626
0.002499374489373184,1.627
0.002521331557747022,1.628
0.0025438490540976846,1.629
0.0025669165181493787,1.63
0.002590522604082549,1.631
0.0026146546804212893,1.632
0.0026392983728555025,1.633
0.0026644374171540487,1.634
0.0026900540153829205,1.635
0.0027161294469492704,1.636
0.002742644574464031,1.637
0.0027695800985755286,1.638
0.002796916587359961,1.639
0.002824634390198117,1.64
0.002852713579454368,1.641
0.0028811340300282516,1.642
0.0029098756702310444,1.643
0.002938918857261634,1.644
0.002968244774172247,1.645
0.00299783571683047,1.646
0.0030276751329135383,1.647
0.0030577472912434664,1.648
0.003088036509683079,1.649
0.003118526116583879,1.65
0.0031491977729832593,1.651
0.003180031716440904,1.652
0.0032110076854541007,1.653
0.0032421058208110384,1.654
0.003273307117874866,1.655
0.00330459334841457,1.656
0.0033359465071832665,1.657
0.0033673478977020157,1.658
0.0033987771128986904,1.659
0.0034302113817370377,1.66
0.003461625547807369,1.661
0.0034929923048380093,1.662
0.0035242821685272873,1.663
0.003555463313370699,1.664
0.003586501933367896,1.665
0.0036173634409425275,1.666
0.0036480141207594088,1.667
0.00367842267944998,1.668
0.0037085613429818664,1.669
0.003738406293595645,1.67
0.0037679373128060556,1.671
0.003797136586477007,1.672
0.0038259869044296765,1.673
0.003854470174622373,1.674
0.003882567500479473,1.675
0.003910261025412472,1.676
0.003937536431775685,1.677
0.003964384956796267,1.678
0.003990804459038053,1.679
0.004016799459582332,1.68
0.004042380266244464,1.681
0.004067561433817406,1.682
0.004092359884936332,1.683
0.004116793001348387,1.684
0.004140876908385681,1.685
0.004164625146552204,1.686
0.004188048002347305,1.687
0.004211152619392634,1.688
0.00423394362887734,1.689
0.004256423970068528,1.69
0.0042785957967269765,1.691
0.0043004614672774635,1.692
0.00432202457990483,1.693
0.004343290960314995,1.694
0.004364269466458267,1.695
0.004384972456149165,1.696
0.004405415776320567,1.697
0.00442561817055572,1.698
0.004445600055794347,1.699
0.004465381785408708,1.7
0.004484982053309407,1.701
0.0045044175668141504,1.702
0.0045237043912240826,1.703
0.0045428600407355175,1.704
0.004561905182786813,1.705
0.004580864458206915,1.706
0.0045997663196043976,1.707
0.004618641975631188,1.708
0.004637523700420125,1.709
0.004656442875876905,1.71
0.004675428247221131,1.711
0.004694504923535589,1.712
0.004713694233829249,1.713
0.004733013960570206,1.714
0.004752478561070274,1.715
0.004772099451370545,1.716
0.004791885550870712,1.717
0.004811844141043549,1.718
0.004831981922187164,1.719
0.00485230602344463,1.72
0.004872824670059284,1.721
0.0048935472501445325,1.722
0.004914483639412006,1.723
0.00493564284074555,1.724
0.004957031480983426,1.725
0.004978653238157189,1.726
0.005000509743994983,1.727
0.005022602240978562,1.728
0.005044933004373131,1.729
0.0050675061452186395,1.73
0.005090327765089197,1.731
0.005113405517200722,1.732
0.0051367476790902455,1.733
0.005160361855208743,1.734
0.005184253504779293,1.735
0.0052084247817770135,1.736
0.00523287432037409,1.737
0.005257598041773626,1.738
0.005282590359377263,1.739
0.005307845186906682,1.74
0.005333356542344212,1.741
0.0053591187099382345,1.742
0.00538512597037343,1.743
0.005411371983256377,1.744
0.005437848976247713,1.745
0.005464546910751207,1.746
0.005491452731747076,1.747
0.005518549697342877,1.748
0.005545816782020598,1.749
0.005573228378180228,1.75
0.00560075461373142,1.751
0.0056283622442686665,1.752
0.005656015732728693,1.753
0.005683678181986522,1.754
0.005711311987517885,1.755
0.0057388792084811764,1.756
0.005766341718165132,1.757
0.005793661193354638,1.758
0.005820798946164131,1.759
0.0058477155314834925,1.76
0.0058743700225712975,1.761
0.005900718909093895,1.762
0.0059267149897274645,1.763
0.005952307202215434,1.764
0.005977441983340773,1.765
0.006002065626604964,1.766
0.006026126712271863,1.767
0.006049578039803309,1.768
0.006072377718302857,1.769
0.006094489167177192,1.77
0.006115879932707109,1.771
0.00613651939039234,1.772
0.006156375950649971,1.773
0.006175415392134317,1.774
0.006193601700305158,1.775
0.006210899809267856,1.776
0.006227278539303036,1.777
0.006242712654274341,1.778
0.006257183697283931,1.779
0.006270679553728507,1.78
0.006283192890034476,1.781
0.0062947187906260285,1.782
0.006305252014550108,1.783
0.00631478445959436,1.784
0.006323303655045331,1.785
0.006330792713893283,1.786
0.006337231235179792,1.787
0.0063425964191380175,1.788
0.006346864190434055,1.789
0.006350010437579139,1.79
0.006352012404164197,1.791
0.006352850096810641,1.792
0.006352507427867375,1.793
0.006350972748385988,1.794
0.0063482384735217565,1.795
0.006344299639215262,1.796
0.0063391515126317,1.797
0.006332787172776956,1.798
0.006325196786569198,1.799
0.006316369354507869,1.8
0.006306295661087466,1.801
0.0062949707842053,1.802
0.006282395502248489,1.803
0.00626857652232111,1.804
0.006253525630380675,1.805
0.006237257999788954,1.806
0.0062197899669256314,1.807
0.006201136591045095,1.808
0.006181309486959299,1.809
0.0061603157241898335,1.81
0.00613815815229143,1.811
0.006114836518665346,1.812
0.006090348642234687,1.813
0.0060646915248261804,1.814
0.00603786254663982,1.815
0.0060098608080685085,1.816
0.005980688540421736,1.817
0.0059503523715253425,1.818
0.005918864150729976,1.819
0.005886241039499144,1.82
0.005852504654107499,1.821
0.0058176791823098565,1.822
0.005781788813458635,1.823
0.005744855733926225,1.824
0.005706900217066914,1.825
0.005667942860981083,1.826
0.0056280074741794335,1.827
0.005587123277380379,1.828
0.005545325982958825,1.829
0.005502657762719244,1.83
0.0054591662931534335,1.831
0.00541490320177916,1.832
0.005369922298627357,1.833
0.005324277941663391,1.834
0.005278023756873933,1.835
0.00523121175062757,1.836
0.005183891673926348,1.837
0.005136110380935448,1.838
0.005087911152153069,1.839
0.0050393335995865185,1.84
0.0049904148186872225,1.841
0.004941191532125502,1.842
0.004891702392826112,1.843
0.004841989802882598,1.844
0.004792100870869388,1.845
0.004742087329926013,1.846
0.004692004461192676,1.847
0.004641909242722458,1.848
0.004591858170987137,1.849
0.004541905599677767,1.85
0.004492103416706654,1.851
0.0044425019126041,1.852
0.004393150835989696,1.853
0.004344099872172166,1.854
0.004295398414983284,1.855
0.004247094798527082,1.856
0.004199235263449204,1.857
0.004151863061149989,1.858
0.004105018094029045,1.859
0.004058737101899404,1.86
0.004013053997976226,1.861
0.0039680000496956835,1.862
0.0039236039029377275,1.863
0.0038798915424871966,1.864
0.0038368862351577443,1.865
0.003794608446574758,1.866
0.003753075687673416,1.867
0.0037123023067131616,1.868
0.003672299411480359,1.869
0.003633075126513761,1.87
0.0035946351556478107,1.871
0.003556983465886043,1.872
0.0035201229637435967,1.873
0.0034840560961843883,1.874
0.0034487853059810875,1.875
0.003414313253253642,1.876
0.0033806427034435687,1.877
0.003347775997600067,1.878
0.0033157142124045505,1.879
0.0032844565500363726,1.88
0.0032540005726335417,1.881
0.0032243432181869123,1.882
0.003195481955935434,1.883
0.00316741558429696,1.884
0.0031401445338610154,1.885
0.003113670705288476,1.886
0.0030879969308229343,1.887
0.003063126173175717,1.888
0.0030390605707013877,1.889
0.003015800535771913,1.89
0.002993344328030755,1.891
0.002971688366630197,1.892
0.002950828003051503,1.893
0.0029307583101594857,1.894
0.002911474698619234,1.895
0.0028929733369792376,1.896
0.0028752513746567038,1.897
0.0028583069574208645,1.898
0.0028421390034875874,1.899
0.0028267467118113453,1.9
0.002812128824942323,1.901
0.0027982827891849566,1.902
0.0027852041106711588,1.903
0.0027728861461062348,1.904
0.0027613202023355097,1.905
0.002750495597225208,1.906
0.002740399520594691,1.907
0.002731016805358198,1.908
0.0027223298211481715,1.909
0.0027143186753989224,1.91
0.0027069618105776314,1.911
0.002700236955542425,1.912
0.0026941222632982822,1.913
0.0026885973779676303,1.914
0.00268364414260351,1.915
0.002679246698351387,1.916
0.002675390833917859,1.917
0.002672062762592023,1.918
0.0026692481009363833,1.919
0.0026669319435281055,1.92
0.002665099995597102,1.921
0.0026637398550816,1.922
0.0026628417078417496,1.923
0.0026623982550543993,1.924
0.0026624039794759,1.925
0.002662853975668977,1.926
0.0026637426831586392,1.927
0.0026650629650873305,1.928
0.002666805800733439,1.929
0.0026689603687394055,1.93
0.002671514055346521,1.931
0.0026744522400642535,1.932
0.002677758140333484,1.933
0.002681412943153047,1.934
0.0026853960259280887,1.935
0.0026896849716396927,1.936
0.002694255508755338,1.937
0.0026990818702235606,1.938
0.0027041378323384136,1.939
0.00270939816343948,1.94
0.002714840025201628,1.941
0.002720443984862156,1.942
0.002726194399617889,1.943
0.0027320790258255605,1.944
0.0027380878369459706,1.945
0.002744211392259422,1.946
0.0027504397249004083,1.947
0.0027567626566171685,1.948
0.002763171295815607,1.949
0.0027696596953818552,1.95
0.0027762259640180626,1.951
0.002782872627672596,1.952
0.0027896062423591757,1.953
0.0027964363533588455,1.954
0.0028033739685151423,1.955
0.0028104299205228833,1.956
0.0028176138391259493,1.957
0.0028249342157126715,1.958
0.0028323991196832423,1.959
0.002840016716144353,1.96
0.0028477951445549307,1.961
0.0028557418488982314,1.962
0.00286386293828394,1.963
0.0028721632947901954,1.964
0.0028806474905630603,1.965
0.0028893208397532577,1.966
0.00289818992098002,1.967
0.0029072623035609566,1.968
0.0029165455974589426,1.969
0.0029260464879697465,1.97
0.0029357706751829884,1.971
0.002945723917422227,1.972
0.0029559134467951526,1.973
0.002966349022625538,1.974
0.0029770433939381117,1.975
0.0029880122114933814,1.976
0.00299927350484952,1.977
0.0030108468643101553,1.978
0.003022752448495882,1.979
0.0030350098968120872,1.98
0.0030476373210173136,1.981
0.0030606508129233925,1.982
0.0030740647896169717,1.983
0.00308789291367688,1.984
0.003102149078259785,1.985
0.0031168481631374026,1.986
0.0031320064364538766,1.987
0.0031476415394392967,1.988
0.003163772073786197,1.989
0.003180416902839423,1.99
0.003197594335304363,1.991
0.003215321352004826,1.992
0.0032336129662963757,1.993
0.0032524817390837198,1.994
0.0032719374956934125,1.995
0.0032919873623257117,1.996
0.0033126361630827178,1.997
0.0033338870388550934,1.998
0.0033557420828301686,1.999
0.003378202826037917,2.0
0.003401270450453088,2.001
0.0034249456652562546,2.002
0.0034492282599133325,2.003
0.0034741164171770114,2.004
0.0034996059779481017,2.005
0.0035256899759236425,2.006
0.003552358606435095,2.007
0.0035795994098558443,2.008
0.0036073973679331284,2.009
0.0036357348504738704,2.01
0.0036645915151087157,2.011
0.0036939442782185274,2.012
0.0037237674327142657,2.013
0.0037540329263875756,2.014
0.003784710755037221,2.015
0.0038157693803989377,2.016
0.003847176061576206,2.017
0.003878896991290325,2.018
0.00391089714722681,2.019
0.003943139798539985,2.02
0.003975585798997765,2.021
0.004008193178387919,2.022
0.004040917482618602,2.023
0.0040737126301803,2.024
0.00410653166653979,2.025
0.004139327013182297,2.026
0.004172050077778632,2.027
0.004204650389908528,2.028
0.004237074926673612,2.029
0.004269268343166524,2.03
0.004301174015291903,2.031
0.004332735129670559,2.032
0.004363895200447632,2.033
0.004394597775564052,2.034
0.004424785431283362,2.035
0.004454398802313393,2.036
0.004483376858335606,2.037
0.0045116588478078794,2.038
0.004539187003539193,2.039
0.004565908790287737,2.04
0.004591777931251894,2.041
0.004616753864695089,2.042
0.004640799666700596,2.043
0.0046638791747827925,2.044
0.0046859549398583665,2.045
0.004706988297525274,2.046
0.004726941028718788,2.047
0.004745777137343742,2.048
0.004763463991368884,2.049
0.004779972849868579,2.05
0.004795278975148746,2.051
0.004809361479684151,2.052
0.0048222029652091585,2.053
0.004833788913538863,2.054
0.004844106723345533,2.055
0.004853144280335138,2.056
0.004860888237693325,2.057
0.004867322889591581,2.058
0.004872430649482705,2.059
0.004876194038945259,2.06
0.004878598136497652,2.061
0.004879632605498558,2.062
0.004879292904568467,2.063
0.004877580508829689,2.064
0.004874502104236035,2.065
0.0048700678587642356,2.066
0.0048642890008521915,2.067
0.004857175369891894,2.068
0.004848734262272611,2.069
0.004838971332595216,2.07
0.004827892703107835,2.071
0.004815507066956229,2.072
0.004801827336492261,2.073
0.004786871747512597,2.074
0.0047706643083879775,2.075
0.00475323447550478,2.076
0.004734615961311375,2.077
0.004714844658975864,2.078
0.004693956176824393,2.079
0.0046719844126036905,2.08
0.004648962302692314,2.081
0.004624924054317061,2.082
0.0045999073178949424,2.083
0.004573954488704839,2.084
0.004547113016035619,2.085
0.004519434801023349,2.086
0.004490974839190436,2.087
0.004461789307666329,2.088
0.004431933505804502,2.089
0.004401460500013306,2.09
0.004370421196527602,2.091
0.004338865520750023,2.092
0.004306843697393371,2.093
0.004274406951556964,2.094
0.004241607454022749,2.095
0.004208497554025184,2.096
0.004175128522037741,2.097
0.004141549383659679,2.098
0.004107806612212307,2.099
0.004073944836317362,2.1
0.0040400078791852844,2.101
0.004006039431139021,2.102
0.003972083124327251,2.103
0.003938182021650205,2.104
0.0039043776867367353,2.105
0.0038707093271301745,2.106
0.00383721364140221,2.107
0.003803925458866578,2.108
0.003770878596091906,2.109
0.0037381064008529864,2.11
0.003705641878284096,2.111
0.0036735175157864607,2.112
0.0036417649704499275,2.113
0.0036104147750277045,2.114
0.003579496170840907,2.115
0.003549037103028985,2.116
0.003519064329959269,2.117
0.003489603528822252,2.118
0.003460679251964356,2.119
0.0034323146166897185,2.12
0.0034045307712788644,2.121
0.0033773465121134626,2.122
0.0033507785398963113,2.123
0.0033248424182911046,2.124
0.003299553854141971,2.125
0.0032749299197565116,2.126
0.0032509899974149476,2.127
0.0032277562881052268,2.128
0.003205253766875848,2.129
0.003183509543492567,2.13
0.0031625516866256175,2.131
0.0031424077949801462,2.132
0.003123103966147517,2.133
0.003104664746866261,2.134
0.0030871139012724645,2.135
0.0030704753434335104,2.136
0.0030547738329616144,2.137
0.003040035376267475,2.138
0.0030262873425004784,2.139
0.003013558276095505,2.14
0.0030018773925923428,2.141
0.0029912737874129218,2.142
0.0029817754878054847,2.143
0.0029734086606029242,2.144
0.0029661973280711578,2.145
0.002960163568536174,2.146
0.0029553277751130052,2.147
0.0029517086275084297,2.148
0.002949322791712823,2.149
0.0029481846358733583,2.15
0.0029483062306408453,2.151
0.002949697556172729,2.152
0.0029523665855723355,2.153
0.0029563191227922046,2.154
0.0029615587065148917,2.155
0.002968086926931679,2.156
0.002975904042716607,2.157
0.002985009496774434,2.158
0.002995402054836386,2.159
0.0030070794776940087,2.16
0.0030200379024643356,2.161
0.0030342715100762003,2.162
0.0030497729474344712,2.163
0.003066534253963966,2.164
0.003084547705812984,2.165
0.0031038062430921083,2.166
0.0031243033744295283,2.167
0.0031460325391164026,2.168
0.003168986138308284,2.169
0.003193154881569914,2.17
0.0032185280622430237,2.171
0.003245094600750822,2.172
0.0032728441773754173,2.173
0.0033017679821326492,2.174
0.0033318589244015137,2.175
0.003363111274468879,2.176
0.0033955197907991593,2.177
0.003429078509532941,2.178
0.0034637796016938646,2.179
0.0034996128166048155,2.18
0.003536565588600256,2.181
0.0035746232941686394,2.182
0.0036137692051425264,2.183
0.0036539841196921176,2.184
0.003695245908289207,2.185
0.003737529250580367,2.186
0.0037808056323800836,2.187
0.0038250434080109997,2.188
0.0038702077510821466,2.189
0.003916260494468002,2.19
0.003963159978477253,2.191
0.0040108610804393706,2.192
0.0040593155377658474,2.193
0.004108472541633105,2.194
0.00415827952303915,2.195
0.004208683053962344,2.196
0.004259629755957873,2.197
0.0043110670628456445,2.198
0.004362943659045844,2.199
0.004415209427497636,2.2
0.004467814802749581,2.201
0.004520709532991199,2.202
0.004573841215321524,2.203
0.004627154496178113,2.204
0.004680591492309793,2.205
0.00473409286255339,2.206
0.004787598660691245,2.207
0.004841048665910101,2.208
0.004894382243249253,2.209
0.004947537848851477,2.21
0.0050004523060195915,2.211
0.00505305995183734,2.212
0.005105291768420973,2.213
0.005157074779848886,2.214
0.005208332092026644,2.215
0.005258983642177193,2.216
0.00530894731632527,2.217
0.005358140036492507,2.218
0.005406478528567278,2.219
0.005453879506059824,2.22
0.005500259026840391,2.221
0.005545531192274634,2.222
0.00558960730755449,2.223
0.00563239681398566,2.224
0.005673809953753227,2.225
0.005713760980351827,2.226
0.005752170895288668,2.227
0.005788969184071781,2.228
0.0058240942289346865,2.229
0.005857492208375099,2.23
0.005889114479544551,2.231
0.005918914042278897,2.232
0.005946842917265139,2.233
0.005972852443554052,2.234
0.005996896369613659,2.235
0.006018934701651357,2.236
0.006038936620144076,2.237
0.006056881849799553,2.238
0.006072760363378506,2.239
0.006086570523854535,2.24
0.006098315962767912,2.241
0.00610800181690677,2.242
0.006115631682244576,2.243
0.006121206857981558,2.244
0.006124727824404921,2.245
0.006126195962613225,2.246
0.006125613539255588,2.247
0.006122982048203838,2.248
0.006118301776247818,2.249
0.006111575026539416,2.25
0.006102811169775653,2.251
0.00609202948414059,2.252
0.006079257605496875,2.253
0.006064527346485308,2.254
0.006047873235046721,2.255
0.006029336809302265,2.256
0.006008973193481838,2.257
0.005986855012210238,2.258
0.0059630720379879815,2.259
0.0059377272606492065,2.26
0.0059109308656306375,2.261
0.0058827944510067755,2.262
0.0058534281756516225,2.263
0.0058229414394241966,2.264
0.005791444744675362,2.265
0.005759050472791955,2.266
0.005725872257914781,2.267
0.0056920235214836,2.268
0.005657615750282297,2.269
0.0056227569883301135,2.27
0.005587550814062282,2.271
0.005552095854268263,2.272
0.005516485713907188,2.273
0.005480809122473254,2.274
0.00544515011900366,2.275
0.005409588185503797,2.276
0.005374198337373436,2.277
0.005339051241056137,2.278
0.005304213434635086,2.279
0.005269747687337972,2.28
0.00523571347219413,2.281
0.005202167463412572,2.282
0.0051691639254726,2.283
0.0051367548566035,2.284
0.005104989802474046,2.285
0.005073915359156316,2.286
0.005043574496910141,2.287
0.005014005924155051,2.288
0.004985243698427154,2.289
0.004957317115895691,2.29
0.004930250782176786,2.291
0.004904064796394039,2.292
0.004878774941603031,2.293
0.004854392740649561,2.294
0.00483092545901185,2.295
0.004808376374506622,2.296
0.004786745497468295,2.297
0.0047660305982405,2.298
0.004746228296807756,2.299
0.004727335034972102,2.3
0.004709347763988186,2.301
0.004692264156292365,2.302
0.004676082166997507,2.303
0.004660798910143042,2.304
0.004646409332748957,2.305
0.004632905767111586,2.306
0.004620278904811413,2.307
0.004608519404812096,2.308
0.004597619060328339,2.309
0.004587571097323928,2.31
0.004578369586281447,2.311
0.00457000810196994,2.312
0.004562478166451944,2.313
0.004555768512082029,2.314
0.004549865683135528,2.315
0.004544755212616679,2.316
0.00454042237738392,2.317
0.00453685225072416,2.318
0.004534029194596342,2.319
0.004531935992320016,2.32
0.0045305528623022255,2.321
0.0045298567567739825,2.322
0.004529821415152382,2.323
0.0045304182633975724,2.324
0.004531617791870374,2.325
0.004533391001089883,2.326
0.004535710643718847,2.327
0.004538552015967568,2.328
0.004541893055121465,2.329
0.004545713581667974,2.33
0.004549993713054399,2.331
0.0045547120365748055,2.332
0.004559844793119338,2.333
0.004565366708778263,2.334
0.004571252570341871,2.335
0.004577478355308546,2.336
0.004584021568187261,2.337
0.004590860949064075,2.338
0.004597975841220317,2.339
0.004605345528488859,2.34
0.004612948784444927,2.341
0.004620763744806704,2.342
0.0046287680648462596,2.343
0.004636939192083578,2.344
0.00464525449554623,2.345
0.004653690970800518,2.346
0.004662224361906658,2.347
0.0046708280830324795,2.348
0.004679473011638363,2.349
0.004688128815490739,2.35
0.0046967661806740875,2.351
0.004705358904038549,2.352
0.004713885304328299,2.353
0.004722328730002662,2.354
0.0047306770789422,2.355
0.00473892142592413,2.356
0.004747054031490125,2.357
0.00475506617827477,2.358
0.004762946503966489,2.359
0.004770680486230835,2.36
0.0047782511269193195,2.361
0.00478564028721248,2.362
0.004792830231341853,2.363
0.004799805236535018,2.364
0.00480655307795989,2.365
0.004813066008590158,2.366
0.004819340783553506,2.367
0.0048253774050730155,2.368
0.004831176834367235,2.369
0.004836739004891473,2.37
0.0048420627390390655,2.371
0.00484714754579367,2.372
0.0048519956988607275,2.373
0.004856613297321023,2.374
0.004861010024161488,2.375
0.004865197801940915,2.376
0.004869188704922323,2.377
0.004872992801734252,2.378
0.004876616946623943,2.379
0.004880064905770468,2.38
0.004883337968276482,2.381
0.004886435110613948,2.382
0.004889352580673716,2.383
0.004892083205489702,2.384
0.0048946158622951855,2.385
0.004896935480743023,2.386
0.004899023567916804,2.387
0.004900858979549678,2.388
0.004902418716674587,2.389
0.004903678604858786,2.39
0.004904613668943804,2.391
0.004905197992454191,2.392
0.004905403946357369,2.393
0.004905201113977388,2.394
0.0049045558888169945,2.395
0.004903432440861112,2.396
0.004901794586306526,2.397
0.004899607726165543,2.398
0.004896840509521041,2.399
0.004893466166758397,2.4
0.004889463471161463,2.401
0.00488481724599066,2.402
0.004879518261907473,2.403
0.004873562330244643,2.404
0.004866948457107966,2.405
0.004859676342508762,2.406
0.004851744428407955,2.407
0.004843149936906349,2.408
0.004833890897826433,2.409
0.0048239687731118615,2.41
0.004813390571315536,2.411
0.004802170223340817,2.412
0.004790329336460561,2.413
0.004777897451176035,2.414
0.0047649118589413115,2.415
0.004751416945532131,2.416
0.0047374629559801765,2.417
0.00472310407584946,2.418
0.004708395913075459,2.419
0.004693393173560898,2.42
0.004678149006406217,2.421
0.004662716565599075,2.422
0.004647151515451521,2.423
0.00463151392757761,2.424
0.004615868940502435,2.425
0.004600286132804871,2.426
0.004584837816839779,2.427
0.004569596692786031,2.428
0.004554633585891871,2.429
0.004540016129712128,2.43
0.004525808557597997,2.431
0.004512071783514711,2.432
0.004498863214411966,2.433
0.004486236696919131,2.434
0.00447424300996565,2.435
0.004462930610279671,2.436
0.004452346119920908,2.437
0.004442534334926102,2.438
0.004433537768559683,2.439
0.004425395944355941,2.44
0.004418144901019113,2.441
0.004411817238010676,2.442
0.004406442481123569,2.443
0.004402047296494671,2.444
0.004398655323778276,2.445
0.00439628675935073,2.446
0.004394958098095295,2.447
0.004394682298141893,2.448
0.00439546912902382,2.449
0.004397325300356226,2.45
0.004400254256553026,2.451
0.004404255875507711,2.452
0.004409326439262028,2.453
0.004415458941674838,2.454
0.004422643395896541,2.455
0.004430866807293883,2.456
0.004440112831530357,2.457
0.004450361517306556,2.458
0.004461589449595362,2.459
0.00447377001864244,2.46
0.004486873418467136,2.461
0.004500866742976293,2.462
0.004515714975612797,2.463
0.004531382950782278,2.464
0.004547837520219942,2.465
0.004565049068565993,2.466
0.004582991847504226,2.467
0.004601642970240136,2.468
0.004620980356659955,2.469
0.004640980586939893,2.47
0.004661618007175653,2.471
0.004682865492557488,2.472
0.004704695881336554,2.473
0.004727083103246285,2.474
0.00475000285505534,2.475
0.004773432983413699,2.476
0.00479735365011675,2.477
0.004821747254376629,2.478
0.0048465980037105914,2.479
0.004871890967428277,2.48
0.004897610600143407,2.481
0.004923739428225323,2.482
0.00495025821061425,2.483
0.004977148067529402,2.484
0.005004393556528791,2.485
0.005031985345644977,2.486
0.005059921688594362,2.487
0.005088208280126967,2.488
0.005116856321197385,2.489
0.005145879334749611,2.49
0.00517529059568944,2.491
0.0052051032027662395,2.492
0.0052353325787286254,2.493
0.005265999237931033,2.494
0.005297130219534534,2.495
0.005328758995517958,2.496
0.005360924336628282,2.497
0.005393668734026201,2.498
0.0054270368416674975,2.499
0.00546107414641492,2.5
0.005495825826051379,2.501
0.005531335610775223,2.502
0.005567644546288413,2.503
0.00560478998939135,2.504
0.005642805502292754,2.505
0.005681721846806534,2.506
0.005721568542187702,2.507
0.005762375420642103,2.508
0.005804173966354074,2.509
0.005846998334073984,2.51
0.005890885911583898,2.511
0.0059358772948489135,2.512
0.005982015590470075,2.513
0.006029345041285785,2.514
0.006077909084133154,2.515
0.006127748276967678,2.516
0.006178898977537668,2.517
0.006231393247482009,2.518
0.0062852592770309265,2.519
0.0063405213166998564,2.52
0.0063971990329578215,2.521
0.006455307143360086,2.522
0.006514855906326343,2.523
0.006575851892607431,2.524
0.006638298110765431,2.525
0.006702193356294807,2.526
0.006767531640882905,2.527
0.006834302581310884,2.528
0.006902492497551083,2.529
0.006972085228034331,2.53
0.00704306206237251,2.531
0.007115400823039299,2.532
0.00718907453923836,2.533
0.007264050361693957,2.534
0.007340289040904868,2.535
0.007417744779918859,2.536
0.0074963654550192875,2.537
0.00757609349206942,2.538
0.007656867284109235,2.539
0.00773862266628244,2.54
0.007821294079523089,2.541
0.007904815242218467,2.542
0.007989119263397165,2.543
0.008074138221187013,2.544
0.008159802301314962,2.545
0.00824603865675141,2.546
0.008332770196828251,2.547
0.008419914499846035,2.548
0.008507382933169235,2.549
0.008595079954875622,2.55
0.008682902739926444,2.551
0.008770741630056625,2.552
0.008858481800295366,2.553
0.008946005946306847,2.554
0.0090331974311169,2.555
0.009119943309168738,2.556
0.00920613667789916,2.557
0.009291677886204469,2.558
0.00937647431095461,2.559
0.009460438665813102,2.56
0.009543486075779603,2.561
0.009625530363655252,2.562
0.009706480460405037,2.563
0.009786238429115612,2.564
0.009864699703110588,2.565
0.009941754208734426,2.566
0.010017286802261265,2.567
0.010091176664059133,2.568
0.010163296055930152,2.569
0.010233509125622217,2.57
0.010301671607342891,2.571
0.01036763220457329,2.572
0.010431236082883578,2.573
0.010492330292925926,2.574
0.010550770242282573,2.575
0.010606425763526727,2.576
0.010659185119734278,2.577
0.010708955585495495,2.578
0.010755659971029011,2.579
0.010799229701920354,2.58
0.010839597660451738,2.581
0.01087669614602464,2.582
0.010910462100350219,2.583
0.010940845746839388,2.584
0.010967817857037439,2.585
0.010991373699253801,2.586
0.011011533296941873,2.587
0.01102833811062504,2.588
0.011041844775417187,2.589
0.011052116955373238,2.59
0.011059217469071283,2.591
0.011063204295408883,2.592
0.011064132158687939,2.593
0.0110620570138324,2.594
0.011057040122949563,2.595
0.01104915081891254,2.596
0.01103846808511618,2.597
0.011025080924759333,2.598
0.011009087358792425,2.599
0.010990591882158477,2.6
0.010969701367835852,2.601
0.010946520300661214,2.602
0.010921147816095348,2.603
0.010893678594477554,2.604
0.01086420658907067,2.605
0.010832828982291532,2.606
0.010799648916141902,2.607
0.010764776696787442,2.608
0.010728329429454538,2.609
0.010690429106494306,2.61
0.01065119933871584,2.611
0.010610761336101372,2.612
0.010569230561644391,2.613
0.010526715774342721,2.614
0.010483320698094531,2.615
0.010439146814057368,2.616
0.010394295930227527,2.617
0.010348872180194226,2.618
0.010302983421256625,2.619
0.010256741950733358,2.62
0.010210264463466266,2.621
0.01016367121126878,2.622
0.010117084360889076,2.623
0.010070625579749868,2.624
0.01002441310006693,2.625
0.009978559257691394,2.626
0.009933170029941141,2.627
0.009888346971577052,2.628
0.009844190247707805,2.629
0.009800801370719654,2.63
0.009758285091415051,2.631
0.009716750255299108,2.632
0.009676309526552195,2.633
0.009637078082416206,2.634
0.009599171610581747,2.635
0.00956270406315341,2.636
0.009527785552679259,2.637
0.00949452056133494,2.638
0.009463006515997763,2.639
0.009433333003025908,2.64
0.009405582069611678,2.641
0.009379829643802304,2.642
0.009356147558522694,2.643
0.009334605599877711,2.644
0.00931527315966594,2.645
0.009298220151636696,2.646
0.009283516947047848,2.647
0.009271233265839954,2.648
0.009261436179784406,2.649
0.009254187756523102,2.65
0.009249543370734312,2.651
0.009247551476918412,2.652
0.009248254453775067,2.653
0.00925168946687977,2.654
0.00925788877582847,2.655
0.009266879524003664,2.656
0.009278683273960631,2.657
0.009293315584427569,2.658
0.009310785849519722,2.659
0.00933109745611926,2.66
0.00935424815316269,2.661
0.009380230451271789,2.662
0.009409031887516683,2.663
0.00944063504153213,2.664
0.009475017227885334,2.665
0.009512149807709981,2.666
0.009551997220630933,2.667
0.009594516320532402,2.668
0.009639656871768845,2.669
0.00968736346014473,2.67
0.009737578253092802,2.671
0.009790243871830742,2.672
0.009845305790601253,2.673
0.009902713723890112,2.674
0.009962421515867148,2.675
0.010024385220157257,2.676
0.01008855973089022,2.677
0.010154895874130257,2.678
0.010223340496188631,2.679
0.010293839755605664,2.68
0.010366343094554602,2.681
0.010440805490126891,2.682
0.010517187222026247,2.683
0.010595451474847733,2.684
0.010675560640267662,2.685
0.010757472430960957,2.686
0.010841136884802493,2.687
0.010926494943455977,2.688
0.011013478454015737,2.689
0.011102010924405523,2.69
0.011192008744493312,2.691
0.011283383030379976,2.692
0.011376042067706824,2.693
0.011469893866733877,2.694
0.011564848001058708,2.695
0.011660815848932025,2.696
0.011757708653846797,2.697
0.011855434026112041,2.698
0.011953893544897926,2.699
0.012052983964102326,2.7
0.012152601211715896,2.701
0.012252644335968354,2.702
0.01235301760250447,2.703
0.012453630379515829,2.704
0.012554395060708065,2.705
0.012655223565760423,2.706
0.012756023210239806,2.707
0.012856693206452234,2.708
0.01295712320391954,2.709
0.01305719397298648,2.71
0.013156778708622108,2.711
0.013255743548762937,2.712
0.013353946955086533,2.713
0.013451238256520184,2.714
0.013547456272927789,2.715
0.013642429139321177,2.716
0.013735975347901531,2.717
0.013827904745376504,2.718
0.013918018323701311,2.719
0.01400610719696932,2.72
0.014091953081433743,2.721
0.01417533236387058,2.722
0.014256023319378083,2.723
0.014333814610975019,2.724
0.01440851341564562,2.725
0.01447995156645888,2.726
0.01454798800080129,2.727
0.014612506160176448,2.728
0.014673405850481373,2.729
0.014730592245908235,2.73
0.014783969770180956,2.731
0.014833446676657397,2.732
0.014878946610030488,2.733
0.014920419683022459,2.734
0.014957849632366689,2.735
0.014991256697363889,2.736
0.015020696439053783,2.737
0.015046254853482805,2.738
0.01506804034915414,2.739
0.015086173555912696,2.74
0.015100776862337137,2.741
0.015111966990051214,2.742
0.015119853203290465,2.743
0.015124539874740798,2.744
0.015126129708691408,2.745
0.015124725472386306,2.746
0.015120430223086302,2.747
0.015113346633749443,2.748
0.015103576008943593,2.749
0.01509121756482382,2.75
0.015076368498424336,2.751
0.015059125196147582,2.752
0.015039585549657782,2.753
0.015017851825569,2.754
0.014994033107697053,2.755
0.014968246235807373,2.756
0.01494061445616838,2.757
0.01491126353193927,2.758
0.014880316255847155,2.759
0.014847888357620433,2.76
0.014814088872286956,2.761
0.014779024385647188,2.762
0.014742803607225676,2.763
0.014705539624704238,2.764
0.014667349289630191,2.765
0.014628350244446447,2.766
0.014588656461857216,2.767
0.014548373721521898,2.768
0.014507597196748632,2.769
0.01446641220414651,2.77
0.01442489651693668,2.771
0.014383122033456881,2.772
0.014341154935773003,2.773
0.014299054295214313,2.774
0.014256869823514363,2.775
0.014214640794314304,2.776
0.014172397836850264,2.777
0.014130166865610007,2.778
0.014087973158908716,2.779
0.014045844310400814,2.78
0.01400381148753041,2.781
0.013961908780499311,2.782
0.013920170810708215,2.783
0.013878629100070658,2.784
0.013837308134460664,2.785
0.013796222718130784,2.786
0.013755377989778474,2.787
0.013714771817895703,2.788
0.013674398201647227,2.789
0.013634250821147343,2.79
0.013594326570709959,2.791
0.013554628938650021,2.792
0.01351517084640319,2.793
0.013475976320102804,2.794
0.01343708025782761,2.795
0.013398525686752963,2.796
0.013360358456782146,2.797
0.013322621286034593,2.798
0.013285351483081617,2.799
0.013248584651014207,2.8
0.013212361393802241,2.801
0.013176732944535922,2.802
0.013141764266544011,2.803
0.013107534646480345,2.804
0.013074136030260978,2.805
0.013041669504287682,2.806
0.013010240424258322,2.807
0.012979952830552989,2.808
0.012950904520904818,2.809
0.012923184956155302,2.81
0.01289687669447481,2.811
0.012872058303264624,2.812
0.01284880652468668,2.813
0.012827197156523704,2.814
0.012807304949747645,2.815
0.012789202908272642,2.816
0.012772961344848502,2.817
0.012758646927999178,2.818
0.012746321809219616,2.819
0.01273604280922979,2.82
0.012727860590649938,2.821
0.012721818733679639,2.822
0.012717952636279162,2.823
0.012716288235293744,2.824
0.012716840890937851,2.825
0.012719615159540011,2.826
0.012724605784739041,2.827
0.012731799345545459,2.828
0.012741175786831274,2.829
0.012752709416562405,2.83
0.012766369194114781,2.831
0.012782118284429697,2.832
0.012799913027028768,2.833
0.012819701597690202,2.834
0.012841422700960928,2.835
0.012865004633373523,2.836
0.01289036499981119,2.837
0.01291741123373128,2.838
0.0129460418651667,2.839
0.012976148224557652,2.84
0.013007616011500241,2.841
0.013040325962190678,2.842
0.01307415297996649,2.843
0.013108964531222555,2.844
0.01314462133897954,2.845
0.0131809826822314,2.846
0.013217914823942176,2.847
0.013255299151891,2.848
0.013293037325432272,2.849
0.013331051668733331,2.85
0.013369280081733553,2.851
0.013407667218154628,2.852
0.01344615759489878,2.853
0.013484696365662319,2.854
0.013523236989405371,2.855
0.013561749975027067,2.856
0.01360022837902101,2.857
0.013638688846790845,2.858
0.013677168354543558,2.859
0.013715717466587429,2.86
0.013754391580314504,2.861
0.013793242848316178,2.862
0.013832316439983243,2.863
0.013871652300668004,2.864
0.013911289357445266,2.865
0.013951268875837006,2.866
0.013991636094049072,2.867
0.014032440297373492,2.868
0.014073733483538665,2.869
0.014115567784813196,2.87
0.014157991859749624,2.871
0.014201046999098807,2.872
0.014244764772113946,2.873
0.014289167619441615,2.874
0.014334271352674682,2.875
0.014380087275498759,2.876
0.014426622692097317,2.877
0.014473879821860177,2.878
0.014521853705050809,2.879
0.014570529874949265,2.88
0.014619882511533136,2.881
0.01466987350252106,2.882
0.014720452393303088,2.883
0.014771556806806278,2.884
0.01482311278754656,2.885
0.014875034706918165,2.886
0.014927224662076785,2.887
0.014979571649659637,2.888
0.015031951198272627,2.889
0.015084226102882473,2.89
0.015136248362738849,2.891
0.015187862200831683,2.892
0.015238908191321844,2.893
0.01528922841775892,2.894
0.015338672144060218,2.895
0.015387100927781614,2.896
0.015434391680497346,2.897
0.015480436180601647,2.898
0.015525136151736488,2.899
0.015568395320902212,2.9
0.015610113767100116,2.901
0.015650189627762164,2.902
0.015688526784661944,2.903
0.015725043044518126,2.904
0.015759675448440327,2.905
0.015792382290038903,2.906
0.015823142479986573,2.907
0.01585195317928606,2.908
0.015878826687208903,2.909
0.01590378738857356,2.91
0.015926869147719156,2.911
0.01594811298998212,2.912
0.015967564441940564,2.913
0.01598526974667551,2.914
0.016001270959019515,2.915
0.016015602100761365,2.916
0.016028289664774938,2.917
0.016039358083121593,2.918
0.016048837484987137,2.919
0.016056771121541285,2.92
0.016063221363118087,2.921
0.016068273698677873,2.922
0.016072038137701406,2.923
0.016074647532985098,2.924
0.016076252737005737,2.925
0.01607701516029012,2.926
0.016077098008647078,2.927
0.016076658193421366,2.928
0.016075841048811452,2.929
0.01607477828641614,2.93
