VaMe,time
0.00018548735412936656,0.001
0.00024055441115927712,0.002
0.0002960451652111699,0.003
0.00035193101406139033,0.004
0.0004081856392618146,0.005
0.0004647852879579672,0.006
0.000521708264611663,0.007
0.0005789339819797963,0.008
0.0006364423558365579,0.009
0.000694213987517937,0.01
0.0007522306872931954,0.011
0.0008104756914210057,0.012
0.0008689333896082486,0.013
0.000927588722263837,0.014
0.0009864266070546649,0.015
0.0010454317765925688,0.016
0.0011045890732186724,0.017
0.0011638839292069593,0.018
0.001223302815325046,0.019
0.0012828335975155248,0.02
0.0013424657375759126,0.021
0.001402190216823924,0.022
0.0014619990860335983,0.023
0.001521884702894132,0.024
0.001581838978066082,0.025
0.0016418530037731755,0.026
0.001701917039069211,0.027
0.001762020469072742,0.028
0.0018221516112582603,0.029
0.0018822976702817854,0.03
0.0019424450257767897,0.031
0.0020025796145680384,0.032
0.0020626870803050683,0.033
0.002122752560756444,0.034
0.002182760219212227,0.035
0.0022426929064895723,0.036
0.002302532331484773,0.037
0.002362259666257966,0.038
0.0024218562087627666,0.039
0.0024813038433262142,0.04
0.0025405852176636555,0.041
0.0025996836247445913,0.042
0.002658582612535281,0.043
0.002717265381071607,0.044
0.0027757140595502804,0.045
0.002833909005921897,0.046
0.002891828319536903,0.047
0.0029494476366362776,0.048
0.003006740061863655,0.049
0.0030636761532442623,0.05
0.0031202240847116717,0.051
0.003176350018533351,0.052
0.003232018493148478,0.053
0.003287192601705481,0.054
0.003341833822584918,0.055
0.0033959015752314053,0.056
0.00344935298046809,0.057
0.0035021433186616527,0.058
0.0035542270262688817,0.059
0.0036055585984744484,0.06
0.003656092894981121,0.061
0.003705784638358991,0.062
0.003754587350005063,0.063
0.0038024526408676957,0.064
0.003849330670321549,0.065
0.003895171445854061,0.066
0.003939925958296716,0.067
0.003983546463938373,0.068
0.004025985672569842,0.069
0.00406719528972847,0.07
0.0041071253995246465,0.071
0.004145725802503255,0.072
0.004182948562240651,0.073
0.0042187503223097755,0.074
0.004253093692474916,0.075
0.004285947525390539,0.076
0.004317286051646886,0.077
0.004347086946797159,0.078
0.004375328804300657,0.079
0.004401989398130672,0.08
0.004427046202577331,0.081
0.004450479018690416,0.082
0.004472273200926959,0.083
0.004492422219570655,0.084
0.004510928932360835,0.085
0.004527805195313125,0.086
0.004543069674304342,0.087
0.004556744388353701,0.088
0.004568851717581086,0.089
0.004579413847119675,0.09
0.004588454634299815,0.091
0.004596001974910006,0.092
0.004602089159546681,0.093
0.004606754980831625,0.094
0.0046100428750940215,0.095
0.004611999452927234,0.096
0.004612672762893841,0.097
0.004612110538838158,0.098
0.004610358620349266,0.099
0.004607459915674186,0.1
0.004603454409893624,0.101
0.004598380270029774,0.102
0.004592275485550953,0.103
0.004585179434749475,0.104
0.004577134024920908,0.105
0.004568184183149688,0.106
0.0045583775480702825,0.107
0.004547763325244783,0.108
0.004536390522805246,0.109
0.004524306355578485,0.11
0.004511555891637097,0.111
0.004498183085256193,0.112
0.0044842321244520185,0.113
0.004469748064873363,0.114
0.00445477649572816,0.115
0.004439362433747716,0.116
0.004423548914444279,0.117
0.004407376044052222,0.118
0.004390881040158251,0.119
0.004374098996877223,0.12
0.00435706375803907,0.121
0.004339808588341888,0.122
0.0043223665879581485,0.123
0.004304770799457215,0.124
0.004287053920868114,0.125
0.004269247555116325,0.126
0.004251381189435589,0.127
0.0042334816272364285,0.128
0.004215573535820753,0.129
0.004197680863796561,0.13
0.004179828343101673,0.131
0.004162042542957055,0.132
0.004144352257474182,0.133
0.00412678815826746,0.134
0.004109381779410377,0.135
0.004092164046669428,0.136
0.004075163844211547,0.137
0.004058407381074145,0.138
0.00404191865847606,0.139
0.0040257204492652405,0.14
0.004009835093036291,0.141
0.003994284883749363,0.142
0.003979092037229247,0.143
0.003964278219543145,0.144
0.003949863693989632,0.145
0.003935866500810339,0.146
0.003922302429117072,0.147
0.003909186097322264,0.148
0.003896532561513615,0.149
0.003884358630342736,0.15
0.0038726833776314626,0.151
0.003861527606675719,0.152
0.0038509124237635487,0.153
0.0038408578690434505,0.154
0.003831382869573636,0.155
0.0038225066930417514,0.156
0.003814250788406369,0.157
0.003806639931654344,0.158
0.003799702295396316,0.159
0.0037934684534450614,0.16
0.0037879696145958924,0.161
0.0037832359106292467,0.162
0.003779295794424556,0.163
0.0037761766774710576,0.164
0.003773905775322174,0.165
0.0037725102517678945,0.166
0.0037720165759136336,0.167
0.003772449478857848,0.168
0.003773831063815347,0.169
0.0037761804518495847,0.17
0.003779513822325836,0.171
0.0037838444460678976,0.172
0.0037891825621449516,0.173
0.0037955352295337384,0.174
0.0038029063081901925,0.175
0.0038112966256815244,0.176
0.0038207042901039663,0.177
0.003831125053631229,0.178
0.0038425526183048274,0.179
0.003854978794494183,0.18
0.003868393461485102,0.181
0.0038827843283287576,0.182
0.0038981365358151925,0.183
0.003914432203363306,0.184
0.003931650127908182,0.185
0.0039497658311360385,0.186
0.003968751951340875,0.187
0.003988578843995743,0.188
0.004009215313766626,0.189
0.004030629455795896,0.19
0.0040527895367210975,0.191
0.004075664763527393,0.192
0.004099225735952804,0.193
0.004123444392567197,0.194
0.0041482933510491775,0.195
0.004173744679967968,0.196
0.004199768484965027,0.197
0.004226332160366193,0.198
0.00425340080300086,0.199
0.004280938209780433,0.2
0.00430890760155275,0.201
0.00433727175944538,0.202
0.004365992626497327,0.203
0.0043950305371407185,0.204
0.004424343285124272,0.205
0.004453885278959238,0.206
0.004483607049336615,0.207
0.0045134551494110655,0.208
0.0045433721684510955,0.209
0.00457329663920352,0.21
0.004603162941646223,0.211
0.00463290140496547,0.212
0.004662438675176097,0.213
0.004691698350495335,0.214
0.004720601939210537,0.215
0.004749070177603751,0.216
0.0047770245852089615,0.217
0.0048043889140943685,0.218
0.004831089987174351,0.219
0.0048570574269187206,0.22
0.004882222089316052,0.221
0.004906514009132966,0.222
0.004929861725151904,0.223
0.004952193955643434,0.224
0.004973442398860919,0.225
0.004993544012732317,0.226
0.005012442226541562,0.227
0.005030087149338537,0.228
0.005046434910857053,0.229
0.005061446274661551,0.23
0.0050750846583816536,0.231
0.005087313764257361,0.232
0.005098095484426011,0.233
0.005107389327445166,0.234
0.005115153974508472,0.235
0.0051213500644885675,0.236
0.005125942919531711,0.237
0.005128904508725481,0.238
0.005130214272945168,0.239
0.005129858553680846,0.24
0.005127828558905522,0.241
0.005124117349882177,0.242
0.005118717508109363,0.243
0.005111621455839216,0.244
0.005102824476102643,0.245
0.005092328487099891,0.246
0.005080144767255666,0.247
0.005066294862968555,0.248
0.005050809501252883,0.249
0.0050337257047626555,0.25
0.0050150829614413065,0.251
0.00499492027334779,0.252
0.004973275787692857,0.253
0.0049501887155682265,0.254
0.004925701733089653,0.255
0.004899862635363853,0.256
0.004872725083029495,0.257
0.004844348636204087,0.258
0.0048147982629879555,0.259
0.004784143448495307,0.26
0.004752456957220759,0.261
0.004719813260561026,0.262
0.004686286658810305,0.263
0.004651949444242857,0.264
0.004616870992548692,0.265
0.004581118330530117,0.266
0.0045447575668457404,0.267
0.004507855269485246,0.268
0.004470479425338328,0.269
0.0044326998865144894,0.27
0.00439458819378856,0.271
0.004356216722538079,0.272
0.00431765726449667,0.273
0.004278979471476953,0.274
0.004240249814329988,0.275
0.004201531258716449,0.276
0.004162883235074012,0.277
0.004124361795466375,0.278
0.004086020239594815,0.279
0.004047910001825224,0.28
0.0040100812222961715,0.281
0.003972582691234073,0.282
0.0039354612401451645,0.283
0.0038987609982123446,0.284
0.003862523038285201,0.285
0.00382678548457749,0.286
0.003791583633154442,0.287
0.003756949807974611,0.288
0.003722913233273157,0.289
0.0036895002550360713,0.29
0.003656734759253918,0.291
0.003624638354516774,0.292
0.0035932301907667607,0.293
0.0035625268825897425,0.294
0.0035325431212946024,0.295
0.0035032929218022425,0.296
0.0034747909339144763,0.297
0.003447053342320896,0.298
0.0034200981384373825,0.299
0.0033939447160298802,0.3
0.003368612876348696,0.301
0.00334412154398151,0.302
0.0033204878149599355,0.303
0.003297726885294609,0.304
0.0032758527156024017,0.305
0.0032548788126853696,0.306
0.003234818718995276,0.307
0.003215686128873621,0.308
0.0031974946581064465,0.309
0.003180257333454149,0.31
0.003163985922932022,0.311
0.0031486902657563444,0.312
0.0031343777573607117,0.313
0.0031210530932749185,0.314
0.003108718286837711,0.315
0.003097372874138847,0.316
0.0030870141408216693,0.317
0.003077637186209577,0.318
0.003069234781117121,0.319
0.0030617972787368823,0.32
0.0030553128904041308,0.321
0.0030497682551976113,0.322
0.003045148959096466,0.323
0.003041439783405431,0.324
0.003038624670229702,0.325
0.0030366864857524975,0.326
0.003035606666266909,0.327
0.0030353647955576133,0.328
0.0030359381828428005,0.329
0.0030373016215468436,0.33
0.0030394274834530943,0.331
0.003042286059741228,0.332
0.003045845924274628,0.333
0.0030500741752763983,0.334
0.0030549364980222422,0.335
0.0030603970181042554,0.336
0.0030664179536040335,0.337
0.003072959209504268,0.338
0.003079978206405293,0.339
0.003087430074616628,0.34
0.0030952679804965356,0.341
0.0031034432869144145,0.342
0.0031119054376630793,0.343
0.0031206016507096847,0.344
0.00312947674279497,0.345
0.0031384734250368145,0.346
0.0031475330381084275,0.347
0.003156596407769118,0.348
0.003165604538231979,0.349
0.003174498956142283,0.35
0.0031832215472053665,0.351
0.00319171384981506,0.352
0.003199916288291419,0.353
0.0032077683967946112,0.354
0.003215210599457846,0.355
0.003222186885040774,0.356
0.0032286472485892736,0.357
0.003234549070389263,0.358
0.003239856911372026,0.359
0.003244540546715027,0.36
0.0032485720269826196,0.361
0.0032519239429784023,0.362
0.003254570519053883,0.363
0.0032564905394231957,0.364
0.003257670039474607,0.365
0.0032581037389668183,0.366
0.0032577950434127196,0.367
0.0032567546935177052,0.368
0.0032549983473459405,0.369
0.0032525436887519787,0.37
0.003249408077592462,0.371
0.003245607668109406,0.372
0.0032411578353102395,0.373
0.0032360738419724457,0.374
0.003230371040187667,0.375
0.0032240646618500774,0.376
0.0032171695141295776,0.377
0.0032096998464639466,0.378
0.0032016695368920246,0.379
0.003193092599801098,0.38
0.003183983892745873,0.381
0.0031743598298677295,0.382
0.0031642389023745425,0.383
0.0031536418494549183,0.384
0.0031425913914401023,0.385
0.0031311115100916354,0.386
0.0031192263269438783,0.387
0.0031069588710045896,0.388
0.0030943304428066327,0.389
0.0030813610851449878,0.39
0.003068070796568407,0.391
0.0030544807848495153,0.392
0.0030406144130422706,0.393
0.0030264977451563077,0.394
0.0030121596408331903,0.395
0.002997631376296831,0.396
0.0029829458125799134,0.397
0.002968136186294274,0.398
0.002953234816040185,0.399
0.0029382723730969214,0.4
0.0029232781241813224,0.401
0.002908280696356919,0.402
0.0028933086188890665,0.403
0.0028783903283863903,0.404
0.0028635536981053565,0.405
0.0028488253022578495,0.406
0.0028342297163744725,0.407
0.0028197891274522324,0.408
0.0028055232516340568,0.409
0.0027914493317923073,0.41
0.0027775821788417927,0.411
0.0027639344149079756,0.412
0.0027505168993843363,0.413
0.002737339129506892,0.414
0.0027244094224931708,0.415
0.002711734760211007,0.416
0.002699320391258851,0.417
0.002687169638747244,0.418
0.0026752842639450884,0.419
0.00266366514703301,0.42
0.0026523128333011733,0.421
0.0026412277579810437,0.422
0.0026304101514419585,0.423
0.0026198596625614775,0.424
0.0026095747868133097,0.425
0.002599552349104361,0.426
0.0025897874074652986,0.427
0.002580273670412761,0.428
0.0025710041097834497,0.429
0.0025619714314509567,0.43
0.002553168287638583,0.431
0.0025445872254012607,0.432
0.0025362203944237034,0.433
0.0025280590678341494,0.434
0.0025200930835224,0.435
0.0025123104102158446,0.436
0.002504697060078678,0.437
0.0024972373766488903,0.438
0.0024899145278879597,0.439
0.0024827110516649313,0.44
0.002475609384331277,0.441
0.0024685923000095623,0.442
0.0024616431595012142,0.443
0.0024547458667513768,0.444
0.0024478844553181313,0.445
0.0024410423861044635,0.446
0.002434202028081306,0.447
0.0024273449429286966,0.448
0.002420453038439615,0.449
0.002413510031135882,0.45
0.002406502647050962,0.451
0.0023994212602494926,0.452
0.0023922598337670505,0.453
0.0023850151409864698,0.454
0.002377685381694522,0.455
0.0023702686705376445,0.456
0.0023627623310773413,0.457
0.0023551634744437594,0.458
0.002347470199974428,0.459
0.0023396825316620118,0.46
0.002331802802817229,0.461
0.0023238355517784517,0.462
0.002315787083676367,0.463
0.0023076649157319855,0.464
0.0022994773149276953,0.465
0.0022912330373730397,0.466
0.002282941232871229,0.467
0.0022746113717066327,0.468
0.0022662530378796592,0.469
0.0022578754995246975,0.47
0.0022494871129157138,0.471
0.0022410948390574415,0.472
0.0022327041956508855,0.473
0.002224319634477016,0.474
0.0022159450259623017,0.475
0.0022075840022570455,0.476
0.0021992400882797597,0.477
0.002190916593752819,0.478
0.002182616243439991,0.479
0.0021743406468614475,0.48
0.0021660899192163744,0.481
0.0021578626719468423,0.482
0.002149656148251456,0.483
0.0021414661983498637,0.484
0.0021332872930323547,0.485
0.0021251130164423463,0.486
0.0021169370536376192,0.487
0.0021087542924040515,0.488
0.0021005617058370107,0.489
0.0020923588492549956,0.49
0.002084147889524669,0.491
0.0020759331355289603,0.492
0.002067720087502759,0.493
0.0020595142732542007,0.494
0.0020513205998093417,0.495
0.002043143771821586,0.496
0.002034989375693717,0.497
0.002026864791455469,0.498
0.0020187794725136754,0.499
0.00201074452213843,0.5
0.002002771717817873,0.501
0.001994872439535907,0.502
0.00198705714273859,0.503
0.0019793355282129855,0.504
0.0019717168241730966,0.505
0.0019642096584685242,0.506
0.001956821686762217,0.507
0.0019495595125663162,0.508
0.0019424290793556408,0.509
0.0019354361501781906,0.51
0.0019285864611203072,0.511
0.0019218854756755106,0.512
0.0019153378900756504,0.513
0.0019089471419747634,0.514
0.0019027151455727335,0.515
0.0018966422448592995,0.516
0.0018907272773423178,0.517
0.0018849678458801272,0.518
0.001879360924452277,0.519
0.0018739036393508478,0.52
0.0018685939187340933,0.521
0.0018634307913425606,0.522
0.0018584142466444018,0.523
0.0018535446886016156,0.524
0.0018488221745377935,0.525
0.0018442458269658081,0.526
0.0018398137505035543,0.527
0.0018355233562912575,0.528
0.0018313717070155354,0.529
0.001827355648645866,0.53
0.0018234717469241008,0.531
0.0018197161527030697,0.532
0.0018160845338005243,0.533
0.0018125721780631987,0.534
0.0018091743032396968,0.535
0.001805886527355808,0.536
0.0018027053880227603,0.537
0.0017996287748087481,0.538
0.0017966561595860564,0.539
0.0017937885575680132,0.54
0.0017910282025820937,0.541
0.0017883779606014613,0.542
0.001785840577965688,0.543
0.0017834180448483956,0.544
0.0017811114590603945,0.545
0.0017789214622625045,0.546
0.0017768488891195225,0.547
0.0017748952591013618,0.548
0.001773062970958704,0.549
0.001771355179310946,0.55
0.0017697753817839327,0.551
0.0017683268000883848,0.552
0.00176701174439574,0.553
0.0017658312600375228,0.554
0.001764785172178592,0.555
0.0017638722690107766,0.556
0.0017630903163353229,0.557
0.001762435887726104,0.558
0.0017619042744118915,0.559
0.0017614897172563851,0.56
0.0017611858826435416,0.561
0.0017609863099856502,0.562
0.0017608846345353354,0.563
0.001760874502375408,0.564
0.0017609491828193924,0.565
0.0017611010385516642,0.566
0.0017613211619747777,0.567
0.001761599313523383,0.568
0.0017619239493006104,0.569
0.0017622821939918393,0.57
0.0017626599362198854,0.571
0.0017630421780563353,0.572
0.0017634134871282528,0.573
0.001763758336837086,0.574
0.0017640612471994796,0.575
0.0017643067393653383,0.576
0.0017644791630641666,0.577
0.0017645624699034945,0.578
0.0017645399874876963,0.579
0.0017643942162914956,0.58
0.0017641066390718862,0.581
0.0017636575257292259,0.582
0.0017630257982487946,0.583
0.0017621891481385276,0.584
0.0017611245570037536,0.585
0.0017598091689112556,0.586
0.0017582213569393255,0.587
0.0017563418315241332,0.588
0.001754154628108597,0.589
0.0017516478020478607,0.59
0.0017488136925028301,0.591
0.0017456486916689736,0.592
0.0017421525533860727,0.593
0.0017383273597935645,0.594
0.0017341762960870935,0.595
0.0017297024957639206,0.596
0.001724908472936102,0.597
0.001719796523254148,0.598
0.0017143698481456124,0.599
0.001708633862567806,0.6
0.001702597333778108,0.601
0.0016962731464971184,0.602
0.001689678541610635,0.603
0.0016828347717033384,0.604
0.001675766246273873,0.605
0.001668499351869202,0.606
0.0016610611851610516,0.607
0.0016534784628327885,0.608
0.0016457768692245643,0.609
0.001637980899146815,0.61
0.0016301139518152261,0.611
0.001622198422351048,0.612
0.0016142557456786102,0.613
0.001606306438198404,0.614
0.0015983701499573007,0.615
0.0015904657062027659,0.616
0.0015826111123943701,0.617
0.0015748235136567295,0.618
0.0015671191258256033,0.619
0.001559513178958844,0.62
0.001552019922946978,0.621
0.0015446527278780795,0.622
0.0015374242689991477,0.623
0.0015303467343260758,0.624
0.0015234319607653854,0.625
0.0015166914158808306,0.626
0.0015101359977762123,0.627
0.0015037757238437785,0.628
0.0014976194778610857,0.629
0.0014916749297570124,0.63
0.0014859485443423977,0.631
0.0014804455714172238,0.632
0.0014751700973860485,0.633
0.0014701252534109845,0.634
0.0014653134724109177,0.635
0.0014607366058710122,0.636
0.001456395820493243,0.637
0.001452291392638233,0.638
0.0014484226878669797,0.639
0.001444788473486728,0.64
0.0014413873606434716,0.641
0.0014382180773642728,0.642
0.0014352794353489399,0.643
0.0014325700050438015,0.644
0.0014300876888527871,0.645
0.0014278295409891676,0.646
0.0014257920002517582,0.647
0.0014239713160660503,0.648
0.0014223638888662521,0.649
0.0014209664415576644,0.65
0.0014197760288052164,0.651
0.0014187898828354804,0.652
0.0014180050862570793,0.653
0.0014174181549309174,0.654
0.0014170248313805896,0.655
0.0014168203695006539,0.656
0.0014168002095218024,0.657
0.0014169607025289804,0.658
0.0014172996277536092,0.659
0.0014178163686507787,0.66
0.001418511692088858,0.661
0.0014193871616876765,0.662
0.0014204443661026951,0.663
0.0014216843408955278,0.664
0.001423107487461562,0.665
0.0014247138567265167,0.666
0.0014265034107856535,0.667
0.0014284760340380822,0.668
0.001430631275658825,0.669
0.0014329679725576755,0.67
0.0014354840799528192,0.671
0.0014381768984931356,0.672
0.0014410434737915816,0.673
0.001444080834057371,0.674
0.00144728593736272,0.675
0.0014506553634784643,0.676
0.00145418493439465,0.677
0.0014578695750961516,0.678
0.001461703548006976,0.679
0.001465680843936454,0.68
0.0014697954649299156,0.681
0.0014740415408800711,0.682
0.0014784133624550166,0.683
0.001482905446606906,0.684
0.0014875127125693148,0.685
0.0014922307488277552,0.686
0.0014970560511417769,0.687
0.001501986068435322,0.688
0.0015070189297347113,0.689
0.001512152874849014,0.69
0.001517385708686986,0.691
0.0015227147467116544,0.692
0.0015281373353798183,0.693
0.00153365153109101,0.694
0.001539256531150247,0.695
0.0015449527451316318,0.696
0.0015507415557232142,0.697
0.001556624855534807,0.698
0.0015626044466873947,0.699
0.0015686814455385981,0.7
0.0015748559579982602,0.701
0.0015811271817216222,0.702
0.0015874937447116673,0.703
0.0015939539820601773,0.704
0.0016005060193873739,0.705
0.0016071476465750198,0.706
0.0016138760143673781,0.707
0.0016206873171153583,0.708
0.0016275767430845812,0.709
0.0016345387899638843,0.71
0.001641567695292975,0.711
0.0016486576638306853,0.712
0.0016558027502246203,0.713
0.0016629964602571925,0.714
0.0016702313520105226,0.715
0.0016774989144671558,0.716
0.0016847896322418608,0.717
0.001692092966956756,0.718
0.0016993973684850466,0.719
0.001706690688603323,0.72
0.0017139610136426423,0.721
0.001721197542779861,0.722
0.0017283911438733283,0.723
0.0017355343781266972,0.724
0.0017426209226745711,0.725
0.0017496446343230566,0.726
0.0017565989877701524,0.727
0.0017634774855035873,0.728
0.0017702747449990207,0.729
0.0017769875455963678,0.73
0.001783615464501033,0.731
0.0017901610695543269,0.732
0.001796629738919141,0.733
0.0018030291968813535,0.734
0.0018093688376307944,0.735
0.0018156588828741917,0.736
0.0018219094727621292,0.737
0.0018281299881386635,0.738
0.0018343289608230716,0.739
0.0018405145616677996,0.74
0.0018466952794984725,0.741
0.0018528804543732854,0.742
0.0018590805325213848,0.743
0.0018653069864612967,0.744
0.001871571876818975,0.745
0.0018778871430008813,0.746
0.0018842639441435964,0.747
0.00189071246245241,0.748
0.001897242175467271,0.749
0.001903862113645746,0.75
0.001910580732268784,0.751
0.0019174056140697016,0.752
0.0019243435556502999,0.753
0.0019314012067702536,0.754
0.0019385858260396903,0.755
0.0019459056688690018,0.756
0.0019533698656419656,0.757
0.0019609878926171746,0.758
0.0019687688427955474,0.759
0.0019767207291055623,0.76
0.001984849991874343,0.761
0.001993161257298775,0.762
0.0020016572866320666,0.763
0.0020103390202901488,0.764
0.0020192056180348998,0.765
0.002028254459650454,0.766
0.0020374812194286955,0.767
0.002046880152491478,0.768
0.0020564445637919655,0.769
0.0020661673228532964,0.77
0.002076041319045518,0.771
0.002086059795767996,0.772
0.002096216526756406,0.773
0.0021065058264747886,0.774
0.002116922415169407,0.775
0.0021274611769748785,0.776
0.002138116851614648,0.777
0.0021488836938690255,0.778
0.0021597551274354786,0.779
0.00217072341082093,0.78
0.0021817793224270837,0.781
0.002192911887571142,0.782
0.0022041082194233196,0.783
0.00221535353272149,0.784
0.0022266312883396848,0.785
0.0022379233815939623,0.786
0.002249210336373114,0.787
0.0022604715142005285,0.788
0.0022716853592868935,0.789
0.0022828296842792766,0.79
0.0022938819500751963,0.791
0.0023048194269507613,0.792
0.002315619095924043,0.793
0.0023262572276997583,0.794
0.0023367088492224942,0.795
0.002346947562937656,0.796
0.002356945896941879,0.797
0.002366675762105267,0.798
0.002376108475034058,0.799
0.002385214348272392,0.8
0.002393962596049555,0.801
0.0024023222574599762,0.802
0.002410263870929999,0.803
0.0024177611254703095,0.804
0.0024247920018326766,0.805
0.0024313392020585576,0.806
0.0024373897896943484,0.807
0.0024429340695695948,0.808
0.002447963924059944,0.809
0.002452471300541342,0.81
0.0024564478784989525,0.811
0.0024598862191863332,0.812
0.002462781570852757,0.813
0.0024651334071915487,0.814
0.0024669463405227856,0.815
0.0024682303405582076,0.816
0.0024690002775456877,0.817
0.0024692749019239657,0.818
0.0024690754456872283,0.819
0.0024684240632242976,0.82
0.00246734240069714,0.821
0.0024658506976712024,0.822
0.0024639676267238023,0.823
0.0024617105690615047,0.824
0.0024590958621808507,0.825
0.002456138839724121,0.826
0.002452853712098937,0.827
0.0024492533676905466,0.828
0.0024453491395317216,0.829
0.002441150555508909,0.83
0.0024366651419439143,0.831
0.002431898432550434,0.832
0.0024268542402562194,0.833
0.002421535023065568,0.834
0.0024159421007929342,0.835
0.0024100755671206853,0.836
0.0024039339794600764,0.837
0.002397514295566539,0.838
0.002390812489733956,0.839
0.002383824702423679,0.84
0.0023765484826009675,0.841
0.002368983830655373,0.842
0.0023611338665706708,0.843
0.0023530049905207038,0.844
0.0023446064821882676,0.845
0.0023359495886210724,0.846
0.0023270462476074386,0.847
0.0023179078040364933,0.848
0.002308544345810129,0.849
0.002298964972113866,0.85
0.002289178559406315,0.851
0.0022791944817488335,0.852
0.002269023154377337,0.853
0.002258676436315785,0.854
0.002248167882283547,0.855
0.0022375128045838666,0.856
0.0022267281147991414,0.857
0.002215831950737838,0.858
0.0022048431283916096,0.859
0.0021937804698837025,0.86
0.0021826620841971984,0.861
0.002171504813780797,0.862
0.0021603241644928928,0.863
0.0021491347862112355,0.864
0.002137951187670861,0.865
0.0021267883414792196,0.866
0.002115662044139234,0.867
0.0021045890247870626,0.868
0.0020935868445141554,0.869
0.0020826736465011557,0.87
0.0020718678059575466,0.871
0.002061187501215273,0.872
0.0020506502009009007,0.873
0.0020402721583976198,0.874
0.0020300682276818667,0.875
0.002020052221884897,0.876
0.0020102375841612578,0.877
0.0020006379652251164,0.878
0.001991267482639938,0.879
0.001982140599414236,0.88
0.001973271669527752,0.881
0.0019646743068808055,0.882
0.001956360809005702,0.883
0.0019483418368070537,0.884
0.0019406263482198084,0.885
0.001933221599479423,0.886
0.0019261331066743109,0.887
0.0019193646394525168,0.888
0.0019129183210746473,0.889
0.001906794791517782,0.89
0.0019009933473841806,0.891
0.001895512014766238,0.892
0.0018903475522122962,0.893
0.0018854953982588765,0.894
0.0018809495773127937,0.895
0.0018767025777792579,0.896
0.001872745253231258,0.897
0.001869066833063254,0.898
0.001865655077767905,0.899
0.0018624965286240585,0.9
0.001859576794788713,0.901
0.0018568808577054737,0.902
0.001854393384669709,0.903
0.0018520990417648237,0.904
0.0018499827938531206,0.905
0.0018480301686052188,0.906
0.0018462274464914456,0.907
0.001844561734495861,0.908
0.0018430208984520605,0.909
0.0018415933571355062,0.91
0.0018402677552603575,0.911
0.0018390325181989102,0.912
0.0018378753460214223,0.913
0.0018367829239860308,0.914
0.0018357412100924037,0.915
0.00183473633217187,0.916
0.0018337557825822278,0.917
0.001832789587241232,0.918
0.0018318312328437592,0.919
0.0018308781873124006,0.92
0.0018299319006727034,0.921
0.0018289972579484059,0.922
0.0018280815486469224,0.923
0.0018271931374505782,0.924
0.0018263402876052567,0.925
0.00182553077685321,0.926
0.001824772473049873,0.927
0.0018240742908617832,0.928
0.0018234468976782762,0.929
0.0018229029464136629,0.93
0.0018224568378086058,0.931
0.001822124091656296,0.932
0.0018219204752367392,0.933
0.0018218611285150783,0.934
0.0018219599960254422,0.935
0.0018222296862353373,0.936
0.0018226815208725786,0.937
0.0018233254970058924,0.938
0.001824170182790555,0.939
0.0018252227530724658,0.94
0.0018264892418646357,0.941
0.0018279748780204582,0.942
0.0018296843461812129,0.943
0.0018316219166082063,0.944
0.0018337914625348316,0.945
0.0018361964205288804,0.946
0.0018388397558832315,0.947
0.0018417239649841648,0.948
0.0018448510975397389,0.949
0.0018482227410579236,0.95
0.0018518398963272816,0.951
0.001855702702079999,0.952
0.0018598101094878612,0.953
0.0018641597927530006,0.954
0.0018687484695026405,0.955
0.0018735724525088945,0.956
0.0018786281581877518,0.957
0.0018839124509843891,0.958
0.0018894227948718794,0.959
0.0018951572026454434,0.96
0.0019011139927562746,0.961
0.001907291387817872,0.962
0.001913687020250972,0.963
0.0019202974398513082,0.964
0.0019271177281300815,0.965
0.0019341413048237573,0.966
0.0019413599687264059,0.967
0.0019487641613036412,0.968
0.001956343388322078,0.969
0.0019640866917073076,0.97
0.001971983043902976,0.971
0.0019800215519758025,0.972
0.0019881914076049375,0.973
0.0019964815809696192,0.974
0.0020048803284674205,0.975
0.0020133747338889115,0.976
0.002021950638990808,0.977
0.002030593131742186,0.978
0.0020392873848932686,0.979
0.0020480195465475896,0.98
0.0020567775142954405,0.981
0.0020655514921019635,0.982
0.002074334258832363,0.983
0.0020831211294852045,0.984
0.0020919096430643607,0.985
0.002100699046617762,0.986
0.0021094896537253147,0.987
0.002118282138254864,0.988
0.002127076793252572,0.989
0.0021358728462841986,0.99
0.0021446681041542505,0.991
0.0021534591450341942,0.992
0.0021622418961089853,0.993
0.0021710122519889535,0.994
0.002179766535636162,0.995
0.0021885017517400403,0.996
0.0021972156494955057,0.997
0.0022059066533067903,0.998
0.002214573732088409,0.999
0.0022232162627778104,1.0
0.002231833918462266,1.001
0.0022404265892143308,1.002
0.0022489943257124165,1.003
0.0022575372786569504,1.004
0.0022660555904567125,1.005
0.0022745491819927254,1.006
0.002283017370537948,1.007
0.002291458366886526,1.008
0.0022998689914796645,1.009
0.002308244999018267,1.01
0.0023165819530507814,1.011
0.002324876217293047,1.012
0.0023331256864391504,1.013
0.0023413300582435692,1.014
0.0023494905653033294,1.015
0.002357609186293767,1.016
0.002365687587884654,1.017
0.0023737264167404573,1.018
0.0023817254555170966,1.019
0.0023896844094238937,1.02
0.002397603669054584,1.021
0.0024054846615323075,1.022
0.002413329727432381,1.023
0.002421141577506787,1.024
0.002428922469537052,1.025
0.002436673450259281,1.026
0.00244439412014603,1.027
0.002452083003971764,1.028
0.0024597381033302913,1.029
0.002467357230544051,1.03
0.0024749380518148934,1.031
0.0024824779341138525,1.032
0.002489973720567298,1.033
0.0024974215551320155,1.034
0.0025048168410659226,1.035
0.0025121543539819,1.036
0.00251942845368436,1.037
0.0025266332758178195,1.038
0.0025337627633449868,1.039
0.002540810430606896,1.04
0.0025477688543547186,1.041
0.00255462913068498,1.042
0.0025613807610722224,1.043
0.0025680121772734005,1.044
0.0025745115858755445,1.045
0.0025808677132216863,1.046
0.002587070278026025,1.047
0.002593110165609027,1.048
0.0025989793205171362,1.049
0.0026046704056524443,1.05
0.002610176291233518,1.051
0.0026154894327856002,1.052
0.0026206011894480776,1.053
0.0026255012347564223,1.054
0.0026301773919176373,1.055
0.0026346160846855067,1.056
0.0026388031630879506,1.057
0.0026427247247105463,1.058
0.002646367724308031,1.059
0.002649720292975809,1.06
0.0026527717532080293,1.061
0.0026555123724226904,1.062
0.002657932922588907,1.063
0.0026600241066141108,1.064
0.0026617758857641473,1.065
0.0026631768063639957,1.066
0.00266421365110506,1.067
0.002664871780678911,1.068
0.002665136158184655,1.069
0.0026649927266877726,1.07
0.0026644298128078725,1.071
0.0026634392959678484,1.072
0.002662017309200604,1.073
0.0026601643068172465,1.074
0.002657884450388571,1.075
0.00265518438489446,1.076
0.0026520716317800863,1.077
0.0026485531563143236,1.078
0.0026446348749527087,1.079
0.0026403222783574296,1.08
0.0026356214863515843,1.081
0.0026305400642620005,1.082
0.0026250874684959243,1.083
0.0026192752424662705,1.084
0.002613117094599352,1.085
0.002606628940712731,1.086
0.0025998289079981677,1.087
0.002592737227501627,1.088
0.002585375929109972,1.089
0.0025777683016934873,1.09
0.002569938159855785,1.091
0.0025619090252548,1.092
0.002553703351390054,1.093
0.0025453418964292394,1.094
0.002536843327158405,1.095
0.002528224124664207,1.096
0.0025194987911118637,1.097
0.0025106802666212025,1.098
0.0025017804538553126,1.099
0.0024928107636962666,1.1
0.0024837825805926403,1.101
0.002474707548148815,1.102
0.0024655976185805808,1.103
0.002456464872393841,1.104
0.002447321172573149,1.105
0.0024381777475757462,1.106
0.002429044788276278,1.107
0.0024199311093637326,1.108
0.002410843896552755,1.109
0.002401788558803064,1.11
0.002392768722074196,1.111
0.0023837864080624,1.112
0.002374842412247407,1.113
0.0023659368337084763,1.114
0.0023570696475020453,1.115
0.00234824118501366,1.116
0.002339452407959879,1.117
0.0023307049072017567,1.118
0.0023220006010241075,1.119
0.002313341137697554,1.12
0.0023047271724992513,1.121
0.002296158008689927,1.122
0.002287631976305729,1.123
0.0022791472941276767,1.124
0.0022707029151254102,1.125
0.0022622991446813257,1.126
0.0022539380510754547,1.127
0.00224562372821265,1.128
0.0022373624442650905,1.129
0.002229162662124386,1.13
0.0022210348822898456,1.131
0.0022129912533631587,1.132
0.0022050449188950796,1.133
0.0021972091241845445,1.134
0.002189496331078145,1.135
0.002181917901319441,1.136
0.0021744846639077478,1.137
0.002167207967988702,1.138
0.002160100616767266,1.139
0.0021531773785232293,1.14
0.0021464549772581016,1.141
0.002139951570622091,1.142
0.0021336858374089982,1.143
0.002127675954522396,1.144
0.002121938917286106,1.145
0.0021164904919964674,1.146
0.0021113455851203247,1.147
0.0021065186140977084,1.148
0.0021020236947932743,1.149
0.0020978746570952536,1.15
0.00209408492739551,1.151
0.00209066729155637,1.152
0.002087633537962763,1.153
0.002084994083417784,1.154
0.0020827578586539663,1.155
0.002080932603269021,1.156
0.0020795253385762925,1.157
0.0020785426953722607,1.158
0.0020779909757280336,1.159
0.002077875969816394,1.16
0.002078202593840602,1.161
0.002078974465390265,1.162
0.002080193608880293,1.163
0.0020818604458011022,1.164
0.0020839740103258024,1.165
0.002086532186353387,1.166
0.0020895318155355934,1.167
0.0020929686143989342,1.168
0.0020968369386182278,1.169
0.002101129618333799,1.17
0.0021058381092958073,1.171
0.0021109528928257137,1.172
0.0021164637956795056,1.173
0.0021223599561238753,1.174
0.00212862947365632,1.175
0.0021352592022095464,1.176
0.0021422351084386436,1.177
0.0021495429912328718,1.178
0.0021571690102590454,1.179
0.0021650996791013196,1.18
0.002173321334543743,1.181
0.002181819536503738,1.182
0.0021905790534283874,1.183
0.002199584534006717,1.184
0.002208821260117624,1.185
0.0022182753871435776,1.186
0.0022279334990129144,1.187
0.002237781753301905,1.188
0.002247805368712987,1.189
0.0022579890239424333,1.19
0.0022683178203596233,1.191
0.0022787780552332897,1.192
0.002289357406520558,1.193
0.0023000444685964063,1.194
0.0023108278345903665,1.195
0.002321695323819687,1.196
0.0023326340116581216,1.197
0.002343631028155162,1.198
0.002354674449147321,1.199
0.002365753725809132,1.2
0.0023768595172104874,1.201
0.002387983020291895,1.202
0.002399115022506305,1.203
0.002410245066974626,1.204
0.002421361124688932,1.205
0.0024324497653360594,1.206
0.002443496409608021,1.207
0.0024544853471669278,1.208
0.00246539953243342,1.209
0.002476220312994526,1.21
0.0024869272380170907,1.211
0.0024974980417729917,1.212
0.002507908832339241,1.213
0.0025181344625656034,1.214
0.002528149028597397,1.215
0.0025379264293997656,1.216
0.0025474409195159107,1.217
0.0025566675829267914,1.218
0.002565582643567066,1.219
0.0025741635201518543,1.22
0.002582388547919849,1.221
0.0025902363337229296,1.222
0.002597684871739425,1.223
0.0026047108853800073,1.224
0.002611289945599464,1.225
0.0026173973923713377,1.226
0.0026230095805982265,1.227
0.0026281050367296414,1.228
0.0026326653633833167,1.229
0.002636675815994915,1.23
0.0026401254888633384,1.231
0.002643007070223733,1.232
0.0026453161553201513,1.233
0.0026470501466129576,1.234
0.0026482068686167985,1.235
0.0026487833073388814,1.236
0.002648775104863406,1.237
0.002648176975067878,1.238
0.0026469834663569933,1.239
0.0026451895130320943,1.24
0.0026427907136013533,1.241
0.0026397835074971443,1.242
0.0026361654101673547,1.243
0.002631935378309031,1.244
0.00262709424511933,1.245
0.0026216450526949098,1.246
0.0026155930760634223,1.247
0.0026089453982517967,1.248
0.002601710019521478,1.249
0.002593894703668142,1.25
0.002585506111603492,1.251
0.002576549806173327,1.252
0.0025670311116458458,1.253
0.002556956281092799,1.254
0.0025463335285928084,1.255
0.0025351737632397023,1.256
0.002523490943069723,1.257
0.002511301976389291,1.258
0.0024986261379818615,1.259
0.0024854840320476385,1.26
0.002471896316689698,1.261
0.002457882756492996,1.262
0.0024434621895243172,1.263
0.0024286533346322904,1.264
0.002413475809284257,1.265
0.0023979508882645026,1.266
0.0023821018982215897,1.267
0.00236595428212991,1.268
0.002349535388803503,1.269
0.0023328740442450126,1.27
0.002315999953252121,1.271
0.0022989429807115202,1.272
0.0022817323803651737,1.273
0.002264396098710272,1.274
0.0022469603605521256,1.275
0.0022294496563421734,1.276
0.002211887005404759,1.277
0.002194294281750026,1.278
0.0021766924989733098,1.279
0.002159102023534979,1.28
0.0021415426813297007,1.281
0.0021240337208910825,1.282
0.0021065936241359763,1.283
0.0020892398070307414,1.284
0.0020719883059146997,1.285
0.0020548535675398976,1.286
0.0020378484317188396,1.287
0.0020209843260369665,1.288
0.002004271618437678,1.289
0.0019877200301600157,1.29
0.0019713390114888918,1.291
0.0019551380158661534,1.292
0.00193912664895316,1.293
0.001923314691561447,1.294
0.0019077119906798726,1.295
0.0018923282013649939,1.296
0.0018771723738559443,1.297
0.0018622524807789826,1.298
0.001847575130707783,1.299
0.001833145618331489,1.3
0.00181896813060868,1.301
0.0018050458305330216,1.302
0.0017913807338647862,1.303
0.0017779734938511399,1.304
0.0017648232897376423,1.305
0.0017519278836414327,1.306
0.0017392836943919711,1.307
0.001726885769597833,1.308
0.0017147277851548173,1.309
0.0017028022887343468,1.31
0.0016911012219270006,1.311
0.001679616592916461,1.312
0.0016683411845121112,1.313
0.0016572692348841192,1.314
0.0016463970270941734,1.315
0.0016357232903549935,1.316
0.0016252492910740044,1.317
0.0016149785139483977,1.318
0.0016049159157287979,1.319
0.0015950669174445808,1.32
0.0015854365798308313,1.321
0.0015760294126869877,1.322
0.0015668497560377271,1.323
0.0015579022434370961,1.324
0.001549192010066774,1.325
0.001540724632180888,1.326
0.0015325059029686412,1.327
0.0015245415469986852,1.328
0.0015168369454259985,1.329
0.0015093969012815454,1.33
0.0015022254405614762,1.331
0.0014953256412442084,1.332
0.0014886995088253187,1.333
0.001482347946806503,1.334
0.0014762708734676194,1.335
0.0014704675062092909,1.336
0.0014649367891135605,1.337
0.0014596778969133079,1.338
0.0014546907194312865,1.339
0.0014499762211156754,1.34
0.0014455365835124617,1.341
0.0014413750691975918,1.342
0.0014374955856976675,1.343
0.0014339020474874434,1.344
0.0014305978751675183,1.345
0.0014275859958618076,1.346
0.0014248692778886685,1.347
0.0014224509693469846,1.348
0.001420334838072006,1.349
0.0014185250035587027,1.35
0.0014170255969537676,1.351
0.0014158404105445433,1.352
0.0014149726596499597,1.353
0.0014144249050568652,1.354
0.001414199111310497,1.355
0.0014142967730309515,1.356
0.001414719036119465,1.357
0.0014154667657697382,1.358
0.0014165405520567861,1.359
0.001417940676430266,1.36
0.001419667074043695,1.361
0.0014217193153010037,1.362
0.001424096603630027,1.363
0.0014267977584211712,1.364
0.001429821136194156,1.365
0.0014331644504472496,1.366
0.0014368245195422833,1.367
0.0014407970910396432,1.368
0.001445076874317339,1.369
0.0014496577204220497,1.37
0.0014545327972707801,1.371
0.0014596947088444726,1.372
0.001465135607241407,1.373
0.0014708473580901937,1.374
0.0014768217733103566,1.375
0.0014830508523209674,1.376
0.001489526909593339,1.377
0.0014962424500981593,1.378
0.0015031897770292216,1.379
0.0015103606259707536,1.38
0.0015177462483801222,1.381
0.0015253379660656295,1.382
0.0015331277659754174,1.383
0.001541108534541176,1.384
0.00154927379356149,1.385
0.0015576170793807195,1.386
0.0015661314613513119,1.387
0.0015748096835635813,1.388
0.001583644816264945,1.389
0.0015926308836234557,1.39
0.0016017631000408154,1.391
0.001611037635151783,1.392
0.0016204509787281869,1.393
0.001629999181084818,1.394
0.001639677460643152,1.395
0.0016494804023271393,1.396
0.001659402377613192,1.397
0.0016694377157228182,1.398
0.0016795804761952254,1.399
0.0016898239975232997,1.4
0.001700160693927494,1.401
0.0017105824113874224,1.402
0.0017210810395440034,1.403
0.0017316488594966665,1.404
0.0017422783750670162,1.405
0.0017529617674572962,1.406
0.0017636905799153025,1.407
0.0017744561781964812,1.408
0.001785250778110005,1.409
0.00179606841463421,1.41
0.0018069054575451649,1.411
0.0018177605491339508,1.412
0.0018286339741662569,1.413
0.0018395266332011917,1.414
0.0018504390729272347,1.415
0.0018613711450601628,1.416
0.0018723223655331698,1.417
0.0018832924129528043,1.418
0.0018942812534240119,1.419
0.0019052888174772508,1.42
0.0019163144054251896,1.421
0.001927356076088562,1.422
0.001938410255521299,1.423
0.0019494716699403395,1.424
0.001960533586376515,1.425
0.001971588300824767,1.426
0.001982627757130881,1.427
0.001993644130893543,1.428
0.0020046302309103866,1.429
0.0020155796138944903,1.43
0.002026486353187121,1.431
0.002037344457704842,1.432
0.002048147146652635,1.433
0.002058886515075384,1.434
0.0020695539341502593,1.435
0.002080140838721125,1.436
0.0020906393456849334,1.437
0.002101042472788256,1.438
0.002111343962334055,1.439
0.0021215378045132544,1.44
0.0021316176171870655,1.441
0.0021415760594675638,1.442
0.0021514044336411174,1.443
0.0021610925727228968,1.444
0.002170629036815391,1.445
0.0021800015699054553,1.446
0.002189197709703408,1.447
0.002198205395569806,1.448
0.002207013387162618,1.449
0.0022156113093226583,1.45
0.0022239891987282127,1.451
0.0022321367059125953,1.452
0.0022400426030686873,1.453
0.002247695220362762,1.454
0.0022550836454883452,1.455
0.002262199037488116,1.456
0.002269035626130506,1.457
0.0022755912526348445,1.458
0.0022818674211652307,1.459
0.002287868904511682,1.46
0.0022936030049381154,1.461
0.002299078591393005,1.462
0.0023043050176233125,1.463
0.002309291071580993,1.464
0.002314044277454705,1.465
0.0023185708425645475,1.466
0.0023228761165297158,1.467
0.002326965132793007,1.468
0.0023308429626186797,1.469
0.0023345148670367737,1.47
0.0023379863281657565,1.471
0.0023412630440595183,1.472
0.002344350937237616,1.473
0.0023472561755188332,1.474
0.0023499851634191547,1.475
0.0023525444517362294,1.476
0.002354940531333702,1.477
0.00235717951413535,1.478
0.0023592667494789243,1.479
0.002361206463928003,1.48
0.002363001527308815,1.481
0.002364653419350083,1.482
0.0023661624023443655,1.483
0.0023675278252622903,1.484
0.002368748432007336,1.485
0.002369822540821512,1.486
0.002370747997211513,1.487
0.0023715218605861836,1.488
0.002372139918368434,1.489
0.002372596340944557,1.49
0.0023728837768389093,1.491
0.0023729938055615995,1.492
0.0023729174096003345,1.493
0.002372645253840063,1.494
0.00237216776572874,1.495
0.002371475109911134,1.496
0.0023705571858944536,1.497
0.0023694037659214703,1.498
0.0023680048368970737,1.499
0.0023663511334318494,1.5
0.0023644347699620784,1.501
0.002362249816766514,1.502
0.002359792633337408,1.503
0.0023570617855057994,1.504
0.0023540574332271713,1.505
0.002350780265947915,1.506
0.0023472305172876594,1.507
0.0023434078716318735,1.508
0.0023393124551182283,1.509
0.002334946196621723,1.51
0.0023303137993203006,1.511
0.002325423070291253,1.512
0.002320284671269578,1.513
0.002314911467462267,1.514
0.0023093176780567813,1.515
0.0023035179783513944,1.516
0.0022975266146453717,1.517
0.0022913566379544306,1.518
0.0022850195790189544,1.519
0.002278525796746919,1.52
0.0022718852535667257,1.521
0.0022651082798216585,1.522
0.0022582060778662486,1.523
0.002251190863614805,1.524
0.002244075608196516,1.525
0.002236873411474813,1.526
0.0022295966970714907,1.527
0.002222256682022548,1.528
0.002214863515751679,1.529
0.002207426950959987,1.53
0.002199957075571906,1.531
0.002192464794657887,1.532
0.002184961978588385,1.533
0.002177461285475206,1.534
0.0021699757071637358,1.535
0.0021625179155219222,1.536
0.002155099565579898,1.537
0.002147730850700039,1.538
0.0021404205190457886,1.539
0.0021331762081925622,1.54
0.0021260048017234957,1.541
0.002118912665361245,1.542
0.0021119057481567027,1.543
0.0021049895430869394,1.544
0.0020981688895129807,1.545
0.0020914476179848505,1.546
0.002084828153053842,1.547
0.0020783113323731084,1.548
0.0020718965583010193,1.549
0.00206558206371964,1.55
0.0020593650318072735,1.551
0.002053241508345323,1.552
0.002047206177032665,1.553
0.002041252177439694,1.554
0.002035371206333771,1.555
0.0020295539807299126,1.556
0.002023790901747197,1.557
0.0020180727058133154,1.558
0.0020123909629905005,1.559
0.0020067383375629902,1.56
0.0020011085706653476,1.561
0.0019954961968021967,1.562
0.001989896047635984,1.563
0.0019843026106274495,1.564
0.001978709392592593,1.565
0.0019731086229831467,1.566
0.001967491550089541,1.567
0.0019618491723401603,1.568
0.001956173070171873,1.569
0.0019504561546217908,1.57
0.001944693265515847,1.571
0.0019388815806166647,1.572
0.0019330208124371563,1.573
0.0019271131715833465,1.574
0.0019211630705391225,1.575
0.001915176549091341,1.576
0.0019091604374560905,1.577
0.0019031214062173647,1.578
0.0018970652936605326,1.579
0.001890997085872516,1.58
0.0018849214655666567,1.581
0.0018788435098134099,1.582
0.0018727692490014619,1.583
0.0018667060205077954,1.584
0.0018606626167046274,1.585
0.001854649235502194,1.586
0.0018486772563232157,1.587
0.0018427588793102029,1.588
0.0018369066737353341,1.589
0.0018311330818074347,1.59
0.0018254499177336873,1.591
0.001819867915576175,1.592
0.0018143964408703368,1.593
0.0018090434887794364,1.594
0.0018038159464989214,1.595
0.0017987199566449074,1.596
0.001793761231507646,1.597
0.0017889452369378481,1.598
0.0017842772014672482,1.599
0.0017797619386880296,1.6
0.0017754035102113225,1.601
0.001771204836129766,1.602
0.0017671674587303025,1.603
0.0017632915639930206,1.604
0.0017595760971007522,1.605
0.0017560187551547896,1.606
0.0017526158588487676,1.607
0.0017493622993591425,1.608
0.0017462516939661405,1.609
0.0017432766668430998,1.61
0.0017404291177698602,1.611
0.0017377004423705295,1.612
0.0017350817235867546,1.613
0.0017325639195029396,1.614
0.001730138067884303,1.615
0.001727795500826242,1.616
0.001725528008920546,1.617
0.001723327835052499,1.618
0.0017211873542937817,1.619
0.0017190985218663677,1.62
0.0017170526590651555,1.621
0.0017150410927994288,1.622
0.0017130563801902145,1.623
0.0017110934481307963,1.624
0.0017091502410064344,1.625
0.0017072277514750427,1.626
0.0017053294594467148,1.627
0.00170346031934864,1.628
0.0017016255877889425,1.629
0.001699829989778131,1.63
0.0016980775957107603,1.631
0.0016963722133763537,1.632
0.0016947177866790404,1.633
0.0016931185307666034,1.634
0.0016915788238781716,1.635
0.0016901029554579627,1.636
0.0016886948096823003,1.637
0.0016873575261479197,1.638
0.0016860931714334985,1.639
0.001684902509715349,1.64
0.0016837849862631836,1.641
0.0016827389254964024,1.642
0.0016817618164561023,1.643
0.00168085056504273,1.644
0.0016800016564456409,1.645
0.0016792111954659764,1.646
0.0016784747966118176,1.647
0.0016777873204643556,1.648
0.0016771425749007162,1.649
0.0016765332615199084,1.65
0.0016759513378896145,1.651
0.0016753886386588535,1.652
0.0016748375009496494,1.653
0.0016742912702512945,1.654
0.0016737446509408394,1.655
0.001673193896734987,1.656
0.001672636857888937,1.657
0.001672072904860926,1.658
0.0016715027357920272,1.659
0.001670928057951225,1.66
0.0016703511210065197,1.661
0.0016697741055046822,1.662
0.0016691985537517938,1.663
0.0016686252688654624,1.664
0.0016680549107914678,1.665
0.001667488986405792,1.666
0.001666930770650025,1.667
0.0016663858997902187,1.668
0.0016658625297435166,1.669
0.001665371040864289,1.67
0.0016649233683669184,1.671
0.0016645321153619355,1.672
0.0016642096456799572,1.673
0.0016639673611998983,1.674
0.001663815295826422,1.675
0.001663761986488961,1.676
0.0016638145104894912,1.677
0.0016639786505584027,1.678
0.0016642591362894675,1.679
0.0016646598528069162,1.68
0.0016651839438920307,1.681
0.001665833792219438,1.682
0.0016666108812342325,1.683
0.0016675155792892449,1.684
0.001668546972847642,1.685
0.0016697029096164183,1.686
0.0016709802854105993,1.687
0.0016723754717111149,1.688
0.0016738847913121812,1.689
0.0016755050044049392,1.69
0.001677233762835659,1.691
0.0016790699628993879,1.692
0.001681013922906876,1.693
0.0016830673382891824,1.694
0.0016852330092362229,1.695
0.00168751437037017,1.696
0.0016899148655999772,1.697
0.0016924373036499769,1.698
0.0016950835280444183,1.699
0.0016978546540827965,1.7
0.001700751684973233,1.701
0.0017037761060730064,1.702
0.001706930211263767,1.703
0.0017102170803627637,1.704
0.0017136402196642826,1.705
0.001717202962703453,1.706
0.0017209078240660186,1.707
0.0017247560491720597,1.708
0.0017287474428414845,1.709
0.0017328803627775214,1.71
0.0017371518517397596,1.711
0.0017415579634436737,1.712
0.0017460941574525867,1.713
0.001750755527569007,1.714
0.0017555367197706155,1.715
0.0017604315979650631,1.716
0.0017654329956402755,1.717
0.0017705329027415504,1.718
0.001775723037632523,1.719
0.0017809954889164074,1.72
0.0017863432298326069,1.721
0.001791760462809987,1.722
0.001797242770301331,1.723
0.0018027870176046566,1.724
0.0018083909469532283,1.725
0.0018140524786210465,1.726
0.0018197690056803524,1.727
0.0018255372393578362,1.728
0.001831353865962859,1.729
0.0018372166372905186,1.73
0.0018431253727900858,1.731
0.0018490826128801402,1.732
0.0018550938211415518,1.733
0.0018611671084397066,1.734
0.0018673125404988907,1.735
0.0018735411507322611,1.736
0.001879863887541269,1.737
0.0018862909349115808,1.738
0.0018928317804344683,1.739
0.0018994958887711766,1.74
0.0019062934949368544,1.741
0.001913236181089042,1.742
0.0019203371360750842,1.743
0.0019276110952764136,1.744
0.0019350740033091405,1.745
0.0019427424768665073,1.746
0.0019506331666494206,1.747
0.00195876212209726,1.748
0.001967144247138292,1.749
0.00197579290417363,1.75
0.0019847196893126914,1.751
0.0019939343761614515,1.752
0.0020034450103720795,1.753
0.0020132581230118056,1.754
0.0020233790063634875,1.755
0.0020338119633765616,1.756
0.0020445604194187553,1.757
0.0020556267988935725,1.758
0.0020670122480962675,1.759
0.002078716603459701,1.76
0.0020907389439969756,1.761
0.002103078564746021,1.762
0.002115735968804134,1.763
0.0021287136164484864,1.764
0.002142016290098649,1.765
0.0021556509887619285,1.766
0.0021696263342159965,1.767
0.00218395155769013,1.768
0.0021986353999650333,1.769
0.0022136856012395898,1.77
0.0022291093321001143,1.771
0.002244914070968459,1.772
0.002261108249343447,1.773
0.0022777014189848174,1.774
0.0022947039690326783,1.775
0.002312126508936416,1.776
0.002329979087936356,1.777
0.002348270450365077,1.778
0.002367007527817824,1.779
0.002386195249411705,1.78
0.002405836542778046,1.781
0.002425932346123687,1.782
0.0024464815848120594,1.783
0.0024674811688111292,1.784
0.002488926060611508,1.785
0.002510809404999577,1.786
0.00253312265135206,1.787
0.0025558555712119806,1.788
0.0025789961165677403,1.789
0.0026025302189559116,1.79
0.0026264417778872353,1.791
0.002650712963692597,1.792
0.002675324673081819,1.793
0.002700256900476852,1.794
0.00272548889325138,1.795
0.0027509990279765487,1.796
0.0027767644032407504,1.797
0.002802760348763168,1.798
0.002828960297995558,1.799
0.002855336280589572,1.8
0.0028818597619651716,1.801
0.0029085023975445093,1.802
0.0029352364704193275,1.803
0.0029620349143469685,1.804
0.0029888708753051784,1.805
0.0030157168833129964,1.806
0.0030425440352544464,1.807
0.0030693218651641654,1.808
0.003096019154958392,1.809
0.0031226051740887942,1.81
0.003149050708841817,1.811
0.0031753285775072107,1.812
0.0032014135177705913,1.813
0.0032272814100568347,1.814
0.0032529080146700795,1.815
0.003278267866394393,1.816
0.0033033341633690178,1.817
0.0033280797684938517,1.818
0.003352478580328853,1.819
0.0033765065563222804,1.82
0.0034001421355473343,1.821
0.003423366041486673,1.822
0.0034461605243504166,1.823
0.003468508158837474,1.824
0.003490390487565414,1.825
0.003511787156118431,1.826
0.0035326761054111228,1.827
0.003553034619602685,1.828
0.0035728405453795873,1.829
0.003592073235539548,1.83
0.0036107140890759564,1.831
0.003628746660817599,1.832
0.0036461563508485323,1.833
0.0036629297396183792,1.834
0.0036790536945540907,1.835
0.00369451438849183,1.836
0.00370929632445033,1.837
0.0037233815448366302,1.838
0.003736749465493929,1.839
0.003749377672294948,1.84
0.0037612434768974972,1.841
0.0037723257812764797,1.842
0.0037826069027701607,1.843
0.003792074033759301,1.844
0.0038007199891821218,1.845
0.003808542963100671,1.846
0.00381554516205413,1.847
0.00382173057331619,1.848
0.003827102981065569,1.849
0.0038316657548521167,1.85
0.0038354236670532903,1.851
0.0038383853734074752,1.852
0.0038405651998533684,1.853
0.0038419837745133165,1.854
0.003842667534518595,1.855
0.0038426473206326253,1.856
0.0038419563919837416,1.857
0.003840628247362321,1.858
0.0038386947915433345,1.859
0.003836185524638305,1.86
0.0038331279269986935,1.861
0.0038295483998593612,1.862
0.0038254731100577258,1.863
0.0038209285947218997,1.864
0.0038159421898331975,1.865
0.0038105423194861017,1.866
0.0038047586352898464,1.867
0.003798621942957772,1.868
0.0037921638200785596,1.869
0.003785415842003474,1.87
0.0037784084860229875,1.871
0.0037711701775800474,1.872
0.003763727153068447,1.873
0.0037561042531823316,1.874
0.0037483260195781,1.875
0.003740417470073234,1.876
0.0037324043341528815,1.877
0.003724312743523985,1.878
0.00371616845125739,1.879
0.0037079957793004614,1.88
0.0036998167301513845,1.881
0.003691650758310334,1.882
0.0036835152253382516,1.883
0.0036754260486360486,1.884
0.0036673981326939423,1.885
0.003659445517335026,1.886
0.0036515813288242405,1.887
0.003643817628367606,1.888
0.0036361652208257837,1.889
0.0036286334272943093,1.89
0.0036212297677613633,1.891
0.003613959515711039,1.892
0.003606825294374746,1.893
0.003599827119101068,1.894
0.0035929630915754744,1.895
0.003586230477829319,1.896
0.0035796267756139314,1.897
0.0035731505426912584,1.898
0.0035668018513032723,1.899
0.0035605822651318137,1.9
0.003554494289791018,1.901
0.0035485403262697644,1.902
0.0035427214169503844,1.903
0.0035370364831650365,1.904
0.0035314825415256627,1.905
0.0035260554984267545,1.906
0.0035207507835881453,1.907
0.0035155635176825914,1.908
0.0035104882922730412,1.909
0.003505518752201796,1.91
0.0035006471708838734,1.911
0.003495864145205556,1.912
0.003491158439972273,1.913
0.003486516921648624,1.914
0.0034819244714113734,1.915
0.003477363771270103,1.916
0.0034728149654697097,1.917
0.003468255426969522,1.918
0.0034636599209027924,1.919
0.0034590011650887423,1.92
0.0034542505280337624,1.921
0.0034493786587918157,1.922
0.003444355974192528,1.923
0.0034391529578081735,1.924
0.0034337402099705997,1.925
0.003428088181486463,1.926
0.0034221665240151975,1.927
0.003415943242939215,1.928
0.0034093844180554758,1.929
0.003402455192472933,1.93
0.0033951217447614895,1.931
0.003387353410978815,1.932
0.003379124369303142,1.933
0.003370414562247167,1.934
0.003361209662595168,1.935
0.003351500031419827,1.936
0.0033412787545873826,1.937
0.0033305393519062034,1.938
0.003319274606554433,1.939
0.0033074775185024125,1.94
0.003295143577669097,1.941
0.0032822729178403178,1.942
0.003268871710335516,1.943
0.0032549527299306235,1.944
0.0032405351602859313,1.945
0.0032256437661223017,1.946
0.003210307582607444,1.947
0.0031945582795453193,1.948
0.0031784283655173135,1.949
0.003161949526525255,1.95
0.003145151628401397,1.951
0.0031280627048098928,1.952
0.0031107095757082377,1.953
0.003093118502584684,1.954
0.003075315627918969,1.955
0.0030573272143467104,1.956
0.003039179746788021,1.957
0.0030208999600107233,1.958
0.0030025148462414584,1.959
0.002984051679215631,1.96
0.002965538064996787,1.961
0.002947001998741675,1.962
0.0029284718776186806,1.963
0.0029099764080146944,1.964
0.0028915443613547814,1.965
0.002873204173989756,1.966
0.002854983434446427,1.967
0.0028369083322293716,1.968
0.0028190031419600982,1.969
0.0028012898199560716,1.97
0.002783787809638309,1.971
0.0027665140762688275,1.972
0.0027494832445401065,1.973
0.0027327076952254462,1.974
0.002716197570829611,1.975
0.002699960704684024,1.976
0.002684002526570358,1.977
0.002668326034234971,1.978
0.002652931933553715,1.979
0.002637819028957879,1.98
0.00262298489161955,1.981
0.0026084267530471004,1.982
0.0025941424816925455,1.983
0.0025801314326801806,1.984
0.0025663949542964583,1.985
0.002552936403179214,1.986
0.0025397606377386846,1.987
0.0025268730776310494,1.988
0.0025142785970890713,1.989
0.0025019807795923546,1.99
0.002489981962283227,1.991
0.0024782838871474536,1.992
0.002466888391553397,1.993
0.002455797756495216,1.994
0.0024450146161013055,1.995
0.0024345414781751407,1.996
0.0024243800050438653,1.997
0.0024145302948844253,1.998
0.0024049904076694885,1.999
0.0023957562236899,2.0
0.002386821592187084,2.001
0.0023781787198427565,2.002
0.002369818678978961,2.003
0.00236173184302837,2.004
0.002353908119403813,2.005
0.002346336943805373,2.006
0.0023390070531472103,2.007
0.0023319060827610345,2.008
0.002325020112119571,2.009
0.002318333419843482,2.01
0.0023118286402371143,2.011
0.002305487226939114,2.012
0.002299290033659233,2.013
0.0022932179431095815,2.014
0.00228725251668551,2.015
0.002281376572050113,2.016
0.0022755745307182457,2.017
0.002269832362507498,2.018
0.0022641370060822803,2.019
0.002258475411117074,2.02
0.0022528338628905607,2.021
0.002247198294204226,2.022
0.0022415554768759377,2.023
0.0022358943460116017,2.024
0.0022302068767078033,2.025
0.002224488295365079,2.026
0.002218736573857562,2.027
0.0022129512496344424,2.028
0.0022071319899687135,2.029
0.0022012779099795034,2.03
0.0021953882687302624,2.031
0.002189463873736679,2.032
0.00218350816652634,2.033
0.0021775275921072593,2.034
0.0021715312717985845,2.035
0.00216553012041324,2.036
0.0021595356241765028,2.037
0.0021535586410032855,2.038
0.0021476087533502312,2.039
0.0021416943761782786,2.04
0.0021358231804239117,2.041
0.002130002350317008,2.042
0.002124238609051108,2.043
0.0021185381494830775,2.044
0.002112906602069518,2.045
0.0021073491216490278,2.046
0.00210187059548799,2.047
0.002096475901269624,2.048
0.002091170109980612,2.049
0.0020859585477731968,2.05
0.0020808466855631704,2.051
0.0020758398803380463,2.052
0.0020709430164760068,2.053
0.002066160078204396,2.054
0.0020614937335094543,2.055
0.002056945190771651,2.056
0.002052514575138325,2.057
0.0020482017280105953,2.058
0.0020440071108390064,2.059
0.0020399325459465696,2.06
0.002035981606534761,2.061
0.0020321595297486143,2.062
0.002028472620440631,2.063
0.0020249273101066935,2.064
0.002021529369768878,2.065
0.002018283811860666,2.066
0.0020151954204259766,2.067
0.0020122693120323124,2.068
0.0020095110717486854,2.069
0.0020069264044904962,2.07
0.00200452048391036,2.071
0.002002297343300297,2.072
0.0020002596197065702,2.073
0.001998408593317959,2.074
0.001996744196416415,2.075
0.0019952649134347142,2.076
0.00199396783184512,2.077
0.001992848972317625,2.078
0.0019919036741491572,2.079
0.0019911267399712663,2.08
0.001990512241042707,2.081
0.001990053219334583,2.082
0.001989741787088819,2.083
0.0019895698549650563,2.084
0.0019895301425637956,2.085
0.0019896169796108404,2.086
0.0019898266417915523,2.087
0.001990157154902071,2.088
0.0019906076108265666,2.089
0.001991177197121154,2.09
0.0019918644035419658,2.091
0.001992666913675958,2.092
0.0019935822002162826,2.093
0.0019946083447500477,2.094
0.001995744654321344,2.095
0.0019969919146947297,2.096
0.001998352233874112,2.097
0.001999828475793944,2.098
0.002001423417163024,2.099
0.002003139016911577,2.1
0.0020049762290206244,2.101
0.002006935307643294,2.102
0.002009016092292367,2.103
0.00201121788819834,2.104
0.0020135390295893734,2.105
0.0020159765999984247,2.106
0.002018526663835328,2.107
0.002021184814341984,2.108
0.002023946623621734,2.109
0.0020268078018628242,2.11
0.002029764047124548,2.111
0.0020328106097810567,2.112
0.0020359417292480776,2.113
0.0020391503388276933,2.114
0.0020424283221184927,2.115
0.0020457671086734457,2.116
0.0020491582101655635,2.117
0.002052593516275256,2.118
0.0020560653518642536,2.119
0.0020595663696426907,2.12
0.0020630893900493714,2.121
0.002066627293200318,2.122
0.002070173020754338,2.123
0.002073719679931656,2.124
0.0020772606771728144,2.125
0.002080789758217487,2.126
0.0020843008113382517,2.127
0.002087787378948298,2.128
0.002091242154832708,2.129
0.00209465704961355,2.13
0.0020980240784074923,2.131
0.002101336654778925,2.132
0.0021045907260343684,2.133
0.002107785459557758,2.134
0.002110923384387248,2.135
0.0021140099934671103,2.136
0.0021170529036132575,2.137
0.0021200607353233838,2.138
0.002123041942391811,2.139
0.0021260039256406895,2.14
0.0021289527183592687,2.141
0.0021318931746516323,2.142
0.002134829313586589,2.143
0.0021377646094715807,2.144
0.002140702256199581,2.145
0.002143645479300216,2.146
0.002146597913331195,2.147
0.0021495640098301285,2.148
0.002152549415811972,2.149
0.0021555612668427817,2.15
0.0021586083523378943,2.151
0.0021617011144292216,2.152
0.0021648514357772955,2.153
0.002168072171686883,2.154
0.0021713764013599935,2.155
0.0021747765643582353,2.156
0.002178284011745514,2.157
0.0021819093844271187,2.158
0.0021856635252340984,2.159
0.002189558304944301,2.16
0.0021936070124951882,2.161
0.00219782423803761,2.162
0.002202225327162272,2.163
0.0022068255937290086,2.164
0.0022116395281906722,2.165
0.002216680221766676,2.166
0.0022219591598584168,2.167
0.002227486437229931,2.168
0.002233271326347942,2.169
0.0022393230108980564,2.17
0.0022456512148404254,2.171
0.0022522664516467492,2.172
0.002259179705450633,2.173
0.0022664016702895243,2.174
0.0022739422045535834,2.175
0.0022818106661136772,2.176
0.0022900169889017016,2.177
0.002298572802765122,2.178
0.002307492097558394,2.179
0.0023167912690274825,2.18
0.0023264885517604696,2.181
0.002336602964218,2.182
0.0023471530966298958,2.183
0.002358156306002715,2.184
0.0023696286483335786,2.185
0.00238158522516143,2.186
0.0023940404171874548,2.187
0.002407007812527563,2.188
0.002420499890455765,2.189
0.0024345275919001657,2.19
0.0024490999767118457,2.191
0.002464224151751438,2.192
0.002479905448422607,2.193
0.0024961476467165685,2.194
0.002512953078752981,2.195
0.0025303225603269626,2.196
0.002548255164922349,2.197
0.0025667479447908526,2.198
0.002585795805873549,2.199
0.0026053916454109763,2.2
0.0026255266252983222,2.201
0.002646190415524568,2.202
0.0026673713680985126,2.203
0.002689056638329595,2.204
0.0027112322517912407,2.205
0.002733883093169006,2.206
0.002756992795787946,2.207
0.0027805435412656824,2.208
0.0028045158101037784,2.209
0.002828888126748623,2.21
0.00285363681460451,2.211
0.002878735777394492,2.212
0.0029041563995673464,2.213
0.0029298676818641507,2.214
0.002955836604307194,2.215
0.002982028596083521,2.216
0.003008407990458688,2.217
0.0030349383753345257,2.218
0.0030615827798176304,2.219
0.003088303672609666,2.22
0.003115062780120443,2.221
0.00314182075716116,2.222
0.0031685367641797356,2.223
0.0031951680202469517,2.224
0.003221669403016021,2.225
0.003247993149886334,2.226
0.0032740886802418577,2.227
0.003299902519269329,2.228
0.0033253782781110116,2.229
0.0033504566442560915,2.23
0.0033750753531637764,2.231
0.003399169124630526,2.232
0.003422669583848381,2.233
0.003445505301721338,2.234
0.0034676021752572637,2.235
0.003488884312592161,2.236
0.003509275487812347,2.237
0.0035287011371839916,2.238
0.0035470907034917854,2.239
0.0035643799205719237,2.24
0.0035805124758147054,2.241
0.0035954404916190424,2.242
0.0036091234622964603,2.243
0.0036215256429207427,2.244
0.003632612880499956,2.245
0.0036423511940643673,2.246
0.0036507085004710824,2.247
0.0036576580907120783,2.248
0.003663181752233672,2.249
0.003667271769985597,2.25
0.0036699318268749053,2.251
0.003671176944137481,2.252
0.003671032615589238,2.253
0.003669533227535685,2.254
0.0036667197989329434,2.255
0.003662637091400903,2.256
0.003657330660884056,2.257
0.0036508453774565046,2.258
0.0036432264371305434,2.259
0.0036345218654974276,2.26
0.0036247848254957206,2.261
0.003614074947752191,2.262
0.0036024585482318777,2.263
0.0035900077871210416,2.264
0.0035767989625424407,2.265
0.003562910231047269,2.266
0.0035484193365930357,2.267
0.0035334023520682905,2.268
0.0035179339337473806,2.269
0.00350208830772924,2.27
0.003485939915532835,2.271
0.003469563333812976,2.272
0.003453032527816202,2.273
0.003436419821031027,2.274
0.0034197954090335533,2.275
0.00340322793336116,2.276
0.0033867856211183944,2.277
0.0033705371957800014,2.278
0.0033545522187646624,2.279
0.003338900833451751,2.28
0.003323653004148365,2.281
0.003308877482948272,2.282
0.003294640906424462,2.283
0.0032810073986021004,2.284
0.0032680386231228858,2.285
0.003255793844470476,2.286
0.0032443297617674766,2.287
0.00323370031136006,2.288
0.003223956652666416,2.289
0.003215147227578211,2.29
0.003207317720887628,2.291
0.003200511056904175,2.292
0.0031947676506022303,2.293
0.003190125831213886,2.294
0.0031866221944554696,2.295
0.0031842917652741384,2.296
0.0031831679942032572,2.297
0.0031832826757610022,2.298
0.0031846658892620327,2.299
0.0031873460231672244,2.3
0.0031913498798799536,2.301
0.003196702805326827,2.302
0.0032034287705881956,2.303
0.0032115503549519694,2.304
0.003221088628358332,2.305
0.0032320629803823508,2.306
0.003244490963436361,2.307
0.0032583881962382636,2.308
0.003273768321590977,2.309
0.0032906429584681762,2.31
0.0033090215621006487,2.311
0.0033289111568971515,2.312
0.003350316073333961,2.313
0.0033732379259014188,2.314
0.0033976758753969604,2.315
0.003423626939319661,2.316
0.0034510861107204384,2.317
0.0034800462222559377,2.318
0.003510497627699728,2.319
0.0035424278537658166,2.32
0.0035758214014307396,2.321
0.003610659818534712,2.322
0.0036469220455175233,2.323
0.0036845849195409086,2.324
0.0037236236699657423,2.325
0.0037640122651520697,2.326
0.003805723544821996,2.327
0.003848729142161099,2.328
0.0038929992284003983,2.329
0.003938502099045135,2.33
0.003985203619633512,2.331
0.004033066701850819,2.332
0.004082051206264515,2.333
0.004132114504626195,2.334
0.004183212453705231,2.335
0.004235300371246626,2.336
0.004288333759411983,2.337
0.004342268617842697,2.338
0.004397061232218148,2.339
0.004452667402609052,2.34
0.004509041271016944,2.341
0.004566134309255887,2.342
0.004623895181739879,2.343
0.004682270563954455,2.344
0.00474120625539756,2.345
0.004800647961654811,2.346
0.004860541539924805,2.347
0.004920832723349296,2.348
0.0049814664235626575,2.349
0.005042385773998945,2.35
0.005103531100787428,2.351
0.005164839001699523,2.352
0.005226241723087789,2.353
0.00528766699665376,2.354
0.005349038336574077,2.355
0.00541027564438931,2.356
0.005471295976900427,2.357
0.00553201437680464,2.358
0.005592344652951724,2.359
0.005652199996334125,2.36
0.005711493354529509,2.361
0.005770137527034863,2.362
0.005828044963367435,2.363
0.005885127237528685,2.364
0.005941294140915814,2.365
0.00599645249591283,2.366
0.0060505053864913436,2.367
0.0061033528287348215,2.368
0.006154894126712356,2.369
0.006205031135722311,2.37
0.006253671458139312,2.371
0.006300730825439302,2.372
0.00634613407217216,2.373
0.006389814318031467,2.374
0.006431710321779948,2.375
0.006471762682883212,2.376
0.0065099108102957045,2.377
0.006546092806148218,2.378
0.006580248320263383,2.379
0.006612322428209596,2.38
0.0066422689176765075,2.381
0.0066700525051090545,2.382
0.006695649911547859,2.383
0.006719049743504305,2.384
0.006740251144746577,2.385
0.0067592612519380224,2.386
0.006776091618131668,2.387
0.0067907542343616685,2.388
0.006803258678463139,2.389
0.006813611855030965,2.39
0.00682181995759184,2.391
0.006827890928619182,2.392
0.0068318362997002455,2.393
0.006833672334350727,2.394
0.006833420743599501,2.395
0.006831109216121888,2.396
0.0068267718756297845,2.397
0.006820449606191021,2.398
0.0068121900578789535,2.399
0.00680204712820978,2.4
0.006790079806588033,2.401
0.0067763504010846754,2.402
0.006760922259912549,2.403
0.006743857247647498,2.404
0.006725213751380046,2.405
0.006705046413212356,2.406
0.006683407976614527,2.407
0.0066603523075204575,2.408
0.006635937502033857,2.409
0.0066102285740562835,2.41
0.006583299429921513,2.411
0.006555233815181326,2.412
0.006526124977596515,2.413
0.006496073963228334,2.414
0.006465186721467308,2.415
0.00643357047755511,2.416
0.006401330354577675,2.417
0.0063685676778189645,2.418
0.006335380381715541,2.419
0.006301864179904904,2.42
0.006268113130674373,2.421
0.006234219412618442,2.422
0.006200272693447601,2.423
0.0061663594866914,2.424
0.006132562797768588,2.425
0.0060989622056789134,2.426
0.00606563436193187,2.427
0.006032653766691438,2.428
0.006000093633532194,2.429
0.005968026667718652,2.43
0.005936525621358997,2.431
0.005905663522621596,2.432
0.005875513498693878,2.433
0.005846148130289112,2.434
0.005817638302259777,2.435
0.00579005180914511,2.436
0.005763452577449427,2.437
0.005737901227656467,2.438
0.005713456547970891,2.439
0.005690176859900343,2.44
0.005668120711042993,2.441
0.005647346843872008,2.442
0.005627913599820273,2.443
0.005609877974300882,2.444
0.005593294495829491,2.445
0.005578214113943028,2.446
0.005564683464729911,2.447
0.005552744864820444,2.448
0.005542436883637519,2.449
0.0055337949567511,2.45
0.0055268516786023975,2.451
0.0055216367500340495,2.452
0.005518176707494868,2.453
0.005516494568970968,2.454
0.0055166094763067644,2.455
0.005518536352429533,2.456
0.0055222855785737835,2.457
0.0055278627340995526,2.458
0.00553526848062979,2.459
0.00554449865634797,2.46
0.005555544563087452,2.461
0.005568393320809016,2.462
0.005583028092521166,2.463
0.005599427984349174,2.464
0.005617567675455776,2.465
0.005637417333524239,2.466
0.005658943371914411,2.467
0.00568210991235971,2.468
0.005706880432297107,2.469
0.005733219236036179,2.47
0.005761092520790693,2.471
0.005790468836624115,2.472
0.005821318808195035,2.473
0.005853614106710074,2.474
0.005887325805183133,2.475
0.005922422494752833,2.476
0.005958868905970223,2.477
0.005996625686272187,2.478
0.006035650147580183,2.479
0.00607589721923236,2.48
0.006117320126934467,2.481
0.00615987077259784,2.482
0.006203499946857711,2.483
0.006248157533188887,2.484
0.006293792867006997,2.485
0.006340355369282363,2.486
0.006387795474445147,2.487
0.006436065749890553,2.488
0.006485122006221617,2.489
0.006534924141364296,2.49
0.006585436438596638,2.491
0.006636627051991459,2.492
0.0066884664861643905,2.493
0.006740925171620424,2.494
0.0067939711542700995,2.495
0.006847569772371346,2.496
0.006901686138152922,2.497
0.0069562891132750725,2.498
0.007011354995155066,2.499
0.00706686997499647,2.5
0.007122830969089802,2.501
0.007179244728006101,2.502
0.0072361254823744055,2.503
0.007293491642840887,2.504
0.007351362146073705,2.505
0.0074097531414466095,2.506
0.007468675948527885,2.507
0.00752813680943919,2.508
0.007588137822650359,2.509
0.007648678003354418,2.51
0.007709753975215608,2.511
0.007771360294216246,2.512
0.007833489514319527,2.513
0.007896132086774827,2.514
0.007959276121811014,2.515
0.008022906954049896,2.516
0.008087006394997489,2.517
0.008151551591047001,2.518
0.008216513769110787,2.519
0.008281857699909394,2.52
0.008347542390469049,2.521
0.008413522436646377,2.522
0.008479749161684666,2.523
0.008546171131452762,2.524
0.008612733875056847,2.525
0.00867937878033074,2.526
0.008746041887062421,2.527
0.00881265422205597,2.528
0.008879144670290575,2.529
0.008945444510051444,2.53
0.009011491978838205,2.531
0.009077235634396339,2.532
0.009142635639843515,2.533
0.009207662463522328,2.534
0.009272293040413151,2.535
0.009336505516570986,2.536
0.0094002753253523,2.537
0.009463575172069047,2.538
0.009526378469121263,2.539
0.009588663667857775,2.54
0.009650417863193308,2.541
0.009711639400740215,2.542
0.009772339427078693,2.543
0.009832542117486494,2.544
0.009892283281266626,2.545
0.009951607277113415,2.546
0.010010562556148525,2.547
0.010069196675480329,2.548
0.010127552402532864,2.549
0.010185666602559923,2.55
0.01024357191747654,2.551
0.01030129958185612,2.552
0.010358882061654143,2.553
0.010416355225245751,2.554
0.010473759975393935,2.555
0.010531143090044747,2.556
0.010588556951055523,2.557
0.010646057957036345,2.558
0.01070370368092307,2.559
0.010761549190623627,2.56
0.010819643652677359,2.561
0.010878028927166905,2.562
0.010936740757657246,2.563
0.010995811196622308,2.564
0.011055270725593291,2.565
0.011115149553039992,2.566
0.011175477970433481,2.567
0.011236285614790842,2.568
0.011297599577254533,2.569
0.01135944172042886,2.57
0.011421826408948739,2.571
0.011484760067543452,2.572
0.011548242593186908,2.573
0.011612269239477481,2.574
0.011676831828514367,2.575
0.01174191902964305,2.576
0.011807515827755424,2.577
0.011873602394788492,2.578
0.011940152628307376,2.579
0.01200713260509476,2.58
0.012074499131923166,2.581
0.012142198638902046,2.582
0.012210166865758591,2.583
0.012278329643608829,2.584
0.012346604580390117,2.585
0.012414903287493465,2.586
0.012483133878306242,2.587
0.01255120338692902,2.588
0.012619019597691229,2.589
0.012686491754592482,2.59
0.012753529768356229,2.591
0.012820041797254619,2.592
0.01288593082125634,2.593
0.012951092280013763,2.594
0.013015415009258525,2.595
0.01307878530291113,2.596
0.013141091872436199,2.597
0.013202229814552754,2.598
0.013262102735107724,2.599
0.01332062269172403,2.6
0.01337770794279738,2.601
0.01343327881199807,2.602
0.013487252583945062,2.603
0.013539539577521657,2.604
0.013590042836774563,2.605
0.01363866160044411,2.606
0.013685296333604536,2.607
0.013729853301469351,2.608
0.013772247846737471,2.609
0.013812405970434068,2.61
0.013850263986675085,2.611
0.013885766362841515,2.612
0.013918862229362401,2.613
0.013949501245348205,2.614
0.013977629397802742,2.615
0.01400318524347526,2.616
0.014026097700751056,2.617
0.014046286941490117,2.618
0.014063668832436801,2.619
0.01407816185801887,2.62
0.014089695146041564,2.621
0.014098216376149985,2.622
0.014103698128005973,2.623
0.014106141051692722,2.624
0.014105572574602486,2.625
0.014102040745624505,2.626
0.014095604278943514,2.627
0.014086322617388925,2.628
0.014074251981929796,2.629
0.014059449609832535,2.63
0.014041981783049709,2.631
0.014021930698103457,2.632
0.013999398802359161,2.633
0.013974510768754847,2.634
0.013947413196385934,2.635
0.013918272049766962,2.636
0.013887267936823692,2.637
0.013854589595048145,2.638
0.013820426487987578,2.639
0.013784962563249764,2.64
0.013748373839623124,2.641
0.01371083023682023,2.642
0.013672498986857032,2.643
0.013633547140164329,2.644
0.013594142648702867,2.645
0.01355445434158543,2.646
0.013514651142101246,2.647
0.013474900852171854,2.648
0.013435368756305755,2.649
0.013396216183342639,2.65
0.013357599033571676,2.651
0.01331966617326566,2.652
0.0132825576264309,2.653
0.0132464029185371,2.654
0.013211320433151182,2.655
0.013177418091700121,2.656
0.013144794463608485,2.657
0.013113539288701773,2.658
0.013083733138328632,2.659
0.0130554464606223,2.66
0.013028738642593752,2.661
0.01300365788157883,2.662
0.012980242048906522,2.663
0.01295851993956107,2.664
0.012938512274317472,2.665
0.012920232207180766,2.666
0.012903685274205285,2.667
0.012888868786226554,2.668
0.012875770761860708,2.669
0.012864368697994332,2.67
0.01285462875813111,2.671
0.012846505814423696,2.672
0.012839944142986273,2.673
0.012834878316139695,2.674
0.012831234183336399,2.675
0.012828930132565624,2.676
0.012827878807982002,2.677
0.012827989254693207,2.678
0.012829169168778999,2.679
0.012831326656540324,2.68
0.01283437078352511,2.681
0.012838210297201428,2.682
0.012842750636195987,2.683
0.012847891245566142,2.684
0.012853526460476878,2.685
0.012859550929522928,2.686
0.012865866952336021,2.687
0.012872390365334439,2.688
0.012879052892585502,2.689
0.012885799991566364,2.69
0.012892584503775305,2.691
0.012899359248348072,2.692
0.01290607433367212,2.693
0.012912681829226029,2.694
0.012919143858929661,2.695
0.012925439012513524,2.696
0.012931565141650206,2.697
0.012937538355076033,2.698
0.01294338848645132,2.699
0.012949151810161999,2.7
0.012954863189157973,2.701
0.012960551816046951,2.702
0.012966242950397522,2.703
0.012971963061048926,2.704
0.01297774452635767,2.705
0.01298362850757047,2.706
0.012989666027214398,2.707
0.012995917429433403,2.708
0.01300245047388081,2.709
0.013009337390343101,2.71
0.013016651257669688,2.711
0.013024462042781734,2.712
0.013032832847690365,2.713
0.013041817565164098,2.714
0.013051461096223108,2.715
0.01306180187759839,2.716
0.013072875461877395,2.717
0.013084718245086958,2.718
0.013097370891788453,2.719
0.013110880926242758,2.72
0.013125303811240444,2.721
0.013140701969526264,2.722
0.013157141643910868,2.723
0.013174688061112815,2.724
0.01319340035810708,2.725
0.013213328806283411,2.726
0.013234515570713522,2.727
0.01325699724744114,2.728
0.013280806954395173,2.729
0.013305975407455206,2.73
0.013332531209499886,2.731
0.013360500550404435,2.732
0.013389906459129387,2.733
0.013420767730280723,2.734
0.01345309766425609,2.735
0.0134869027822615,2.736
0.013522181677856716,2.737
0.013558924130184651,2.738
0.013597110522998033,2.739
0.01363671149454348,2.74
0.013677687616590658,2.741
0.01371998880593552,2.742
0.013763553518074253,2.743
0.013808308700481756,2.744
0.013854171528373425,2.745
0.013901052570394463,2.746
0.01394885915772316,2.747
0.013997498015547798,2.748
0.014046876649627508,2.749
0.014096903235535026,2.75
0.014147484855679786,2.751
0.014198524288738962,2.752
0.014249917130331736,2.753
0.014301552341968213,2.754
0.014353317194974121,2.755
0.014405103905369525,2.756
0.014456814628401485,2.757
0.014508363145143137,2.758
0.014559672785829493,2.759
0.014610670830093443,2.76
0.014661281606446775,2.761
0.014711423420972293,2.762
0.014761012503741027,2.763
0.014809970788580453,2.764
0.014858232476084447,2.765
0.014905747212919393,2.766
0.014952479639248053,2.767
0.014998405687487436,2.768
0.015043506517730036,2.769
0.015087761486617316,2.77
0.015131142429481086,2.771
0.015173611620193522,2.772
0.015215123366851655,2.773
0.015255626615942703,2.774
0.015295066342513043,2.775
0.01533338325505285,2.776
0.015370512124067707,2.777
0.01540637926412077,2.778
0.015440899914981295,2.779
0.015473976373120832,2.78
0.015505497638058958,2.781
0.015535341069540548,2.782
0.015563376165874443,2.783
0.015589470113452268,2.784
0.015613494255047789,2.785
0.015635330175588536,2.786
0.015654873867394482,2.787
0.015672036541844757,2.788
0.01568674112734051,2.789
0.015698915104027995,2.79
0.01570848399920961,2.791
0.015715371725175516,2.792
0.015719508910274172,2.793
0.01572084383319984,2.794
0.015719350429443724,2.795
0.01571503126391564,2.796
0.015707915386878706,2.797
0.01569805188546875,2.798
0.0156855005640846,2.799
0.015670321999423753,2.8
0.015652570500109642,2.801
0.015632292798682015,2.802
0.015609531446130516,2.803
0.015584329392391178,2.804
0.015556733657275543,2.805
0.015526797958661938,2.806
0.015494584550569498,2.807
0.01546016526356042,2.808
0.015423621544402601,2.809
0.015385043225501868,2.81
0.015344525783878798,2.811
0.015302165930054325,2.812
0.015258056254169362,2.813
0.015212281779402115,2.814
0.015164921514251962,2.815
0.015116054514043522,2.816
0.01506576701793152,2.817
0.015014157838803242,2.818
0.01496134071513778,2.819
0.01490744311009782,2.82
0.014852601581895188,2.821
0.014796954702371674,2.822
0.014740636007175512,2.823
0.014683770614734132,2.824
0.01462647670394196,2.825
0.014568868857483323,2.826
0.014511060063894788,2.827
0.014453161702981134,2.828
0.014395282076870663,2.829
0.014337524209049067,2.83
0.014279983682903084,2.831
0.01422274717113311,2.832
0.01416589196866855,2.833
0.01410948634383473,2.834
0.0140535900591319,2.835
0.013998254217437039,2.836
0.013943520202164564,2.837
0.013889418986930245,2.838
0.013835972455003082,2.839
0.013783196435493235,2.84
0.013731103530133371,2.841
0.01367970419976902,2.842
0.013629005654978333,2.843
0.013579009104130001,2.844
0.013529707206966182,2.845
0.013481083969934032,2.846
0.013433117444631658,2.847
0.01338578353429899,2.848
0.013339059337776116,2.849
0.01329292545507517,2.85
0.013247366940726141,2.851
0.013202372484667038,2.852
0.013157931460711064,2.853
0.013114029597930012,2.854
0.013070646322518168,2.855
0.013027756672496432,2.856
0.012985336771660513,2.857
0.012943369314432181,2.858
0.012901846541073866,2.859
0.012860769738338764,2.86
0.012820145174526041,2.861
0.012779978024948808,2.862
0.012740268175538633,2.863
0.012701010686868556,2.864
0.012662198836326298,2.865
0.012623825610914637,2.866
0.012585881984279982,2.867
0.012548353737123014,2.868
0.012511220677219688,2.869
0.012474460138827205,2.87
0.012438052164509618,2.871
0.012401982613333945,2.872
0.012366242429695603,2.873
0.01233082355810323,2.874
0.012295714795135308,2.875
0.012260901912319558,2.876
0.012226372538401873,2.877
0.012192121867007423,2.878
0.012158155414185651,2.879
0.012124487506996113,2.88
0.01209113615036712,2.881
0.012058117377658991,2.882
0.012025443465119396,2.883
0.01199312585335112,2.884
0.01196117893644803,2.885
0.011929621243632624,2.886
0.011898473672489474,2.887
0.011867755850059043,2.888
0.011837482091374155,2.889
0.011807659073695222,2.89
0.01177828664195915,2.891
0.011749360851268167,2.892
0.011720877388509325,2.893
0.011692834476798407,2.894
0.0116652350893973,2.895
0.0116380881934303,2.896
0.011611408434771084,2.897
0.011585213610449516,2.898
0.011559520351596232,2.899
0.011534340710410432,2.9
0.011509682354777341,2.901
0.011485551302708891,2.902
0.01146195365515866,2.903
0.011438894401446107,2.904
0.011416374222464134,2.905
0.011394387068542764,2.906
0.011372920473615895,2.907
0.011351957368416456,2.908
0.011331476557683004,2.909
0.011311451320179605,2.91
0.011291849315516076,2.911
0.011272636657979151,2.912
0.011253784460387446,2.913
0.011235274103429385,2.914
0.011217099288277426,2.915
0.011199264703211097,2.916
0.011181781963080967,2.917
0.011164663986584254,2.918
0.011147919803484826,2.919
0.011131552480385148,2.92
0.011115561053514104,2.921
0.011099944257155731,2.922
0.011084703430121075,2.923
0.01106984347244769,2.924
0.011055371458955097,2.925
0.01104129327356573,2.926
0.011027610502583,2.927
0.01101432053865323,2.928
0.011001420067353223,2.929
0.010988909007040196,2.93
0.010976792274689125,2.931
0.010965078674867408,2.932
0.010953777363437398,2.933
0.010942893596885573,2.934
0.010932426875846394,2.935
0.010922373084765144,2.936
0.01091272861523147,2.937
0.01090349371760624,2.938
0.010894674142843693,2.939
0.010886281193876152,2.94
0.01087833054838869,2.941
0.010870840408352418,2.942
0.010863829638890944,2.943
0.010857316473426987,2.944
0.010851318024838989,2.945
0.010845850351277832,2.946
0.010840928412110358,2.947
0.010836565143816049,2.948
0.010832769397314156,2.949
