VaMe,time
-0.004295031398220013,0.001
-0.004032232417323901,0.002
-0.0037710968211869273,0.003
-0.0035118592191104073,0.004
-0.003254741623354287,0.005
-0.002999952370900353,0.006
-0.00274768779108923,0.007
-0.0024981351332599966,0.008
-0.0022514734423278557,0.009
-0.002007870656598421,0.01
-0.0017674789483286457,0.011
-0.0015304311489605059,0.012
-0.0012968393457697372,0.013
-0.0010667956334473637,0.014
-0.0008403747045863363,0.015
-0.0006176377936084423,0.016
-0.0003986372075592243,0.017
-0.0001834199930462719,0.018
2.797084843575412e-05,0.019
0.00023549755243553705,0.02
0.00043912941344798485,0.021
0.000638843773051262,0.022
0.0008346259202842662,0.023
0.0010264681843455926,0.024
0.0012143685807268414,0.025
0.0013983293696088342,0.026
0.0015783558121324785,0.027
0.0017544552879323024,0.028
0.0019266367897447208,0.029
0.002094910669010667,0.03
0.002259288414404368,0.031
0.00241978223901567,0.032
0.002576404328884317,0.033
0.0027291659046933315,0.034
0.0028780767144606398,0.035
0.0030231454243539037,0.036
0.0031643805674161575,0.037
0.003301791401311734,0.038
0.00343538834962934,0.039
0.003565182957405252,0.04
0.0036911874114713204,0.041
0.0038134137837719244,0.042
0.003931873207740739,0.043
0.004046575164066265,0.044
0.004157526936035708,0.045
0.004264733136656566,0.046
0.004368195255009183,0.047
0.0044679115925700345,0.048
0.004563878136268007,0.049
0.004656090379757818,0.05
0.004744545561735824,0.051
0.004829244713186277,0.052
0.004910194010885249,0.053
0.0049874050986991525,0.054
0.00506089427303078,0.055
0.005130680648994362,0.056
0.0051967836943735855,0.057
0.005259221101963095,0.058
0.005318008349556547,0.059
0.005373160376859232,0.06
0.00542469443710516,0.061
0.005472633077228608,0.062
0.005517006802307335,0.063
0.005557856129942418,0.064
0.0055952326099945075,0.065
0.00562919835117914,0.066
0.0056598237493651424,0.067
0.005687183655656232,0.068
0.005711353572933273,0.069
0.0057324085117540806,0.07
0.005750425390639581,0.071
0.0057654868886822174,0.072
0.0057776843895488055,0.073
0.005787119236688381,0.074
0.005793902348617862,0.075
0.00579815244674353,0.076
0.005799993310542221,0.077
0.005799550549969058,0.078
0.005796948532686212,0.079
0.0057923084020835664,0.08
0.005785747796263785,0.081
0.00577738173149937,0.082
0.005767323569634085,0.083
0.005755685542512462,0.084
0.005742578887045434,0.085
0.005728113775619411,0.086
0.005712399177422533,0.087
0.005695542707602605,0.088
0.005677650433294142,0.089
0.005658826535654303,0.09
0.005639172722786247,0.091
0.005618787376139865,0.092
0.005597764639358868,0.093
0.005576193889828138,0.094
0.005554159796506847,0.095
0.005531742618011096,0.096
0.005509018314598374,0.097
0.005486058375507018,0.098
0.005462929530519432,0.099
0.005439693662457884,0.1
0.0054164080866168675,0.101
0.005393125994952876,0.102
0.005369896766390923,0.103
0.005346766009149491,0.104
0.005323775319892907,0.105
0.00530096188685101,0.106
0.005278358285106226,0.107
0.005255992740023013,0.108
0.005233889737854343,0.109
0.005212070699322471,0.11
0.00519055457272579,0.111
0.0051693582797244135,0.112
0.005148496914364032,0.113
0.005127983561571135,0.114
0.005107828681119445,0.115
0.005088039431861221,0.116
0.0050686197708821835,0.117
0.0050495716994111975,0.118
0.005030896962732159,0.119
0.005012598218801448,0.12
0.004994679157124743,0.121
0.004977143482595303,0.122
0.004959993263065226,0.123
0.0049432279540146526,0.124
0.0049268451201498805,0.125
0.00491084232690169,0.126
0.004895218951589296,0.127
0.004879977193613754,0.128
0.0048651220501669526,0.129
0.004850660207070379,0.13
0.0048365981528380635,0.131
0.004822940551970157,0.132
0.004809690135990806,0.133
0.004796849193620114,0.134
0.004784421464295831,0.135
0.004772413349136147,0.136
0.004760834080454498,0.137
0.0047496948559161666,0.138
0.0047390071114730295,0.139
0.004728780579165604,0.14
0.004719022349761799,0.141
0.004709737511296827,0.142
0.004700930405244697,0.143
0.004692605277712376,0.144
0.004684765963593601,0.145
0.004677414820091487,0.146
0.004670551502621656,0.147
0.004664172402419327,0.148
0.004658270972568729,0.149
0.004652838252865062,0.15
0.004647862874146624,0.151
0.0046433305318632195,0.152
0.004639223551588642,0.153
0.004635521147009884,0.154
0.004632200246391535,0.155
0.004629236257124289,0.156
0.004626603303716408,0.157
0.004624273772494356,0.158
0.004622217427613292,0.159
0.004620401040176707,0.16
0.0046187892590300456,0.161
0.004617346194456973,0.162
0.004616036629771662,0.163
0.004614826234030499,0.164
0.004613680632974027,0.165
0.004612563912937403,0.166
0.004611438037507307,0.167
0.004610264064413513,0.168
0.004609004189148485,0.169
0.004607623099570769,0.17
0.004606088012234942,0.171
0.004604367472582331,0.172
0.004602429437095407,0.173
0.004600239606673303,0.174
0.004597760887129834,0.175
0.004594953898534353,0.176
0.004591777728105967,0.177
0.0045881904533108305,0.178
0.00458414956123386,0.179
0.0045796125467106,0.18
0.004574537853756345,0.181
0.004568886134739448,0.182
0.004562621585599058,0.183
0.0045557129222950484,0.184
0.004548133455894489,0.185
0.004539859781864378,0.186
0.004530869443565509,0.187
0.004521139590393963,0.188
0.004510648525620416,0.189
0.004499379364266888,0.19
0.004487323494252848,0.191
0.004474482432956112,0.192
0.004460867773335793,0.193
0.004446499415005217,0.194
0.004431402562621713,0.195
0.004415604250132801,0.196
0.004399130539765567,0.197
0.004382005456981488,0.198
0.004364251548333357,0.199
0.004345890919691862,0.2
0.004326945989464617,0.201
0.004307439993109712,0.202
0.004287397462721643,0.203
0.004266844763128464,0.204
0.004245810630979553,0.205
0.0042243265771568055,0.206
0.004202426995688059,0.207
0.004180148864630705,0.208
0.004157530987846376,0.209
0.004134612777920776,0.21
0.004111432762390599,0.211
0.00408802746470368,0.212
0.004064431459171135,0.213
0.004040678576901536,0.214
0.0040168033532466145,0.215
0.003992841893489202,0.216
0.003968831890387156,0.217
0.00394481188701943,0.218
0.003920820068228118,0.219
0.003896892959209463,0.22
0.0038730643900536164,0.221
0.00384936496849785,0.222
0.003825822133844127,0.223
0.0038024606962425464,0.224
0.003779303638277792,0.225
0.0037563728882208207,0.226
0.003733689772497369,0.227
0.003711274925679684,0.228
0.0036891476506999516,0.229
0.003667325177662897,0.23
0.0036458225612609747,0.231
0.0036246534278100875,0.232
0.003603830974678964,0.233
0.003583368581590839,0.234
0.003563279846958487,0.235
0.0035435781407732307,0.236
0.003524275868684921,0.237
0.0035053836794788074,0.238
0.003486909814457554,0.239
0.0034688597207750585,0.24
0.0034512359739057065,0.241
0.0034340385013886744,0.242
0.003417265064123433,0.243
0.003400911911589135,0.244
0.0033849744735578047,0.245
0.0033694478961046217,0.246
0.0033543272009442914,0.247
0.003339606869817931,0.248
0.0033252800258389164,0.249
0.003311338114464796,0.25
0.0032977718551598645,0.251
0.003284572999357492,0.252
0.0032717358492785633,0.253
0.003259257986780059,0.254
0.003247140178792637,0.255
0.0032353856704152167,0.256
0.0032239991636897804,0.257
0.0032129857210168,0.258
0.0032023496996240438,0.259
0.0031920938141375243,0.26
0.0031822186490695213,0.261
0.00317272296506922,0.262
0.003163604689865565,0.263
0.003154862146507249,0.264
0.00314649517789294,0.265
0.003138506009948387,0.266
0.0031308997620097226,0.267
0.003123684537278473,0.268
0.003116871048924198,0.269
0.0031104717749342484,0.27
0.003104499701968649,0.271
0.003098966950984449,0.272
0.0030938839357916807,0.273
0.0030892595145619478,0.274
0.003085101803055173,0.275
0.003081418996915202,0.276
0.003078219890508907,0.277
0.0030755140558666786,0.278
0.0030733116981523957,0.279
0.0030716232264443736,0.28
0.0030704586148632878,0.281
0.003069826656125627,0.282
0.003069734243659975,0.283
0.003070185888754392,0.284
0.0030711836415759177,0.285
0.0030727273430432214,0.286
0.0030748149644984645,0.287
0.0030774428789893224,0.288
0.0030806060377468456,0.289
0.0030842980388934957,0.29
0.0030885110355092153,0.291
0.003093235425362412,0.292
0.0030984594375140927,0.293
0.0031041690151549692,0.294
0.0031103482615607927,0.295
0.0031169801917969924,0.296
0.0031240473661063644,0.297
0.003131532217457291,0.298
0.0031394170599377677,0.299
0.0031476838247915784,0.3
0.0031563136055654762,0.301
0.003165286107502448,0.302
0.0031745790926014732,0.303
0.003184167898186069,0.304
0.0031940251123248956,0.305
0.0032041205039834357,0.306
0.0032144212630756666,0.307
0.003224892541237895,0.308
0.0032354982754421078,0.309
0.0032462022504716873,0.31
0.0032569692510452247,0.311
0.003267766047963071,0.312
0.003278561938530696,0.313
0.0032893286434707183,0.314
0.0033000395247819226,0.315
0.003310668264898778,0.316
0.0033211874218685095,0.317
0.0033315675999335136,0.318
0.0033417776984820007,0.319
0.0033517858822944423,0.32
0.0033615606456407865,0.321
0.003371071667034305,0.322
0.0033802903376505865,0.323
0.0033891898624587016,0.324
0.0033977448759728228,0.325
0.0034059305633425112,0.326
0.003413721471383159,0.327
0.003421090703153384,0.328
0.003428010361801405,0.329
0.0034344532957208984,0.33
0.003440395285253537,0.331
0.0034458167162176646,0.332
0.0034507030850784645,0.333
0.0034550439644823374,0.334
0.0034588308108381843,0.335
0.003462055275571599,0.336
0.0034647096471894,0.337
0.003466789012493213,0.338
0.0034682933807305212,0.339
0.003469228673624088,0.34
0.003469606459171716,0.341
0.0034694426786957807,0.342
0.003468755721358606,0.343
0.0034675642953751716,0.344
0.003465885739175221,0.345
0.003463735410394547,0.346
0.003461127154836328,0.347
0.0034580741988387677,0.348
0.003454589926962121,0.349
0.0034506884250713305,0.35
0.003446384784479799,0.351
0.003441695136441145,0.352
0.0034366363986222744,0.353
0.0034312257479393875,0.354
0.003425479863071352,0.355
0.0034194140252699822,0.356
0.003413041344191046,0.357
0.003406372560653826,0.358
0.0033994165967495137,0.359
0.003392181453228073,0.36
0.0033846749145979797,0.361
0.003376904755294462,0.362
0.003368878327660416,0.363
0.0033606017117394863,0.364
0.0033520791091174234,0.365
0.0033433131499262594,0.366
0.0033343059776720333,0.367
0.0033250604223668476,0.368
0.0033155807725733207,0.369
0.0033058729867351706,0.37
0.0032959443269183833,0.371
0.003285802480326953,0.372
0.003275454382948458,0.373
0.0032649052474699176,0.374
0.0032541583599220757,0.375
0.003243215644569993,0.376
0.0032320784149339216,0.377
0.00322074784745095,0.378
0.003209225134791177,0.379
0.003197511471228648,0.38
0.0031856080401534577,0.381
0.0031735161200924455,0.382
0.0031612373204446464,0.383
0.0031487738434880165,0.384
0.003136128589192734,0.385
0.0031233049039428354,0.386
0.0031103058424092798,0.387
0.0030971331761882955,0.388
0.003083786940138685,0.389
0.003070266032602122,0.39
0.0030565693238618114,0.391
0.0030426964087571407,0.392
0.003028647645015665,0.393
0.003014423484935226,0.394
0.0030000234265363302,0.395
0.002985445354322338,0.396
0.002970685824450541,0.397
0.0029557409158111683,0.398
0.002940606874535048,0.399
0.002925280181609083,0.4
0.0029097570589938803,0.401
0.0028940326501866375,0.402
0.002878100365649199,0.403
0.0028619518773248705,0.404
0.002845577761968767,0.405
0.0028289683932305573,0.406
0.0028121147910857842,0.407
0.002795009376444887,0.408
0.0027776466376566375,0.409
0.00276002368342004,0.41
0.0027421406217696047,0.411
0.0027240006806448867,0.412
0.0027056099782035025,0.413
0.002686976864408245,0.414
0.002668110794619842,0.415
0.0026490209947297822,0.416
0.0026297157513225076,0.417
0.0026102030072781947,0.418
0.002590491861603049,0.419
0.0025705940552790936,0.42
0.0025505249394677685,0.421
0.0025303038219222475,0.422
0.002509953722121054,0.423
0.0024895006326146065,0.424
0.00246897243129653,0.425
0.002448397622796723,0.426
0.002427804125186417,0.427
0.0024072183638239996,0.428
0.002386664836054944,0.429
0.00236616601534028,0.43
0.0023457423671618795,0.431
0.002325412471396822,0.432
0.002305193272167678,0.433
0.002285100252443001,0.434
0.0022651473700107455,0.435
0.0022453469427767365,0.436
0.0022257098145869324,0.437
0.0022062458167199876,0.438
0.0021869642134094733,0.439
0.0021678738615444454,0.44
0.0021489830185833824,0.441
0.002130298905353621,0.442
0.002111827295035637,0.443
0.002093572383176866,0.444
0.0020755368635729334,0.445
0.0020577219546767354,0.446
0.002040127469149283,0.447
0.0020227522963356032,0.448
0.002005595348397798,0.449
0.001988656616299279,0.45
0.0019719379631909207,0.451
0.0019554434583460324,0.452
0.0019391792153383252,0.453
0.0019231528201533177,0.454
0.0019073725002273284,0.455
0.0018918462273800343,0.456
0.0018765810570030015,0.457
0.0018615830366039666,0.458
0.0018468577108417446,0.459
0.001832410881583047,0.46
0.0018182492701122978,0.461
0.0018043809068479895,0.462
0.0017908151826680151,0.463
0.0017775625793723167,0.464
0.001764634187667068,0.465
0.0017520411692979714,0.466
0.0017397942982692988,0.467
0.001727903639266808,0.468
0.0017163783366282157,0.469
0.0017052264403296287,0.47
0.0016944547287802017,0.471
0.0016840685998029876,0.472
0.001674072143489577,0.473
0.0016644683854134161,0.474
0.001655259567201853,0.475
0.0016464473471452868,0.476
0.001638032862357106,0.477
0.0016300166246852937,0.478
0.0016223982724447039,0.479
0.0016151763123298981,0.48
0.0016083480288323418,0.481
0.0016019095390180076,0.482
0.0015958558166805133,0.483
0.001590180755175031,0.484
0.001584877535567072,0.485
0.0015799392819673104,0.486
0.0015753596666032007,0.487
0.0015711331526385677,0.488
0.0015672547499119994,0.489
0.001563719410927516,0.49
0.0015605215057558947,0.491
0.001557654806036208,0.492
0.0015551129149310376,0.493
0.0015528897249499976,0.494
0.0015509796359754132,0.495
0.001549377521796475,0.496
0.0015480785274306198,0.497
0.0015470778004968138,0.498
0.0015463702621351487,0.499
0.0015459504857090732,0.5
0.0015458126732380423,0.501
0.0015459506407701188,0.502
0.0015463577002925166,0.503
0.0015470264024196204,0.504
0.0015479482727474216,0.505
0.0015491137488687712,0.506
0.0015505123320990967,0.507
0.0015521327466657432,0.508
0.0015539629438981058,0.509
0.0015559899617906582,0.51
0.0015581997418693276,0.511
0.0015605770260198014,0.512
0.001563105447607154,0.513
0.0015657678900009456,0.514
0.0015685471066463055,0.515
0.0015714264991078478,0.516
0.0015743908784436689,0.517
0.0015774270265394362,0.518
0.0015805239222114083,0.519
0.0015836725669934938,0.52
0.0015868654078338737,0.521
0.0015900954648854734,0.522
0.001593355554883285,0.523
0.0015966381792982883,0.524
0.0015999362049646745,0.525
0.0016032438137705057,0.526
0.0016065571558829025,0.527
0.0016098745003206118,0.528
0.001613195913251927,0.529
0.001616522606714754,0.53
0.0016198561644773445,0.531
0.0016231978485454566,0.532
0.0016265481236636288,0.533
0.0016299064312251424,0.534
0.0016332711367081348,0.535
0.0016366395074207186,0.536
0.0016400076332629325,0.537
0.0016433704176562894,0.538
0.001646721878149593,0.539
0.0016500557975100097,0.54
0.0016533665326675048,0.541
0.0016566497594279175,0.542
0.0016599029817794568,0.543
0.0016631256697856934,0.544
0.0016663189392764348,0.545
0.0016694847734456523,0.546
0.0016726250758390636,0.547
0.0016757412419322309,0.548
0.0016788346522381037,0.549
0.001681907632036131,0.55
0.0016849642180109341,0.551
0.0016880105111847774,0.552
0.001691054664168062,0.553
0.0016941065914286158,0.554
0.0016971774817327756,0.555
0.0017002791643510845,0.556
0.0017034233759882656,0.557
0.0017066210822979096,0.558
0.0017098821598882574,0.559
0.0017132155724395093,0.56
0.0017166297718864357,0.561
0.0017201329938949634,0.562
0.001723733342276133,0.563
0.0017274386914781662,0.564
0.0017312564839064325,0.565
0.0017351935250942746,0.566
0.0017392558564587857,0.567
0.0017434487159842958,0.568
0.0017477765224352343,0.569
0.001752242793554776,0.57
0.001756849960910495,0.571
0.0017615991419952417,0.572
0.0017664900003691191,0.573
0.0017715208136238985,0.574
0.001776688785096937,0.575
0.001781990530675829,0.576
0.0017874225975686498,0.577
0.001792981849897568,0.578
0.0017986655812132076,0.579
0.001804471271908356,0.58
0.0018103960570195886,0.581
0.001816436247939807,0.582
0.0018225873269471858,0.583
0.0018288444108302722,0.584
0.001835202752167108,0.585
0.0018416579166489339,0.586
0.0018482055599610635,0.587
0.0018548409057203828,0.588
0.0018615581791903686,0.589
0.0018683503368543523,0.59
0.001875209184471874,0.591
0.0018821256079705486,0.592
0.0018890896397032505,0.593
0.0018960903092439826,0.594
0.0019031153753790624,0.595
0.0019101511482079953,0.596
0.0019171826021240222,0.597
0.001924193771579301,0.598
0.0019311682676371692,0.599
0.0019380897807140137,0.6
0.001944942488618826,0.601
0.001951711304262013,0.602
0.0019583819203273685,0.603
0.001964940646031936,0.604
0.001971374059380825,0.605
0.0019776685007040096,0.606
0.001983809498424562,0.607
0.0019897814212902275,0.608
0.0019955676888479923,0.609
0.002001151520425796,0.61
0.002006516891289927,0.611
0.002011649396641364,0.612
0.002016536849236272,0.613
0.00202116949168321,0.614
0.0020255397511635357,0.615
0.002029641527016688,0.616
0.0020334691532978705,0.617
0.002037016530792437,0.618
0.0020402770825294105,0.619
0.0020432446107234064,0.62
0.0020459143989618594,0.621
0.0020482838779362664,0.622
0.0020503525602821536,0.623
0.0020521212182560465,0.624
0.0020535906834955723,0.625
0.002054761210417337,0.626
0.0020556330088341928,0.627
0.002056207387197336,0.628
0.002056487604380228,0.629
0.0020564790745115817,0.63
0.0020561889311972435,0.631
0.0020556250713243663,0.632
0.002054795083736751,0.633
0.0020537058135353527,0.634
0.002052363945356216,0.635
0.0020507771008834576,0.636
0.002048954757880021,0.637
0.0020469087291913072,0.638
0.0020446531806743834,0.639
0.0020422042055777663,0.64
0.002039579001819374,0.641
0.002036794835836845,0.642
0.002033868287215308,0.643
0.0020308152834555273,0.644
0.002027651834180586,0.645
0.002024394871908489,0.646
0.0020210627417103994,0.647
0.0020176752176401047,0.648
0.0020142531014051496,0.649
0.0020108175490490677,0.65
0.002007389321345696,0.651
0.0020039881449339177,0.652
0.002000632309295622,0.653
0.0019973385311569986,0.654
0.0019941220214934018,0.655
0.001990996621641419,0.656
0.0019879748577418485,0.657
0.0019850678507876336,0.658
0.001982285231478067,0.659
0.001979635306615676,0.66
0.001977125504046003,0.661
0.0019747628684467825,0.662
0.001972554381348135,0.663
0.001970507011690644,0.664
0.0019686275134975536,0.665
0.0019669220683548993,0.666
0.0019653959123972797,0.667
0.001964053073210923,0.668
0.0019628962826925916,0.669
0.0019619270503476328,0.67
0.0019611458043199883,0.671
0.0019605519668176355,0.672
0.001960143850577199,0.673
0.0019599184213786557,0.674
0.0019598712239060957,0.675
0.0019599967140081177,0.676
0.0019602888527846924,0.677
0.001960741656957169,0.678
0.0019613495430399904,0.679
0.0019621074240720004,0.68
0.0019630105797534387,0.681
0.001964054374073412,0.682
0.0019652339160169965,0.683
0.001966543742983676,0.684
0.00196797756761385,0.685
0.0019695280859111613,0.686
0.001971186809447897,0.687
0.0019729438778539384,0.688
0.0019747878952768314,0.689
0.0019767059760648566,0.69
0.0019786841415637612,0.691
0.001980707985183298,0.692
0.0019827634156793787,0.693
0.0019848373251364253,0.694
0.0019869180577752553,0.695
0.0019889955900684424,0.696
0.001991061403528313,0.697
0.0019931081040742106,0.698
0.00199512887867386,0.699
0.0019971168712788812,0.7
0.001999064537272809,0.701
0.0020009630964187178,0.702
0.002002802314513721,0.703
0.0020045707096841676,0.704
0.0020062559648990888,0.705
0.0020078452776449243,0.706
0.002009325555140632,0.707
0.0020106834779233668,0.708
0.0020119055027984756,0.709
0.002012977903285115,0.71
0.002013886929280418,0.711
0.002014619110609981,0.712
0.002015161659935351,0.713
0.0020155028825207984,0.714
0.002015632489155979,0.715
0.0020155417281496795,0.716
0.002015223288884579,0.717
0.002014670971558289,0.718
0.002013879156456431,0.719
0.002012842132778134,0.72
0.0020115534046673137,0.721
0.002010005221270281,0.722
0.0020081885853530357,0.723
0.0020060937268967078,0.724
0.0020037107935334105,0.725
0.0020010305554527697,0.726
0.001998045042181584,0.727
0.001994748063110093,0.728
0.001991135571883815,0.729
0.0019872058541390526,0.73
0.0019829595381339075,0.731
0.0019783994380050164,0.732
0.001973530231250354,0.733
0.0019683579506717913,0.734
0.001962889259182418,0.735
0.0019571305965843033,0.736
0.001951087593186614,0.737
0.001944765179276345,0.738
0.0019381682977146052,0.739
0.0019313027128769699,0.74
0.0019241755578083789,0.741
0.001916795557846336,0.742
0.0019091729995515802,0.743
0.0019013195451610158,0.744
0.0018932479850200835,0.745
0.001884971986307611,0.746
0.0018765058540031949,0.747
0.0018678642817641987,0.748
0.0018590620420790296,0.749
0.0018501135548403794,0.75
0.0018410323874868595,0.751
0.0018318309979719588,0.752
0.0018225210162496445,0.753
0.0018131139344070377,0.754
0.0018036218258410516,0.755
0.0017940578424878765,0.756
0.0017844363967493954,0.757
0.0017747730111667525,0.758
0.001765083883925945,0.759
0.0017553852746049964,0.76
0.0017456928438511156,0.761
0.001736021098706554,0.762
0.0017263830813617684,0.763
0.0017167902956446112,0.764
0.001707252708831081,0.765
0.0016977787226984417,0.766
0.0016883751575610172,0.767
0.0016790473351693787,0.768
0.0016697993127890937,0.769
0.0016606342717504642,0.77
0.0016515550108978513,0.771
0.0016425644549087975,0.772
0.0016336660709651404,0.773
0.0016248640978149362,0.774
0.0016161635258772668,0.775
0.0016075698179671275,0.776
0.0015990884136896548,0.777
0.0015907241584314465,0.778
0.001582480944462952,0.779
0.0015743617969259656,0.78
0.0015663693131540194,0.781
0.0015585061735411139,0.782
0.0015507755295377861,0.783
0.0015431811770153486,0.784
0.0015357274532034632,0.785
0.001528418835341814,0.786
0.0015212593689204826,0.787
0.0015142522723314278,0.788
0.001507399966933659,0.789
0.00150070434075382,0.79
0.00149416687633624,0.791
0.001487788495964825,0.792
0.0014815692634776363,0.793
0.0014755082656268226,0.794
0.0014696038587150933,0.795
0.00146385410074871,0.796
0.0014582570854581726,0.797
0.0014528110465053777,0.798
0.001447514200866611,0.799
0.0014423643850969073,0.8
0.001437358729479128,0.801
0.001432493711108858,0.802
0.001427765661847463,0.803
0.0014231714575517378,0.804
0.0014187090895868314,0.805
0.0014143779822304683,0.806
0.0014101790281524774,0.807
0.0014061143794349077,0.808
0.0014021870802901973,0.809
0.0013984006428741126,0.81
0.0013947586485181854,0.811
0.0013912644112386923,0.812
0.0013879206839558695,0.813
0.0013847293928774792,0.814
0.0013816915072632971,0.815
0.0013788072046028747,0.816
0.001376076313675071,0.817
0.0013734988398558393,0.818
0.0013710753979646643,0.819
0.0013688074810588734,0.82
0.0013666975713311487,0.821
0.001364749147264466,0.822
0.0013629666467773359,0.823
0.0013613554077495959,0.824
0.0013599215596980729,0.825
0.0013586718230476854,0.826
0.0013576131969326218,0.827
0.0013567525624721087,0.828
0.0013560962626868443,0.829
0.001355649742481206,0.83
0.0013554173479864045,0.831
0.0013554023296362204,0.832
0.0013556069851981757,0.833
0.0013560328591397737,0.834
0.0013566809776799755,0.835
0.0013575521294242037,0.836
0.0013586471837116255,0.837
0.0013599674035210932,0.838
0.0013615146735724841,0.839
0.001363291550364876,0.84
0.001365301069782587,0.841
0.0013675463146088774,0.842
0.0013700298824424876,0.843
0.0013727535584058055,0.844
0.0013757183824822524,0.845
0.0013789249347825603,0.846
0.001382373546468996,0.847
0.0013860643245598124,0.848
0.0013899970161594135,0.849
0.001394170770311856,0.85
0.0013985838681839736,0.851
0.0014032335268211594,0.852
0.0014081159024848329,0.853
0.0014132263430957582,0.854
0.0014185598273809042,0.855
0.0014241114934885918,0.856
0.0014298771591726908,0.857
0.0014358537198060162,0.858
0.001442039323355132,0.859
0.001448433279509317,0.86
0.0014550357290569749,0.861
0.0014618471452032453,0.862
0.0014688677520732492,0.863
0.001476096996911151,0.864
0.0014835332930213606,0.865
0.001491174119277345,0.866
0.0014990162812041526,0.867
0.0015070561135775188,0.868
0.0015152895882844534,0.869
0.0015237123904575027,0.87
0.0015323200350864353,0.871
0.0015411080812009943,0.872
0.0015500724644885867,0.873
0.0015592099176549442,0.874
0.0015685183930287073,0.875
0.001577997364499885,0.876
0.001587647885994439,0.877
0.0015974723283792606,0.878
0.0016074737958970062,0.879
0.0016176553527880507,0.88
0.0016280193746607827,0.881
0.0016385673527995381,0.882
0.0016493001394498757,0.883
0.0016602183095025082,0.884
0.0016713223889451856,0.885
0.0016826128969569002,0.886
0.0016940902040998471,0.887
0.0017057542076529134,0.888
0.001717603908502045,0.889
0.0017296371302525785,0.89
0.0017418505609731062,0.891
0.0017542399742485944,0.892
0.0017668003351095233,0.893
0.0017795256704771572,0.894
0.0017924088745473435,0.895
0.0018054417967136157,0.896
0.001818615781802505,0.897
0.0018319224821400936,0.898
0.001845354660991228,0.899
0.0018589067961803224,0.9
0.001872575344640087,0.901
0.0018863585713996885,0.902
0.001900255930879331,0.903
0.0019142671354199952,0.904
0.0019283913055280191,0.905
0.0019426267060145114,0.906
0.0019569711373048477,0.907
0.001971422501234306,0.908
0.0019859790926239997,0.909
0.0020006395203822167,0.91
0.002015402341796111,0.911
0.0020302655226586176,0.912
0.0020452258819796403,0.913
0.002060278780701717,0.914
0.0020754182377636637,0.915
0.002090637346778615,0.916
0.0021059287023458264,0.917
0.002121284628707943,0.918
0.0021366971014525112,0.919
0.002152157361699635,0.92
0.0021676554810137814,0.921
0.0021831803301850515,0.922
0.002198720115895438,0.923
0.002214263156203621,0.924
0.00222979850208453,0.925
0.002245316252808787,0.926
0.0022608075646947633,0.927
0.0022762644134192967,0.928
0.0022916792056446728,0.929
0.0023070443353492365,0.93
0.002322351746841168,0.931
0.0023375925210165414,0.932
0.00235275647183958,0.933
0.0023678317607809286,0.934
0.0023828046134840714,0.935
0.002397659238765595,0.936
0.002412377923241115,0.937
0.002426941178554978,0.938
0.002441327888744038,0.939
0.0024555155058629016,0.94
0.002469480354036311,0.941
0.0024831980633317585,0.942
0.0024966441148744213,0.943
0.002509794453542509,0.944
0.002522626116512072,0.945
0.0025351178260884853,0.946
0.0025472504916350474,0.947
0.0025590075530866185,0.948
0.002570375083787484,0.949
0.0025813415644017784,0.95
0.002591897251203404,0.951
0.0026020331012171255,0.952
0.002611739548895927,0.953
0.002621006025349484,0.954
0.002629821861015931,0.955
0.0026381780647529106,0.956
0.00264606905011019,0.957
0.0026534938194507,0.958
0.002660456423095747,0.959
0.0026669656279148545,0.96
0.002673033864728148,0.961
0.002678675644332475,0.962
0.002683905804998037,0.963
0.0026887382081475252,0.964
0.0026931853880570837,0.965
0.0026972589572374175,0.966
0.0027009700900470115,0.967
0.002704329673943771,0.968
0.0027073481377686884,0.969
0.0027100351102953496,0.97
0.0027123990695351002,0.971
0.0027144471230358047,0.972
0.0027161850104156296,0.973
0.00271761734666068,0.974
0.002718748044730008,0.975
0.00271958079430629,0.976
0.002720119453424007,0.977
0.0027203682381874462,0.978
0.0027203316557175014,0.979
0.002720014183135068,0.98
0.002719419724136983,0.981
0.0027185509434545794,0.982
0.002717408786339817,0.983
0.0027159925796470022,0.984
0.002714300764896637,0.985
0.0027123319077215803,0.986
0.0027100856323527623,0.987
0.002707563326320189,0.988
0.0027047685477105954,0.989
0.0027017070754867195,0.99
0.0026983865474958556,0.991
0.002694815657727433,0.992
0.0026910030352749886,0.993
0.002686956303080166,0.994
0.0026826819843956576,0.995
0.0026781863381593616,0.996
0.0026734764864934767,0.997
0.0026685612327274643,0.998
0.0026634513942755044,0.999
0.002658159701583143,1.0
0.0026527003807677208,1.001
0.0026470885582297377,1.002
0.0026413396079216795,1.003
0.0026354685216029503,1.004
0.002629489334268853,1.005
0.0026234145948124646,1.006
0.002617254918650904,1.007
0.002611018812569662,1.008
0.0026047129384215873,1.009
0.002598342719253136,1.01
0.0025919130779769885,1.011
0.0025854291906878555,1.012
0.002578897182374789,1.013
0.0025723246736614703,1.014
0.0025657210826757,1.015
0.002559097615310745,1.016
0.002552466931595171,1.017
0.0025458425273590254,1.018
0.0025392378962623943,1.019
0.002532665632134608,1.02
0.0025261368632065275,1.021
0.0025196614070340816,1.022
0.002513248576539734,1.023
0.0025069082175470368,1.024
0.0025006516513340744,1.025
0.0024944923719036546,1.026
0.0024884464017474344,1.027
0.0024825322388945794,1.028
0.0024767703830348075,1.029
0.002471182498335483,1.03
0.0024657903351393163,1.031
0.0024606146690751896,1.032
0.0024556746933889232,1.033
0.0024509880915768224,1.034
0.0024465714845789545,1.035
0.0024424408218780215,1.036
0.0024386115748388265,1.037
0.0024350987727257355,1.038
0.0024319169459951074,1.039
0.0024290800380185247,1.04
0.0024266013348551024,1.041
0.002424493446991021,1.042
0.002422768357372587,1.043
0.002421437521556985,1.044
0.0024205119687090142,1.045
0.0024200023233865125,1.046
0.0024199186725835163,1.047
0.0024202702460588933,1.048
0.0024210649578177094,1.049
0.002422308989118095,1.05
0.002424006662166541,1.051
0.002426160655494763,1.052
0.002428772337540874,1.053
0.002431842002342983,1.054
0.002435368964205316,1.055
0.0024393515536765727,1.056
0.0024437870671184963,1.057
0.0024486717135246984,1.058
0.002454000579808941,1.059
0.002459767607296408,1.06
0.0024659655502092485,1.061
0.0024725858817098013,1.062
0.0024796186226983805,1.063
0.0024870520848671524,1.064
0.002494872588651655,1.065
0.00250306432462621,1.066
0.002511609447668018,1.067
0.0025204882413918054,1.068
0.0025296791279028827,1.069
0.0025391585254232584,1.07
0.002548900827298467,1.071
0.0025588787271208333,1.072
0.00256906376276317,1.073
0.0025794267775682248,1.074
0.0025899380826575223,1.075
0.002600567195460307,1.076
0.002611282295440574,1.077
0.002622050016077808,1.078
0.0026328360682517744,1.079
0.002643606388468366,1.08
0.0026543281945433208,1.081
0.002664970656603983,1.082
0.0026755051268283992,1.083
0.002685904926138904,1.084
0.0026961447054365925,1.085
0.0027061994156429904,1.086
0.0027160431952430292,1.087
0.0027256489682891995,1.088
0.0027349892763204988,1.089
0.0027440378658151582,1.09
0.002752771227274106,1.091
0.0027611696863521413,1.092
0.002769217898754796,1.093
0.0027769046718796138,1.094
0.0027842221298298967,1.095
0.0027911643386179987,1.096
0.00279772568073472,1.097
0.0028038995791013718,1.098
0.0028096781972294393,1.099
0.002815053082812961,1.1
0.002820016101058613,1.101
0.0028245601543757434,1.102
0.0028286796012652548,1.103
0.0028323704319015712,1.104
0.002835630260430237,1.105
0.002838458201055231,1.106
0.002840854699446614,1.107
0.0028428213730328036,1.108
0.0028443608620385137,1.109
0.0028454766199972788,1.11
0.002846172515782317,1.111
0.0028464521210174103,1.112
0.002846317826335324,1.113
0.0028457704420102974,1.114
0.0028448098190013986,1.115
0.002843436163259763,1.116
0.0028416513538541046,1.117
0.002839459906734798,1.118
0.0028368694828536717,1.119
0.0028338909184341425,1.12
0.002830537819004748,1.121
0.002826825808346047,1.122
0.002822771551248384,1.123
0.0028183916681183024,1.124
0.002813701700774902,1.125
0.002808715451356896,1.126
0.002803445039032786,1.127
0.002797901655115727,1.128
0.0027920966498222867,1.129
0.002786042614616361,1.13
0.0027797542728163057,1.131
0.0027732490420927674,1.132
0.0027665471642668235,1.133
0.002759671358054125,1.134
0.002752646020043427,1.135
0.0027454960637248887,1.136
0.002738245673848272,1.137
0.0027309175610782262,1.138
0.002723533128630403,1.139
0.0027161132419284326,1.14
0.0027086789937482776,1.141
0.0027012521748189236,1.142
0.0026938554327674267,1.143
0.0026865121613802614,1.144
0.002679246166540848,1.145
0.00267208115812759,1.146
0.0026650401318206634,1.147
0.0026581447323110745,1.148
0.0026514147139581772,1.149
0.0026448676109928682,1.15
0.0026385186807180074,1.151
0.002632381099904357,1.152
0.002626466311475413,1.153
0.002620784372439476,1.154
0.0026153441594139325,1.155
0.002610153333509725,1.156
0.00260521805979558,1.157
0.002600542675824111,1.158
0.002596129667259176,1.159
0.002591980100485012,1.16
0.002588094263547009,1.161
0.002584472196031006,1.162
0.002581113973540262,1.163
0.002578019728323966,1.164
0.0025751894246798567,1.165
0.0025726224294222847,1.166
0.002570316937287273,1.167
0.002568269410152153,1.168
0.002566474322718136,1.169
0.0025649243518188407,1.17
0.0025636107824144657,1.171
0.0025625238371313236,1.172
0.0025616528154233614,1.173
0.002560986015599365,1.174
0.0025605104295364006,1.175
0.002560211322150125,1.176
0.0025600720277389527,1.177
0.002560074230043772,1.178
0.002560198598145958,1.179
0.002560425479108156,1.18
0.0025607354733378908,1.181
0.002561109795659658,1.182
0.002561530333579133,1.183
0.0025619793503803574,1.184
0.0025624388378498743,1.185
0.0025628897154207184,1.186
0.002563311411468203,1.187
0.002563682281763666,1.188
0.0025639806992773023,1.189
0.0025641863294941386,1.19
0.0025642812776085332,1.191
0.0025642509269783054,1.192
0.002564084289921545,1.193
0.0025637737223819118,1.194
0.0025633139510031103,1.195
0.002562700605047227,1.196
0.0025619289331353387,1.197
0.0025609935953073704,1.198
0.0025598896704328916,1.199
0.002558614089319312,1.2
0.0025571667311011163,1.201
0.002555550941111165,1.202
0.002553773486220434,1.203
0.00255184403927383,1.204
0.0025497743374690383,1.205
0.002547577174281181,1.206
0.0025452653539412506,1.207
0.0025428507327825097,1.208
0.002540343588814792,1.209
0.002537752606213802,1.21
0.002535085480719152,1.211
0.002532349842823923,1.212
0.0025295542145681595,1.213
0.0025267088593955316,1.214
0.0025238264234356267,1.215
0.0025209222636065473,1.216
0.002518014384595497,1.217
0.0025151229684495665,1.218
0.002512269562387188,1.219
0.0025094760604953,1.22
0.0025067636590759414,1.221
0.002504152032050924,1.222
0.0025016589992655595,1.223
0.002499300738713739,1.224
0.002497092304390445,1.225
0.002495048227174304,1.226
0.002493183120436464,1.227
0.0024915122056227814,1.228
0.002490051619607737,1.229
0.002488818390247144,1.23
0.002487830055476038,1.231
0.002487103998191628,1.232
0.0024866566562034434,1.233
0.0024865028841676326,1.234
0.0024866557644694282,1.235
0.0024871268848635822,1.236
0.002487926787720227,1.237
0.0024890653222791282,1.238
0.0024905518110334506,1.239
0.0024923950098430705,1.24
0.0024946028525932324,1.241
0.0024971820128691243,1.242
0.002500137449872473,1.243
0.0025034722402977145,1.244
0.0025071878235705296,1.245
0.0025112844410581786,1.246
0.0025157615166417685,1.247
0.0025206179258955865,1.248
0.002525852195652929,1.249
0.0025314626620456192,1.25
0.0025374475753808788,1.251
0.0025438050985927617,1.252
0.0025505331286101744,1.253
0.0025576288890228165,1.254
0.0025650883583665123,1.255
0.0025729058346714933,1.256
0.00258107398066658,1.257
0.0025895843286208144,1.258
0.0025984279023491606,1.259
0.0026075956851148068,1.26
0.0026170788437720736,1.261
0.0026268686902357766,1.262
0.002636956395748516,1.263
0.0026473325214987674,1.264
0.002657986467059697,1.265
0.0026689059408129983,1.266
0.002680076534148145,1.267
0.0026914814599342087,1.268
0.002703101472853438,1.269
0.002714914925598953,1.27
0.0027268979091775083,1.271
0.0027390244733747743,1.272
0.0027512669271842986,1.273
0.00276359615913915,1.274
0.002775981849712188,1.275
0.0027883924150394865,1.276
0.00280079468627331,1.277
0.002813153766918011,1.278
0.0028254336263849127,1.279
0.002837598410435756,1.28
0.002849613925648494,1.281
0.002861448770064913,1.282
0.002873074770090718,1.283
0.0028844665318392346,1.284
0.0028956001335535674,1.285
0.0029064515758804002,1.286
0.002916996273972967,1.287
0.00292721028258863,1.288
0.002937072446073587,1.289
0.0029465663020029876,1.29
0.002955681227777898,1.291
0.002964412707622973,1.292
0.0029727617015058495,1.293
0.0029807332080281383,1.294
0.002988334222105613,1.295
0.0029955716551073046,1.296
0.0030024513061172762,1.297
0.0030089784430181905,1.298
0.003015159190019754,1.299
0.00302100166929276,1.3
0.003026516584729612,1.301
0.0030317173236938558,1.302
0.003036619675336304,1.303
0.003041241255730208,1.304
0.003045600724054081,1.305
0.0030497168858811623,1.306
0.00305360779706079,1.307
0.0030572899825644885,1.308
0.003060777858543359,1.309
0.003064083399743298,1.31
0.0030672160430568213,1.311
0.0030701827683123797,1.312
0.003072988245598568,1.313
0.0030756348896157624,1.314
0.0030781227612109064,1.315
0.003080449597259658,1.316
0.003082611374407968,1.317
0.003084603404770547,1.318
0.0030864215739321785,1.319
0.0030880633426439946,1.32
0.003089528294625912,1.321
0.00309081816037788,1.322
0.0030919363828538957,1.323
0.0030928873874973076,1.324
0.0030936757533525008,1.325
0.0030943054497745317,1.326
0.0030947792153444677,1.327
0.0030950980428869172,1.328
0.003095260742700221,1.329
0.0030952637912374753,1.33
0.0030951017791290393,1.331
0.0030947684667215077,1.332
0.0030942581490984154,1.333
0.0030935670227966562,1.334
0.0030926943224170293,1.335
0.003091643036856996,1.336
0.003090420067773435,1.337
0.003089035767875284,1.338
0.003087502883548616,1.339
0.0030858350186851774,1.34
0.003084045021385456,1.341
0.0030821440931456112,1.342
0.0030801420370215275,1.343
0.003078048039221852,1.344
0.003075871180563821,1.345
0.003073620461820071,1.346
0.0030713044793683085,1.347
0.0030689309388514897,1.348
0.003066506185410127,1.349
0.0030640348898813797,1.35
0.003061519980785317,1.351
0.0030589628611257832,1.352
0.0030563638931515756,1.353
0.0030537230690134373,1.354
0.0030510407200897436,1.355
0.0030483180749762973,1.356
0.0030455574804554514,1.357
0.0030427621644589027,1.358
0.0030399355323248306,1.359
0.003037080162109023,1.36
0.0030341969233864566,1.361
0.003031284695375403,1.362
0.0030283406895113495,1.363
0.0030253608938267777,1.364
0.003022340255527851,1.365
0.0030192725712126028,1.366
0.0030161502252025276,1.367
0.0030129639675380623,1.368
0.003009702934011668,1.369
0.003006355056058792,1.37
0.0030029078935102575,1.371
0.002999349784709298,1.372
0.00299567108907747,1.373
0.0029918652264973714,1.374
0.0029879292129650083,1.375
0.0029838634623364584,1.376
0.0029796707634342327,1.377
0.0029753546768497177,1.378
0.0029709182133918805,1.379
0.002966363805550294,1.38
0.002961694598667347,1.381
0.002956916102239416,1.382
0.0029520373800900105,1.383
0.0029470715335341204,1.384
0.00294203549762942,1.385
0.0029369492589346614,1.386
0.002931834661922209,1.387
0.002926713982770472,1.388
0.0029216085663493806,1.389
0.002916538078206333,1.39
0.002911520726337082,1.391
0.002906574102787447,1.392
0.0029017160381713102,1.393
0.0028969651845876542,1.394
0.002892341280860324,1.395
0.002887865089923603,1.396
0.002883558008606491,1.397
0.002879441385533145,1.398
0.0028755356422126444,1.399
0.0028718594209676328,1.4
0.002868429101095931,1.401
0.0028652587870352233,1.402
0.0028623604567698264,1.403
0.0028597439880185794,1.404
0.0028574171066331304,1.405
0.00285538543888666,1.406
0.002853652806899897,1.407
0.0028522218143227276,1.408
0.0028510946593609163,1.409
0.002850274018737654,1.41
0.0028497638001634988,1.411
0.002849569576877507,1.412
0.0028496985835920812,1.413
0.0028501592388446707,1.414
0.0028509602378906022,1.415
0.002852109456667761,1.416
0.00285361324869031,1.417
0.0028554766172347954,1.418
0.002857704031518118,1.419
0.0028603002584745396,1.42
0.002863270850467789,1.421
0.002866622252575584,1.422
0.002870361602115026,1.423
0.0028744963108468,1.424
0.0028790335158760645,1.425
0.0028839794808125986,1.426
0.002889339031239425,1.427
0.0028951151082397494,1.428
0.0029013085056548496,1.429
0.0029079178149147714,1.43
0.0029149395458849957,1.431
0.0029223683443165486,1.432
0.002930197206356668,1.433
0.0029384176057202158,1.434
0.0029470194878047093,1.435
0.0029559911230493184,1.436
0.0029653188320503394,1.437
0.0029749866532049357,1.438
0.0029849761463137644,1.439
0.00299526649710785,1.44
0.0030058348350803054,1.441
0.003016656528292288,1.442
0.0030277052929312477,1.443
0.003038953053563277,1.444
0.0030503696138030195,1.445
0.0030619224111677473,1.446
0.0030735766393730065,1.447
0.0030852956739488044,1.448
0.0030970414743873094,1.449
0.003108774715001875,1.45
0.0031204545667182903,1.451
0.0031320382424537135,1.452
0.0031434806980998645,1.453
0.0031547348970139733,1.454
0.0031657526287145834,1.455
0.0031764855729542103,1.456
0.0031868863861128005,1.457
0.003196909717622584,1.458
0.0032065130748467046,1.459
0.0032156574263957917,1.46
0.0032243074162597724,1.461
0.003232431075503143,1.462
0.0032399989764371234,1.463
0.003246982865337557,1.464
0.0032533540811955537,1.465
0.0032590825334383993,1.466
0.0032641368960251,1.467
0.0032684857434963025,1.468
0.0032720988292902417,1.469
0.0032749480632625967,1.47
0.0032770081770000193,1.471
0.0032782572037544553,1.472
0.003278676897424425,1.473
0.003278253150018741,1.474
0.0032769763714205393,1.475
0.0032748417110237057,1.476
0.0032718489602041392,1.477
0.003268001990300148,1.478
0.003263307646659857,1.479
0.0032577741180023372,1.48
0.0032514091621110956,1.481
0.0032442191504319703,1.482
0.0032362095878028067,1.483
0.003227386543182926,1.484
0.003217758019916737,1.485
0.003207334871919385,1.486
0.0031961312843499824,1.487
0.003184164919949491,1.488
0.0031714568426093087,1.489
0.0031580313012677086,1.49
0.0031439154107293535,1.491
0.0031291387276872968,1.492
0.003113732701468159,1.493
0.0030977299774637064,1.494
0.003081163543494276,1.495
0.003064065732358789,1.496
0.0030464672576009256,1.497
0.003028396751152474,1.498
0.0030098811177936132,1.499
0.0029909464131703213,1.5
0.002971618763021505,1.501
0.002951925116545337,1.502
0.002931893785154539,1.503
0.002911554723827974,1.504
0.002890939516192591,1.505
0.0028700810464313458,1.506
0.0028490128890620654,1.507
0.0028277685132036385,1.508
0.0028063804503469657,1.509
0.0027848795770809695,1.51
0.0027632946055995214,1.511
0.0027416517884043677,1.512
0.0027199747885514746,1.513
0.002698284666790022,1.514
0.0026765999535525334,1.515
0.0026549367831529536,1.516
0.0026333090905494914,1.517
0.0026117289034287765,1.518
0.002590206773578301,1.519
0.0025687523645619346,1.52
0.0025473751473521493,1.521
0.0025260850749704686,1.522
0.0025048930538980854,1.523
0.002483811040207142,1.524
0.002462851669447527,1.525
0.0024420274635408735,1.526
0.002421349929284643,1.527
0.0024008291481109343,1.528
0.0023804741599914047,1.529
0.002360293749777565,1.53
0.0023402971245678585,1.531
0.002320494330169499,1.532
0.0023008964334061527,1.533
0.0022815155002560315,1.534
0.002262364388971419,1.535
0.0022434563621080055,1.536
0.0022248045133866886,1.537
0.002206421094557644,1.538
0.0021883170572665257,1.539
0.002170502145379589,1.54
0.0021529854635877624,1.541
0.0021357761166716956,1.542
0.00211888360623981,1.543
0.0021023178733466717,1.544
0.0020860889677940687,1.545
0.002070206440911182,1.546
0.002054678803650587,1.547
0.0020395134666051137,1.548
0.0020247171563255247,1.549
0.0020102963401217562,1.55
0.001996257257291274,1.551
0.0019826055374946665,1.552
0.001969345739337099,1.553
0.0019564812331299276,1.554
0.0019440144800004693,1.555
0.0019319473400411314,1.556
0.001920281096494486,1.557
0.0019090161761589075,1.558
0.001898151761515867,1.559
0.0018876855991498578,1.56
0.0018776141375004686,1.561
0.0018679327926793686,1.562
0.0018586360926192433,1.563
0.0018497176361748874,1.564
0.0018411699171143792,1.565
0.0018329840903446725,1.566
0.0018251497821974785,1.567
0.0018176550698391857,1.568
0.0018104867085678123,1.569
0.0018036305796673593,1.57
0.0017970722639038344,1.571
0.0017907976047597221,1.572
0.0017847930770755794,1.573
0.0017790457774719242,1.574
0.0017735429706883905,1.575
0.0017682714726276595,1.576
0.0017632175018390006,1.577
0.001758367311093126,1.578
0.0017537081581079012,1.579
0.001749229007202329,1.58
0.0017449207047171159,1.581
0.001740775611178099,1.582
0.0017367867768649271,1.583
0.0017329469747298387,1.584
0.0017292482024511805,1.585
0.0017256819923843016,1.586
0.0017222401213446864,1.587
0.0017189151314898814,1.588
0.0017157004312140529,1.589
0.0017125899547290142,1.59
0.0017095775180231395,1.591
0.001706656327252253,1.592
0.0017038191192619392,1.593
0.00170105886565081,1.594
0.0016983695247955962,1.595
0.0016957464493770353,1.596
0.00169318634846919,1.597
0.001690686850165788,1.598
0.0016882457740100736,1.599
0.0016858603624925119,1.6
0.0016835269079019787,1.601
0.0016812409981509441,1.602
0.0016789980812676963,1.603
0.0016767939481491174,1.604
0.0016746250122922832,1.605
0.0016724884227461315,1.606
0.0016703820723433566,1.607
0.00166830456522736,1.608
0.001666255187110663,1.609
0.0016642338913906004,1.61
0.0016622412847821682,1.611
0.0016602785724498014,1.612
0.0016583474120743533,1.613
0.0016564496365618388,1.614
0.0016545868320427622,1.615
0.001652759851974556,1.616
0.0016509685203366558,1.617
0.00164921175298225,1.618
0.0016474880042176775,1.619
0.0016457957446116144,1.62
0.0016441337801540268,1.621
0.0016425013741356534,1.622
0.0016408982080299039,1.623
0.0016393242550403623,1.624
0.001637779648776319,1.625
0.0016362646123544878,1.626
0.0016347794850835153,1.627
0.001633324854704731,1.628
0.0016319017730390202,1.629
0.0016305120015648361,1.63
0.0016291582081513322,1.631
0.0016278440312975644,1.632
0.0016265739559260266,1.633
0.001625352999369871,1.634
0.0016241862598781556,1.635
0.0016230784033854815,1.636
0.0016220331868198373,1.637
0.001621053164750073,1.638
0.0016201396743030206,1.639
0.001619293009781046,1.64
0.0016185126231083348,1.641
0.001617797294460042,1.642
0.0016171453268307135,1.643
0.001616554842900238,1.644
0.0016160242284793212,1.645
0.001615552693118476,1.646
0.001615140832595161,1.647
0.0016147910255634383,1.648
0.0016145075111456053,1.649
0.001614296071176667,1.65
0.0016141633469672647,1.651
0.0016141159726791251,1.652
0.0016141598895770735,1.653
0.001614300137736518,1.654
0.0016145410132747647,1.655
0.001614886242925113,1.656
0.001615339022633135,1.657
0.0016159020004613979,1.658
0.0016165773060869925,1.659
0.0016173666426357316,1.66
0.0016182713670229126,1.661
0.0016192924377131507,1.662
0.0016204301724074578,1.663
0.0016216839870393071,1.664
0.0016230524496053825,1.665
0.00162453374552641,1.666
0.0016261262759141538,1.667
0.001627829068280334,1.668
0.0016296418555508448,1.669
0.001631564800002748,1.67
0.0016335979386859151,1.671
0.0016357406181276212,1.672
0.0016379913190917809,1.673
0.0016403480140915526,1.674
0.0016428087781254273,1.675
0.0016453723306159107,1.676
0.0016480383923463495,1.677
0.0016508078348405988,1.678
0.0016536826071269555,1.679
0.0016566654343431486,1.68
0.0016597593020292287,1.681
0.0016629668197865005,1.682
0.0016662897191765727,1.683
0.0016697287479871762,1.684
0.0016732838992870084,1.685
0.0016769546298323354,1.686
0.0016807398058650725,1.687
0.0016846374174731569,1.688
0.0016886444018516316,1.689
0.001692756877667549,1.69
0.0016969706740468785,1.691
0.0017012818014452821,1.692
0.0017056866405177815,1.693
0.0017101817838303082,1.694
0.0017147635789935,1.695
0.001719427644567386,1.696
0.0017241688037872344,1.697
0.001728981594496406,1.698
0.0017338610125417324,1.699
0.001738803075084035,1.7
0.0017438050400118339,1.701
0.001748865280985862,1.702
0.0017539828920125242,1.703
0.0017591571469132775,1.704
0.0017643869393232836,1.705
0.0017696702842171393,1.706
0.0017750039716335276,1.707
0.0017803835426396864,1.708
0.0017858036838796561,1.709
0.0017912588967511983,1.71
0.0017967441893401884,1.711
0.0018022556011885519,1.712
0.0018077904444558446,1.713
0.0018133472117819586,1.714
0.0018189251682097054,1.715
0.0018245236892643522,1.716
0.0018301415301734923,1.717
0.0018357764288988916,1.718
0.0018414253404850926,1.719
0.0018470851202431436,1.72
0.001852753274807607,1.721
0.0018584285973015043,1.722
0.0018641116562000053,1.723
0.0018698051146046643,1.724
0.0018755138132858739,1.725
0.0018812445106037323,1.726
0.0018870051900320532,1.727
0.0018928040692319835,1.728
0.001898648871001177,1.729
0.0019045469020785544,1.73
0.0019105057612553722,1.731
0.0019165340120674713,1.732
0.0019226414058214824,1.733
0.001928838626053598,1.734
0.0019351366854434527,1.735
0.0019415461567246055,1.736
0.001948076463198919,1.737
0.0019547354338366203,1.738
0.0019615291640591548,1.739
0.0019684621373362316,1.74
0.001975537618028473,1.741
0.001982758246059025,1.742
0.0019901266425474576,1.743
0.001997645870406972,1.744
0.0020053196694546204,1.745
0.002013152429004899,1.746
0.002021148894605946,1.747
0.002029313636294463,1.748
0.002037650403695417,1.749
0.0020461616663089797,1.75
0.00205484858713577,1.751
0.002063711308318916,1.752
0.0020727492207711154,1.753
0.002081961056004859,1.754
0.002091344847080393,1.755
0.002100897873651462,1.756
0.0021106166899448305,1.757
0.0021204972803631123,1.758
0.0021305353217125175,1.759
0.0021407264821297987,1.76
0.0021510666723019746,1.761
0.0021615521832781142,1.762
0.0021721796778023366,1.763
0.0021829460273705414,1.764
0.002193848000192915,1.765
0.0022048818168478846,1.766
0.0022160426234317083,1.767
0.002227324027483643,1.768
0.002238717916329832,1.769
0.002250214624815738,1.77
0.002261803276968094,1.771
0.0022734721316441955,1.772
0.0022852089181474283,1.773
0.002297001210440254,1.774
0.0023088368724292568,1.775
0.0023207045720253037,1.776
0.002332594318645559,1.777
0.0023444979381285164,1.778
0.002356409367828461,1.779
0.002368324644199477,1.78
0.002380241480334603,1.781
0.0023921583947064187,1.782
0.0024040736094623244,1.783
0.002415984390918229,1.784
0.002427887406524509,1.785
0.0024397798312569925,1.786
0.0024516604836431434,1.787
0.002463530573589564,1.788
0.0024753939902837753,1.789
0.00248725719032027,1.79
0.002499128789127952,1.791
0.002511018951806774,1.792
0.0025229386432977304,1.793
0.0025348987625086303,1.794
0.0025469092585733,1.795
0.0025589785545274612,1.796
0.0025711136031804764,1.797
0.0025833204540723783,1.798
0.0025956048763557905,1.799
0.0026079727057845667,1.8
0.002620429819189962,1.801
0.002632981761911569,1.802
0.0026456331271755614,1.803
0.0026583868765859657,1.804
0.002671243851080041,1.805
0.002684202567109467,1.806
0.0026972591783243328,1.807
0.002710407586305089,1.808
0.002723639817185727,1.809
0.002736946602484996,1.81
0.0027503179543927644,1.811
0.002763743587277111,1.812
0.0027772131156065002,1.813
0.002790716002301258,1.814
0.002804241273090806,1.815
0.002817777048230319,1.816
0.0028313099622299565,1.817
0.0028448246155056644,1.818
0.0028583033404505193,1.819
0.002871726467603609,1.82
0.0028850729392574386,1.821
0.002898321008333659,1.822
0.002911448902307239,1.823
0.0029244354288520953,1.824
0.002937260534210917,1.825
0.002949905834205331,1.826
0.002962355097980595,1.827
0.002974594593221586,1.828
0.002986613138944302,1.829
0.0029984016960364203,1.83
0.0030099523778140303,1.831
0.003021257100045161,1.832
0.0030323067378673213,1.833
0.003043091617951615,1.834
0.003053603079302592,1.835
0.003063835135803674,1.836
0.003073785596255089,1.837
0.0030834564650051074,1.838
0.0030928536576799496,1.839
0.003101986178901499,1.84
0.003110864976683863,1.841
0.0031195017089322725,1.842
0.003127907634454811,1.843
0.0031360927784994516,1.844
0.0031440654358473588,1.845
0.0031518319907990378,1.846
0.0031593969767113195,1.847
0.0031667632702844805,1.848
0.0031739323028289763,1.849
0.0031809041602999873,1.85
0.0031876774398427103,1.851
0.003194248868724422,1.852
0.0032006130777685435,1.853
0.0032067630879379773,1.854
0.003212691605114091,1.855
0.003218392705733186,1.856
0.003223863464615068,1.857
0.003229105235508036,1.858
0.003234124383923608,1.859
0.003238932351978945,1.86
0.0032435450450602568,1.861
0.0032479816450207088,1.862
0.0032522630460656322,1.863
0.0032564101547002196,1.864
0.0032604424050134287,1.865
0.0032643769898915787,1.866
0.0032682290055608063,1.867
0.003272012100379067,1.868
0.003275739170268227,1.869
0.0032794230139940343,1.87
0.0032830770080474318,1.871
0.0032867158138281676,1.872
0.0032903560725262276,1.873
0.0032940169943983856,1.874
0.0032977207163503415,1.875
0.0033014922919969696,1.876
0.003305359206342399,1.877
0.003309350383729972,1.878
0.003313494794699578,1.879
0.003317820088150644,1.88
0.0033223519746276163,1.881
0.0033271146255025442,1.882
0.003332131471651976,1.883
0.0033374257166488524,1.884
0.003343020419457604,1.885
0.0033489382843053246,1.886
0.003355201318294002,1.887
0.003361830476178396,1.888
0.0033688453365874403,1.889
0.0033762637910167525,1.89
0.003384101708024614,1.891
0.003392372556685078,1.892
0.003401087036984891,1.893
0.0034102528437668675,1.894
0.0034198746421696133,1.895
0.003429954153459282,1.896
0.0034404901803769114,1.897
0.0034514785213529014,1.898
0.003462911888167748,1.899
0.0034747799763301325,1.9
0.0034870696916558877,1.901
0.0034997654057229008,1.902
0.0035128491370140826,1.903
0.0035263006313481066,1.904
0.0035400973566002683,1.905
0.003554214441330921,1.906
0.0035686245840353655,1.907
0.0035832979418442094,1.908
0.0035982019840091095,1.909
0.003613301288749498,1.91
0.0036285573467743784,1.911
0.00364392858749724,1.912
0.0036593708087966598,1.913
0.0036748379514655073,1.914
0.0036902830415790383,1.915
0.003705659168830307,1.916
0.003720920401736558,1.917
0.00373602255277893,1.918
0.003750923726915374,1.919
0.003765584602009034,1.92
0.0037799683961403595,1.921
0.003794040478424302,1.922
0.0038077675825371154,1.923
0.003821116590728122,1.924
0.003834053143468582,1.925
0.0038465409650546936,1.926
0.0038585427022930067,1.927
0.0038700219475991753,1.928
0.003880945506290098,1.929
0.0038912853104355106,1.93
0.0039010197385641408,1.931
0.00391013423408347,1.932
0.003918621213143411,1.933
0.0039264793243781095,1.934
0.003933712152655687,1.935
0.0039403264527880745,1.936
0.003946330021389805,1.937
0.003951729711424917,1.938
0.003956530702227864,1.939
0.0039607376234994714,1.94
0.00396435670043343,1.941
0.003967397734048217,1.942
0.003969875392051387,1.943
0.003971809684161255,1.944
0.003973225623063592,1.945
0.003974152203567615,1.946
0.003974620927542315,1.947
0.003974664131972282,1.948
0.003974313340178262,1.949
0.0039735978818549195,1.95
0.003972544157750679,1.951
0.003971175755629088,1.952
0.003969514134706541,1.953
0.003967579445540709,1.954
0.0039653912763195544,1.955
0.003962969233569032,1.956
0.003960333245237587,1.957
0.003957503477613576,1.958
0.003954499807636084,1.959
0.00395134088903835,1.96
0.0039480431515017695,1.961
0.0039446204447574195,1.962
0.003941084708608355,1.963
0.003937447176583379,1.964
0.003933719394053083,1.965
0.0039299137094714835,1.966
0.003926043125346667,1.967
0.003922120468846017,1.968
0.0039181571732920875,1.969
0.003914162570811418,1.97
0.003910144451654909,1.971
0.0039061105022217394,1.972
0.0039020696308447555,1.973
0.003898032591072092,1.974
0.0038940117717995164,1.975
0.0038900202353947594,1.976
0.0038860703037601734,1.977
0.0038821723557218787,1.978
0.003878334582733701,1.979
0.003874563753758538,1.98
0.003870866292862699,1.981
0.0038672490650006512,1.982
0.0038637197153575963,1.983
0.003860286573768854,1.984
0.0038569581200489254,1.985
0.0038537420142799937,1.986
0.0038506439914311316,1.987
0.003847667403609696,1.988
0.003844813871680551,1.989
0.0038420844660352373,1.99
0.003839480552652155,1.991
0.0038370039497998706,1.992
0.003834656399723448,1.993
0.0038324385403407497,1.994
0.0038303488702830786,1.995
0.0038283834007072017,1.996
0.0038265362147228052,1.997
0.003824800411027194,1.998
0.0038231688424751535,1.999
0.003821634428163577,2.0
0.0038201899827567617,2.001
0.0038188275350120914,2.002
0.003817537355536458,2.003
0.0038163074133100512,2.004
0.0038151239059457265,2.005
0.0038139726075875837,2.006
0.0038128402482406534,2.007
0.003811715399902622,2.008
0.0038105886813165,2.009
0.0038094522496000946,2.01
0.003808298652239658,2.011
0.0038071193768515876,2.012
0.003805903893122164,2.013
0.0038046398420063235,2.014
0.0038033140541939756,2.015
0.0038019135225461835,2.016
0.0038004257966540137,2.017
0.00379883871158175,2.018
0.003797139561289643,2.019
0.003795313990953361,2.02
0.003793345070241752,2.021
0.0037912129014270753,2.022
0.0037888945841911327,2.023
0.003786364174933461,2.024
0.003783592837833856,2.025
0.003780549614875938,2.026
0.0037772026899562765,2.027
0.0037735206782217937,2.028
0.003769473632900671,2.029
0.0037650336294521307,2.03
0.003760174857028776,2.031
0.00375487320179066,2.032
0.0037491053477141504,2.033
0.00374284749925078,2.034
0.003736074158364546,2.035
0.0037287577811426454,2.036
0.003720869734368609,2.037
0.0037123820245861176,2.038
0.003703269081042229,2.039
0.003693509308374638,2.04
0.0036830863264988717,2.041
0.0036719897907018404,2.042
0.003660215658622808,2.043
0.003647765789256623,2.044
0.003634646846215132,2.045
0.0036208686066764883,2.046
0.003606441888689515,2.047
0.0035913765737820053,2.048
0.003575680579932127,2.049
0.003559360234339691,2.05
0.0035424214294328704,2.051
0.0035248707162580124,2.052
0.0035067160578168026,2.053
0.0034879672942851906,2.054
0.0034686364259016405,2.055
0.0034487378394159277,2.056
0.0034282885753434576,2.057
0.003407308644071907,2.058
0.003385821278260867,2.059
0.003363852915995399,2.06
0.003341432697819394,2.061
0.0033185913480160093,2.062
0.003295359634847122,2.063
0.003271767200150461,2.064
0.00324784260242829,2.065
0.003223614414585238,2.066
0.0031991123843287425,2.067
0.00317436792517729,2.068
0.0031494138095388186,2.069
0.0031242832404556695,2.07
0.0030990086330740874,2.071
0.0030736205841504285,2.072
0.0030481474191328835,2.073
0.0030226152029482188,2.074
0.002997047760751946,2.075
0.002971466621536769,2.076
0.0029458912316288,2.077
0.0029203395706938885,2.078
0.002894828868783387,2.079
0.002869376063244742,2.08
0.002843997803618065,2.081
0.0028187099804898503,2.082
0.0027935270989102173,2.083
0.0027684621805379684,2.084
0.002743527525562393,2.085
0.002718735838761669,2.086
0.002694101028012588,2.087
0.002669638362376197,2.088
0.0026453639579279136,2.089
0.002621293784180758,2.09
0.0025974427430321668,2.091
0.0025738244603176795,2.092
0.002550451828726733,2.093
0.0025273377131989935,2.094
0.00250449534451979,2.095
0.0024819383551462444,2.096
0.0024596805907339666,2.097
0.002437735828785088,2.098
0.0024161174878150225,2.099
0.0023948383454590345,2.1
0.0023739102352818026,2.101
0.0023533436833646872,2.102
0.0023331475276290176,2.103
0.0023133287050565235,2.104
0.002293892344743482,2.105
0.0022748420564891055,2.106
0.002256180216283687,2.107
0.0022379081619051627,2.108
0.0022200262872811537,2.109
0.0022025340410434017,2.11
0.0021854298602328286,2.111
0.0021687111010854727,2.112
0.002152374041581333,2.113
0.0021364140118408422,2.114
0.002120825664344446,2.115
0.0021056033448381335,2.116
0.0020907414858924262,2.117
0.0020762349290151085,2.118
0.002062079089231861,2.119
0.0020482699050028285,2.12
0.0020348035589040805,2.121
0.00202167599663231,2.122
0.0020088823451734662,2.123
0.0019964164779970746,2.124
0.0019842710103005934,2.125
0.001972437739927873,2.126
0.0019609082763584174,2.127
0.0019496746293882511,2.128
0.00193872966660485,2.129
0.0019280673919547995,2.13
0.0019176830029642314,2.131
0.001907572707908515,2.132
0.0018977333254876795,2.133
0.0018881617434038666,2.134
0.0018788543637672382,2.135
0.0018698066836971205,2.136
0.001861013121763954,2.137
0.0018524671061426945,2.138
0.0018441613251750253,2.139
0.0018360879557631955,2.14
0.001828238665749775,2.141
0.0018206043568237617,2.142
0.001813175010186785,2.143
0.001805940100595505,2.144
0.0017988895427576274,2.145
0.0017920146952087879,2.146
0.0017853090292994833,2.147
0.0017787683371809622,2.148
0.0017723905396070428,2.149
0.0017661752563346868,2.15
0.0017601233087488459,2.151
0.0017542362477998012,2.152
0.0017485158976766064,2.153
0.0017429638352619379,2.154
0.0017375808524324721,2.155
0.0017323667773754463,2.156
0.001727320975960689,2.157
0.0017224433092110992,2.158
0.0017177350826953056,2.159
0.0017131997141476437,2.16
0.0017088429971820224,2.161
0.0017046729123321833,2.162
0.0017006990243450685,2.163
0.0016969315779829608,2.164
0.0016933805456325593,2.165
0.0016900550760810564,2.166
0.0016869636051092744,2.167
0.001684114339403172,2.168
0.0016815156635340235,2.169
0.001679176298616581,2.17
0.0016771052346204655,2.171
0.0016753114849606806,2.172
0.0016738037012740494,2.173
0.0016725897308633852,2.174
0.0016716763383163382,2.175
0.0016710693054753365,2.176
0.0016707738398703505,2.177
0.0016707950140251878,2.178
0.0016711380223986892,2.179
0.0016718081611243477,2.18
0.0016728105011575684,2.181
0.0016741494192952719,2.182
0.0016758284472144658,2.183
0.0016778507347451595,2.184
0.0016802198217573151,2.185
0.0016829402101672056,2.186
0.0016860174992210666,2.187
0.0016894580808164783,2.188
0.001693268503214862,2.189
0.0016974547423038357,2.19
0.0017020217544547443,2.191
0.0017069735178046937,2.192
0.0017123133424324882,2.193
0.0017180441075088457,2.194
0.0017241683019831597,2.195
0.001730687907973111,2.196
0.0017376042014377938,2.197
0.0017449175363429582,2.198
0.0017526271451245943,2.199
0.0017607309534359175,2.2
0.0017692254300671632,2.201
0.0017781055690321826,2.202
0.0017873650755203365,2.203
0.0017969966826227983,2.204
0.0018069924554163271,2.205
0.0018173439715527173,2.206
0.00182804230324935,2.207
0.0018390777689213963,2.208
0.0018504395533940014,2.209
0.0018621154627980402,2.21
0.0018740919737063138,2.211
0.0018863543938405182,2.212
0.0018988868647202004,2.213
0.0019116721809822365,2.214
0.0019246916438569203,2.215
0.0019379251179832005,2.216
0.0019513511639336425,2.217
0.001964947029285213,2.218
0.001978688572213143,2.219
0.0019925504268281193,2.22
0.002006506534648035,2.221
0.002020530840300611,2.222
0.002034597899297553,2.223
0.0020486832721197485,2.224
0.0020627636454687436,2.225
0.002076816635049511,2.226
0.002090820242164386,2.227
0.002104752087392974,2.228
0.0021185888891904476,2.229
0.002132306699150471,2.23
0.002145881842310327,2.231
0.002159292040814139,2.232
0.002172517295309537,2.233
0.0021855403561458885,2.234
0.0021983467496491573,2.235
0.002210924395900122,2.236
0.0022232629009722228,2.237
0.0022353526294163874,2.238
0.0022471836884825546,2.239
0.0022587450710455158,2.24
0.002270024323790167,2.241
0.002281007879063241,2.242
0.0022916817690990326,2.243
0.0023020323848313975,2.244
0.0023120471322477403,2.245
0.002321714915185262,2.246
0.002331026391978314,2.247
0.002339973999798938,2.248
0.002348551779714507,2.249
0.0023567550505998016,2.25
0.0023645799740792013,2.251
0.0023720230324478643,2.252
0.002379080413516736,2.253
0.002385747348626059,2.254
0.0023920176836845,2.255
0.002397884090936933,2.256
0.0024033389939260015,2.257
0.002408375844271922,2.258
0.0024129903384477085,2.259
0.0024171813212429897,2.26
0.002420951233925437,2.261
0.00242430605297934,2.262
0.0024272547573501637,2.263
0.0024298084352175355,2.264
0.00243197917548008,2.265
0.002433778902942317,2.266
0.0024352184477292155,2.267
0.0024363073039027332,2.268
0.0024370542619647543,2.269
0.0024374685554203333,2.27
0.0024375610463468183,2.271
0.0024373451867115087,2.272
0.0024368375871481555,2.273
0.002436058055273767,2.274
0.0024350290507812113,2.275
0.0024337746224918884,2.276
0.002432319066046582,2.277
0.0024306858053223007,2.278
0.0024288970314830997,2.279
0.002426974080719607,2.28
0.0024249379763002384,2.281
0.002422809680899453,2.282
0.0024206099989663474,2.283
0.002418359220661829,2.284
0.0024160765945762082,2.285
0.002413779786915482,2.286
0.0024114846305439844,2.287
0.002409205325255764,2.288
0.0024069548507635406,2.289
0.0024047452651839918,2.29
0.002402587777515848,2.291
0.002400492613388987,2.292
0.002398468713901298,2.293
0.00239652336657866,2.294
0.0023946620026590705,2.295
0.002392888376172665,2.296
0.0023912050792535863,2.297
0.002389614192374508,2.298
0.0023881179385701447,2.299
0.0023867192781547642,2.3
0.0023854223765226346,2.301
0.002384232872002637,2.302
0.0023831578853434595,2.303
0.002382205740971612,2.304
0.002381385407025285,2.305
0.0023807057010091547,2.306
0.0023801744439539124,2.307
0.0023797979794589245,2.308
0.00237958137367343,2.309
0.0023795291180315073,2.31
0.002379645936585961,2.311
0.0023799374803218235,2.312
0.0023804108291494066,2.313
0.0023810747366165962,2.314
0.002381939565791789,2.315
0.00238301690440241,2.316
0.00238431890446264,2.317
0.0023858574462045576,2.318
0.002387643303636018,2.319
0.0023896855828126227,2.32
0.002391991597208734,2.321
0.002394567013534315,2.322
0.0023974159564824657,2.323
0.002400540927527101,2.324
0.0024039425895396355,2.325
0.0024076195733223563,2.326
0.0024115684361037796,2.327
0.0024157837336537488,2.328
0.002420258060952225,2.329
0.002424981990186434,2.33
0.002429943950155104,2.331
0.002435130145589331,2.332
0.002440524611615554,2.333
0.002446109457655936,2.334
0.0024518653156245626,2.335
0.0024577719670635413,2.336
0.0024638090544619557,2.337
0.002469956716411403,2.338
0.0024761959804380715,2.339
0.0024825088112921893,2.34
0.0024888778139591674,2.341
0.0024952856821242844,2.342
0.0025017145235508497,2.343
0.002508145186531339,2.344
0.0025145567495250694,2.345
0.002520926413972159,2.346
0.002527229922500654,2.347
0.0025334423469968487,2.348
0.0025395389832627456,2.349
0.002545496123108152,2.35
0.0025512914656804727,2.351
0.0025569039345889207,2.352
0.002562312869083906,2.353
0.0025674971411965993,2.354
0.002572435194624533,2.355
0.0025771063341470915,2.356
0.0025814924443339445,2.357
0.0025855791344584346,2.358
0.0025893558572735076,2.359
0.0025928149659683914,2.36
0.002595950065336204,2.361
0.0025987546130934575,2.362
0.002601221809705405,2.363
0.002603345788157419,2.364
0.002605123147702697,2.365
0.002606554055821514,2.366
0.0026076427366290883,2.367
0.0026083974141321332,2.368
0.002608829829696159,2.369
0.0026089544759484904,2.37
0.002608787677123401,2.371
0.0026083465962048994,2.372
0.002607648191846479,2.373
0.0026067082507391878,2.374
0.0026055408880438506,2.375
0.0026041587879196376,2.376
0.00260257390524288,2.377
0.0026007981810562643,2.378
0.0025988441143078747,2.379
0.0025967252231848446,2.38
0.002594456440142281,2.381
0.002592054450364901,2.382
0.0025895379424889517,2.383
0.002586927719494438,2.384
0.002584246629095123,2.385
0.0025815193075771087,2.386
0.0025787717616167567,2.387
0.0025760308094670936,2.388
0.002573323361340784,2.389
0.0025706755965586177,2.39
0.002568112438006503,2.391
0.002565657850943183,2.392
0.002563335944461107,2.393
0.0025611722853940027,2.394
0.0025591948871397986,2.395
0.002557434654815632,2.396
0.002555925271597752,2.397
0.0025547026263049674,2.398
0.0025538039462863872,2.399
0.0025532667993821,2.4
0.002553128095056077,2.401
0.002553423281335517,2.402
0.0025541860596693562,2.403
0.002555448731236575,2.404
0.002557242851125521,2.405
0.0025595998095562147,2.406
0.0025625512104603797,2.407
0.0025661290525380003,2.408
0.0025703657296465153,2.409
0.0025752938588300333,2.41
0.002580945938827438,2.411
0.002587353860191353,2.412
0.002594548332601355,2.413
0.0026025583448396096,2.414
0.0026114107917510894,2.415
0.0026211303622574195,2.416
0.0026317396908618618,2.417
0.0026432596763925394,2.418
0.002655709815507821,2.419
0.0026691084074679265,2.42
0.00268347254762495,2.421
0.0026988179008273143,2.422
0.002715158336808706,2.423
0.0027325056549328272,2.424
0.002750869677187266,2.425
0.002770258776338837,2.426
0.0027906806569014957,2.427
0.0028121431765036676,2.428
0.002834655060074414,2.429
0.002858226384389173,2.43
0.0028828687413273634,2.431
0.0029085950516022,2.432
0.002935419071392636,2.433
0.002963354687808435,2.434
0.0029924151192147336,2.435
0.0030226121165768186,2.436
0.0030539552923685705,2.437
0.003086451818669515,2.438
0.0031201066455612703,2.439
0.003154923069862812,2.44
0.0031909033725601578,2.441
0.0032280493598876425,2.442
0.0032663627095106274,2.443
0.003305845047518324,2.444
0.0033464977303026807,2.445
0.0033883213641408582,2.446
0.003431315153643224,2.447
0.0034754762153309505,2.448
0.003520799008941082,2.449
0.0035672750152813226,2.45
0.0036148927256815754,2.451
0.0036636379202881135,2.452
0.0037134941274266564,2.453
0.0037644430975385334,2.454
0.0038164651059008287,2.455
0.003869538926993017,2.456
0.003923641403448556,2.457
0.003978746774700902,2.458
0.004034826278058963,2.459
0.004091848394321104,2.46
0.004149779477417462,2.461
0.004208584280892062,2.462
0.00426822616537125,2.463
0.0043286669696023326,2.464
0.004389866584849592,2.465
0.004451782312821795,2.466
0.004514368168833074,2.467
0.004577574410949364,2.468
0.004641347479142759,2.469
0.004705630185802832,2.47
0.004770361839573354,2.471
0.004835478121559937,2.472
0.004900910762222881,2.473
0.004966587308831454,2.474
0.005032431254536396,2.475
0.0050983624538811605,2.476
0.005164297574502252,2.477
0.005230150477267257,2.478
0.005295832550210745,2.479
0.0053612530367107575,2.48
0.005426319363959901,2.481
0.0054909374175137375,2.482
0.00555501163223027,2.483
0.005618444701280298,2.484
0.005681136799401581,2.485
0.005742984824479193,2.486
0.005803882872456765,2.487
0.005863724685083734,2.488
0.005922407447145343,2.489
0.005979835694229011,2.49
0.0060359242403604805,2.491
0.006090599176604275,2.492
0.006143796250833233,2.493
0.006195456869038499,2.494
0.006245523972909753,2.495
0.006293941215645538,2.496
0.0063406562528893744,2.497
0.006385625285776356,2.498
0.006428815979666399,2.499
0.006470208046617989,2.5
0.006509791941618163,2.501
0.006547566375795474,2.502
0.0065835353362825345,2.503
0.006617705083823991,2.504
0.006650081299091797,2.505
0.006680666636548526,2.506
0.0067094595892551075,2.507
0.006736455465596342,2.508
0.00676164902881258,2.509
0.006785037744578852,2.51
0.006806625014018629,2.511
0.006826423046575012,2.512
0.006844454943576604,2.513
0.006860755483208053,2.514
0.006875370172333403,2.515
0.006888352416637387,2.516
0.006899759213757557,2.517
0.006909646905029721,2.518
0.006918069381796007,2.519
0.006925079523923711,2.52
0.006930731934590323,2.521
0.006935084973820553,2.522
0.006938201798146095,2.523
0.006940150894244775,2.524
0.006941006506903101,2.525
0.0069408490660064675,2.526
0.006939765377129579,2.527
0.006937848148580073,2.528
0.006935194503251481,2.529
0.006931903432506878,2.53
0.006928072727033323,2.531
0.006923796679559569,2.532
0.006919165758254794,2.533
0.006914268016779169,2.534
0.00690919097218439,2.535
0.006904023114243876,2.536
0.006898854922574206,2.537
0.006893779454023655,2.538
0.0068888925376679065,2.539
0.0068842926103672665,2.54
0.0068800802315232305,2.541
0.006876357303223431,2.542
0.006873225986861558,2.543
0.006870787284211156,2.544
0.006869139332055114,2.545
0.006868375855288017,2.546
0.006868585636191624,2.547
0.0068698533335943114,2.548
0.006872260927818763,2.549
0.006875888934723341,2.55
0.0068808170964861064,2.551
0.006887124548628821,2.552
0.0068948895072156605,2.553
0.006904188538883854,2.554
0.006915095477957447,2.555
0.006927680131232747,2.556
0.006942007206389477,2.557
0.0069581360960123614,2.558
0.006976121654811083,2.559
0.006996015379027352,2.56
0.007017866333455818,2.561
0.007041721515857545,2.562
0.0070676255440222475,2.563
0.007095619662864804,2.564
0.00712574042637985,2.565
0.00715801893351635,2.566
0.007192481197886647,2.567
0.0072291491266041905,2.568
0.007268041226355613,2.569
0.007309172686951701,2.57
0.00735255489337656,2.571
0.007398194541308041,2.572
0.007446092631013161,2.573
0.007496243681713069,2.574
0.00754863533671278,2.575
0.0076032482585118855,2.576
0.007660056297016061,2.577
0.007719027058954307,2.578
0.007780122768204912,2.579
0.007843301073157944,2.58
0.00790851548530153,2.581
0.00797571521576508,2.582
0.008044844403097462,2.583
0.008115841326778124,2.584
0.00818863858669312,2.585
0.00826316452236909,2.586
0.008339345087146373,2.587
0.00841710527369318,2.588
0.008496369678234,2.589
0.008577062113194273,2.59
0.008659104320874583,2.591
0.008742414068342171,2.592
0.008826903476702508,2.593
0.008912478802007177,2.594
0.008999041986475878,2.595
0.009086492957331497,2.596
0.00917473149651785,2.597
0.009263658125687137,2.598
0.009353173855611506,2.599
0.009443178891405144,2.6
0.009533570605865712,2.601
0.00962424123505429,2.602
0.009715075946395303,2.603
0.009805952059249218,2.604
0.009896739696782238,2.605
0.009987303411908257,2.606
0.010077504359823427,2.607
0.010167203002889135,2.608
0.010256262350057202,2.609
0.01034455147141333,2.61
0.010431948726367372,2.611
0.010518343871623464,2.612
0.010603638115645221,2.613
0.010687741407779118,2.614
0.01077056727764105,2.615
0.0108520279488197,2.616
0.010932033890669764,2.617
0.0110104989120719,2.618
0.01108734751709916,2.619
0.011162521012849516,2.62
0.011235981042343515,2.621
0.011307710308075205,2.622
0.011377710545763314,2.623
0.011445998085947673,2.624
0.01151259758736766,2.625
0.01157753507398539,2.626
0.011640832611440818,2.627
0.011702507122581942,2.628
0.011762573211309269,2.629
0.011821047278115957,2.63
0.011877950698514524,2.631
0.011933311454665184,2.632
0.011987164236953165,2.633
0.01203954917652806,2.634
0.012090509548541616,2.635
0.012140088910314897,2.636
0.012188328146830121,2.637
0.012235262796694141,2.638
0.012280920871056993,2.639
0.012325321196710204,2.64
0.012368472220819058,2.641
0.012410371364260141,2.642
0.012451005210788119,2.643
0.012490350670910734,2.644
0.012528376938395942,2.645
0.012565047958106687,2.646
0.012600325094191029,2.647
0.012634169496352527,2.648
0.012666543421019255,2.649
0.012697409671183265,2.65
0.012726728916821726,2.651
0.012754456786827847,2.652
0.012780544452487426,2.653
0.012804944172592682,2.654
0.012827616969257266,2.655
0.01284853864307832,2.656
0.01286770207094028,2.657
0.012885115089248606,2.658
0.012900794146037967,2.659
0.012914756203140806,2.66
0.012927014717579953,2.661
0.012937583510480502,2.662
0.012946485203862547,2.663
0.012953758687264623,2.664
0.0129594632132114,2.665
0.01296367877462827,2.666
0.01296650301132034,2.667
0.012968045414587872,2.668
0.012968419929244725,2.669
0.012967737732438474,2.67
0.012966102974372323,2.671
0.012963612985003726,2.672
0.012960361032804065,2.673
0.012956438729016582,2.674
0.012951936977612358,2.675
0.01294694570326027,2.676
0.012941552862303713,2.677
0.012935843244032888,2.678
0.012929897485295381,2.679
0.012923791592016677,2.68
0.012917597109902146,2.681
0.012911381898019715,2.682
0.012905211219256515,2.683
0.01289914863001465,2.684
0.012893256051378449,2.685
0.01288759251782665,2.686
0.012882211670258274,2.687
0.012877159405027544,2.688
0.012872473916003243,2.689
0.012868188707091287,2.69
0.012864336704236085,2.691
0.012860953365442646,2.692
0.012858077845212415,2.693
0.01285575199120664,2.694
0.01285401732648515,2.695
0.012852910953724223,2.696
0.012852462648691464,2.697
0.01285269532413326,2.698
0.012853628487639551,2.699
0.01285528235144634,2.7
0.012857680776294397,2.701
0.012860852374152855,2.702
0.012864829640500916,2.703
0.012869646302960759,2.704
0.012875333350488101,2.705
0.012881914991333596,2.706
0.012889406922051847,2.707
0.012897818280708021,2.708
0.012907155833397065,2.709
0.012917428216156294,2.71
0.012928649274659984,2.711
0.012940840152887404,2.712
0.012954029855339522,2.713
0.012968254181961382,2.714
0.012983553139049772,2.715
0.01299996709538731,2.716
0.013017532343450652,2.717
0.013036277697639886,2.718
0.013056224116264906,2.719
0.013077387562777402,2.72
0.013099783288681072,2.721
0.013123429810429792,2.722
0.013148351864148655,2.723
0.01317458198178099,2.724
0.013202160351783536,2.725
0.013231132713708082,2.726
0.013261546216658955,2.727
0.0132934442792884,2.728
0.013326863506736165,2.729
0.013361834992085911,2.73
0.013398388231499764,2.731
0.013436554045486448,2.732
0.013476364796190809,2.733
0.013517852182793642,2.734
0.013561043703806824,2.735
0.013605959011137404,2.736
0.013652607067717391,2.737
0.013700984484730878,2.738
0.013751074890902163,2.739
0.013802848925910428,2.74
0.013856264456548,2.741
0.013911266679524454,2.742
0.013967788079698841,2.743
0.014025748768869976,2.744
0.014085057758744081,2.745
0.014145615109921083,2.746
0.014207314542426797,2.747
0.014270046146203705,2.748
0.014333698815046174,2.749
0.014398161913358264,2.75
0.014463325653412634,2.751
0.014529079805860769,2.752
0.01459531069748906,2.753
0.014661897355975465,2.754
0.014728709056673218,2.755
0.014795606186343725,2.756
0.014862443816650972,2.757
0.014929076075648256,2.758
0.01499536022413155,2.759
0.015061160021297784,2.76
0.015126347926386913,2.761
0.015190805667245637,2.762
0.015254422968808513,2.763
0.015317094651172201,2.764
0.015378716634053402,2.765
0.01543918145032227,2.766
0.015498373906116648,2.767
0.015556168035008575,2.768
0.015612426826788092,2.769
0.015667005079581072,2.77
0.01571975423636392,2.771
0.015770528065278573,2.772
0.015819188693511326,2.773
0.01586561253364572,2.774
0.01590969529539751,2.775
0.015951355001223123,2.776
0.015990531914446347,2.777
0.016027184656242335,2.778
0.016061282443569025,2.779
0.01609279557083939,2.78
0.01612168993350942,2.781
0.016147930198561516,2.782
0.016171489039271698,2.783
0.016192356388454347,2.784
0.0162105453021487,2.785
0.01622609359023822,2.786
0.016239061276078565,2.787
0.01624952454691221,2.788
0.016257567367471124,2.789
0.016263272543840735,2.79
0.016266714920392698,2.791
0.016267958987216773,2.792
0.016267060256401025,2.793
0.01626406750600346,2.794
0.01625902407576818,2.795
0.01625196837788596,2.796
0.016242934388156615,2.797
0.016231952692975143,2.798
0.01621905230858602,2.799
0.0162042630313869,2.8
0.016187617651663738,2.801
0.01616915313619562,2.802
0.01614890997436881,2.803
0.016126929258260873,2.804
0.016103247984619245,2.805
0.016077894952878945,2.806
0.016050890597311046,2.807
0.01602225147001336,2.808
0.015991996595066213,2.809
0.015960152764417628,2.81
0.015926757555470624,2.811
0.015891859763362277,2.812
0.01585551731036999,2.813
0.015817793040050265,2.814
0.015778749043741498,2.815
0.015738440843451777,2.816
0.015696913954236464,2.817
0.015654204686996326,2.818
0.015610344167017023,2.819
0.015565363294007435,2.82
0.015519297540379465,2.821
0.015472191339170728,2.822
0.015424101683065863,2.823
0.015375100248301191,2.824
0.015325273228372753,2.825
0.015274718217913224,2.826
0.01522353791663333,2.827
0.015171832541510716,2.828
0.015119696339693992,2.829
0.015067221849998525,2.83
0.015014508511081189,2.831
0.014961669900281622,2.832
0.014908837056821935,2.833
0.014856157663749488,2.834
0.014803791744116706,2.835
0.014751905104311135,2.836
0.014700662088329186,2.837
0.014650219834789311,2.838
0.01460072634881598,2.839
0.014552322500518394,2.84
0.014505145417237306,2.841
0.014459330906710704,2.842
0.014415014167708533,2.843
0.014372328772079928,2.844
0.014331404088005283,2.845
0.01429236189596112,2.846
0.014255313924436103,2.847
0.014220361667361892,2.848
0.014187597593358928,2.849
0.014157105581893235,2.85
0.01412895987194322,2.851
0.014103224132075024,2.852
0.014079952417489824,2.853
0.014059191534997536,2.854
0.014040982947394167,2.855
0.014025363055458673,2.856
0.014012361687878847,2.857
0.01400199963549211,2.858
0.013994287360274056,2.859
0.013989226362397238,2.86
0.013986812040947878,2.861
0.013987035925386282,2.862
0.01398988630192485,2.863
0.013995347148641502,2.864
0.014003395721233968,2.865
0.01401400001407437,2.866
0.01402711805890888,2.867
0.014042699732496744,2.868
0.014060689364857729,2.869
0.014081026980322375,2.87
0.014103647199422455,2.871
0.014128476667404783,2.872
0.014155432906460081,2.873
0.014184426388664519,2.874
0.014215363786200792,2.875
0.01424814947122947,2.876
0.014282684603001685,2.877
0.014318864700121137,2.878
0.014356576822558541,2.879
0.014395697155713998,2.88
0.014436089400101515,2.881
0.014477604347960804,2.882
0.014520081037323624,2.883
0.014563349632012524,2.884
0.0146072360003475,2.885
0.014651567743534762,2.886
0.014696180878900412,2.887
0.014740925820380604,2.888
0.014785671092857205,2.889
0.01483030347184628,2.89
0.01487472387473316,2.891
0.014918839655240539,2.892
0.014962556987243183,2.893
0.015005779334256732,2.894
0.015048414150731586,2.895
0.015090383358810211,2.896
0.015131632281014811,2.897
0.015172134863772252,2.898
0.015211894803038932,2.899
0.01525094276562757,2.9
0.015289330359061206,2.901
0.015327121750516487,2.902
0.015364384251504442,2.903
0.015401180587557139,2.904
0.015437566396105605,2.905
0.015473593484762807,2.906
0.015509315266010846,2.907
0.0155447909281186,2.908
0.015580087450053487,2.909
0.015615279746349388,2.91
0.01565044939806304,2.911
0.015685682485953666,2.912
0.015721066993423037,2.913
0.015756690114024807,2.914
0.015792635635893035,2.915
0.015828981443333678,2.916
0.015865797097444165,2.917
0.015903141459056757,2.918
0.0159410607000746,2.919
0.015979587665939758,2.92
0.016018743142732987,2.921
0.01605853830799864,2.922
0.016098977348412508,2.923
0.016140059830139532,2.924
0.016181782675548487,2.925
0.016224141510813295,2.926
0.016267131043653967,2.927
0.016310744131815446,2.928
0.016354969396559487,2.929
0.01639978772551148,2.93
0.01644516904848424,2.931
0.01649107150066933,2.932
0.016537443708927888,2.933
0.01658422868092571,2.934
0.016631367521846106,2.935
0.016678802203358274,2.936
0.016726476964840028,2.937
0.01677433787177599,2.938
0.016822330165613346,2.939
0.016870393825884497,2.94
0.016918459669764428,2.941
0.01696644912893378,2.942
0.01701427805543218,2.943
0.017061861678785907,2.944
0.017109118147103104,2.945
0.017155969987925707,2.946
0.017202343587793354,2.947
0.017248166772969916,2.948
0.017293364540866007,2.949
0.017337854017493683,2.95
0.017381541969653712,2.951
0.017424327767865552,2.952
0.017466110546845458,2.953
0.01750679696941321,2.954
0.017546306960592176,2.955
0.017584575817381216,2.956
0.017621551676646332,2.957
0.01765718841439448,2.958
0.01769143704334637,2.959
0.017724242150479443,2.96
0.017755546936611123,2.961
0.017785302675485583,2.962
0.01781347666819616,2.963
0.017840056422467696,2.964
0.017865049832401,2.965
0.017888481561366673,2.966
0.017910386320927292,2.967
0.017930800218002505,2.968
0.01794975240482923,2.969
0.017967260558128525,2.97
0.017983331860352742,2.971
0.017997967090708514,2.972
0.018011164990953392,2.973
0.018022926525565395,2.974
0.018033259609633603,2.975
0.0180421842800225,2.976
0.018049737388220483,2.977
0.018055975121994205,2.978
0.018060971497138704,2.979
0.018064811746699758,2.98
0.018067582479004137,2.981
0.01806936475307187,2.982
0.018070234783377825,2.983
0.018070269059674925,2.984
0.01806954715710577,2.985
0.018068149252610882,2.986
0.018066150209833102,2.987
0.01806361538171424,2.988
0.018060601669930176,2.989
0.01805716127953018,2.99
0.018053343116650623,2.991
0.01804919032221771,2.992
0.018044737460605517,2.993
0.01804001239987866,2.994
0.018035043596061614,2.995
0.018029868650613585,2.996
0.018024540107164994,2.997
0.018019126974842536,2.998
0.018013712170068873,2.999
0.01800838707055189,3.0
0.018003244913316795,3.001
0.017998374649750248,3.002
0.017993856250799543,3.003
0.01798975771546778,3.004
