VaMe,time
0.004237390435074707,0.001
0.00433105358653952,0.002
0.004424906888651888,0.003
0.004518865959486544,0.004
0.004612843392895362,0.005
0.004706748485568621,0.006
0.004800486867922297,0.007
0.004893960467227226,0.008
0.004987067916865344,0.009
0.005079704964674977,0.01
0.005171764388183554,0.011
0.005263135612649122,0.012
0.005353705009848819,0.013
0.0054433575471728125,0.014
0.005531979246135003,0.015
0.005619459359719391,0.016
0.005705691452474099,0.017
0.005790572853936991,0.018
0.005874002531345719,0.019
0.005955878957097658,0.02
0.006036100549043446,0.021
0.006114569385975088,0.022
0.006191196035312603,0.023
0.006265902986401486,0.024
0.006338625568046719,0.025
0.006409310244924184,0.026
0.006477910741760554,0.027
0.006544383203544358,0.028
0.00660868269952766,0.029
0.006670763031773546,0.03
0.006730579212060207,0.031
0.006788090201167152,0.032
0.0068432602629895575,0.033
0.006896058555298563,0.034
0.006946457125100077,0.035
0.006994427888454176,0.036
0.007039939919909256,0.037
0.0070829586003993425,0.038
0.007123446743572278,0.039
0.00716136618923737,0.04
0.0071966785498489335,0.041
0.0072293448750538605,0.042
0.007259324485500256,0.043
0.007286573326327317,0.044
0.007311042477919688,0.045
0.007332677760698797,0.046
0.0073514208507886505,0.047
0.007367211331236307,0.048
0.00737998893845056,0.049
0.007389695712443716,0.05
0.00739627795897334,0.051
0.0073996879096237915,0.052
0.007399884904461552,0.053
0.007396835819649274,0.054
0.0073905143652625875,0.055
0.007380898860189326,0.056
0.007367968820283447,0.057
0.00735170262160168,0.058
0.00733207908184983,0.059
0.007309082977262941,0.06
0.007282711703070156,0.061
0.007252980481452968,0.062
0.007219924876867767,0.063
0.007183600202799241,0.064
0.007144077990953953,0.065
0.007101440245539767,0.066
0.0070557729586837115,0.067
0.0070071613909505216,0.068
0.00695568914844653,0.069
0.006901440341709572,0.07
0.006844502331240353,0.071
0.006784967571658513,0.072
0.006722934512891924,0.073
0.00665850788719131,0.074
0.00659179860117078,0.075
0.006522923318494111,0.076
0.006452003713929817,0.077
0.006379165329878846,0.078
0.006304535975636557,0.079
0.006228243669082798,0.08
0.00615041440089722,0.081
0.0060711705732309,0.082
0.005990630961211728,0.083
0.005908911942534799,0.084
0.0058261288915329185,0.085
0.005742396973706967,0.086
0.005657831218595209,0.087
0.005572546017704682,0.088
0.005486654261560688,0.089
0.005400266343116838,0.09
0.005313489228603272,0.091
0.005226425749732386,0.092
0.005139174210726024,0.093
0.005051828331410201,0.094
0.004964477473391824,0.095
0.004877207040113075,0.096
0.0047900989194612125,0.097
0.004703231849711227,0.098
0.004616681624419383,0.099
0.004530521097644316,0.1
0.004444819998649234,0.101
0.004359644607818979,0.102
0.004275057415163995,0.103
0.004191116946632095,0.104
0.0041078778156346495,0.105
0.00402539082912371,0.106
0.003943703020140228,0.107
0.0038628576974820226,0.108
0.003782894594114713,0.109
0.003703850015878502,0.11
0.0036257568890680518,0.111
0.0035486447916322516,0.112
0.003472540131198771,0.113
0.0033974664993530797,0.114
0.0033234451073876218,0.115
0.0032504952358232077,0.116
0.003178634695622342,0.117
0.003107880307115799,0.118
0.003038248368900491,0.119
0.0029697550442090432,0.12
0.0029024165630167557,0.121
0.0028362491465614348,0.122
0.0027712686124148514,0.123
0.0027074897248813607,0.124
0.0026449255611463766,0.125
0.00258358729049274,0.126
0.0025234844604155086,0.127
0.0024646254389501417,0.128
0.0024070176838757507,0.129
0.0023506678052606115,0.13
0.0022955815164317573,0.131
0.0022417635593776483,0.132
0.0021892176647291136,0.133
0.002137946580697774,0.134
0.002087952175862936,0.135
0.0020392355805424495,0.136
0.0019917972930168525,0.137
0.0019456371665872187,0.138
0.0019007542262048512,0.139
0.0018571463594662073,0.14
0.0018148100671864585,0.141
0.0017737404572448782,0.142
0.0017339314351248467,0.143
0.001695375876783245,0.144
0.00165806565502187,0.145
0.0016219915397940113,0.146
0.0015871430540514088,0.147
0.0015535083676230883,0.148
0.0015210742852458845,0.149
0.0014898263424247937,0.15
0.0014597489808675038,0.151
0.0014308257503237215,0.152
0.0014030394823396329,0.153
0.0013763723962521039,0.154
0.001350806117040117,0.155
0.0013263216033237708,0.156
0.0013028990008915778,0.157
0.0012805174729098635,0.158
0.0012591551127720912,0.159
0.001238789024456926,0.16
0.0012193955451246733,0.161
0.0012009505320974417,0.162
0.0011834296640956645,0.163
0.0011668087163541174,0.164
0.0011510637569651125,0.165
0.0011361712203016427,0.166
0.0011221078473214023,0.167
0.0011088505217538942,0.168
0.0010963760506037118,0.169
0.001084660925360343,0.17
0.0010736810842830698,0.171
0.0010634117418658862,0.172
0.0010538274217195879,0.173
0.0010449022631662426,0.174
0.0010366105119270419,0.175
0.0010289270573515304,0.176
0.001021827924692348,0.177
0.0010152906508898785,0.178
0.0010092944725769684,0.179
0.001003820267883369,0.18
0.000998850223313445,0.181
0.0009943672428398102,0.182
0.0009903542741802088,0.183
0.0009867939586060308,0.184
0.0009836688446913074,0.185
0.0009809618878072676,0.186
0.0009786568282578933,0.187
0.000976738305755893,0.188
0.000975191727915208,0.189
0.000974002938440042,0.19
0.0009731577706643565,0.191
0.0009726416659294019,0.192
0.0009724395625986174,0.193
0.0009725360546190973,0.194
0.0009729155844646223,0.195
0.0009735624634778696,0.196
0.00097446070129256,0.197
0.0009755938063533266,0.198
0.0009769447789682753,0.199
0.000978496326456411,0.2
0.0009802310873269235,0.201
0.0009821316522060871,0.202
0.000984180371337666,0.203
0.0009863591911050957,0.204
0.00098864981743328,0.205
0.0009910342080203655,0.206
0.000993495106966761,0.207
0.000996016356365237,0.208
0.000998582868619707,0.209
0.0010011802456002298,0.21
0.0010037942099384665,0.211
0.001006410300187171,0.212
0.001009014203569552,0.213
0.0010115925710833446,0.214
0.001014133890025832,0.215
0.0010166291443671025,0.216
0.001019072138385189,0.217
0.001021459404467647,0.218
0.0010237896634167284,0.219
0.0010260629263237238,0.22
0.0010282796302002375,0.221
0.0010304403955324862,0.222
0.001032546531393953,0.223
0.0010346007292632515,0.224
0.0010366073802526889,0.225
0.0010385723869526557,0.226
0.0010405026119456877,0.227
0.0010424051935924226,0.228
0.0010442869574473189,0.229
0.001046154067195073,0.23
0.0010480119422286984,0.231
0.001049865372023549,0.232
0.0010517187067483915,0.233
0.0010535760027869465,0.234
0.001055441044257224,0.235
0.001057317230980126,0.236
0.0010592073901067004,0.237
0.0010611136005849488,0.238
0.0010630371049237097,0.239
0.0010649783367670924,0.24
0.0010669370408778424,0.241
0.0010689124232986123,0.242
0.001070903256768332,0.243
0.0010729078856134408,0.244
0.0010749241146370582,0.245
0.0010769490337490474,0.246
0.0010789789113702473,0.247
0.0010810092656403571,0.248
0.0010830350840807532,0.249
0.0010850511017200862,0.25
0.001087052097632761,0.251
0.0010890331988000473,0.252
0.0010909901637783438,0.253
0.0010929196006512643,0.254
0.0010948190701199896,0.255
0.0010966870301397271,0.256
0.00109852258348068,0.257
0.0011003250380953633,0.258
0.0011020934886057997,0.259
0.001103826808582044,0.26
0.001105524194125562,0.261
0.0011071859280836244,0.262
0.0011088139466337665,0.263
0.0011104120102768402,0.264
0.0011119854449294889,0.265
0.0011135405105965645,0.266
0.0011150836250949793,0.267
0.0011166208886351637,0.268
0.0011181581886817809,0.269
0.0011197016317643488,0.27
0.0011212578707494127,0.271
0.0011228341482994184,0.272
0.0011244380742958177,0.273
0.0011260772135542505,0.274
0.001127758635077489,0.275
0.001129488656275188,0.276
0.0011312728894254038,0.277
0.001133116432182048,0.278
0.0011350240125557875,0.279
0.0011370000549318503,0.28
0.001139048704075386,0.281
0.0011411738265364334,0.282
0.0011433789777734208,0.283
0.001145667298955032,0.284
0.0011480413384943131,0.285
0.0011505029186526668,0.286
0.0011530532385717145,0.287
0.0011556932431836366,0.288
0.0011584240653819756,0.289
0.0011612473160173993,0.29
0.0011641650917194745,0.291
0.001167179669449911,0.292
0.0011702930292162989,0.293
0.0011735065591856665,0.294
0.0011768211628849611,0.295
0.0011802375478025184,0.296
0.0011837563509601047,0.297
0.0011873779848094504,0.298
0.001191102321602829,0.299
0.0011949285117042543,0.3
0.0011988551345162041,0.301
0.001202880522528748,0.302
0.0012070029722951068,0.303
0.0012112207177116681,0.304
0.0012155316823845306,0.305
0.0012199331514197015,0.306
0.0012244216300049714,0.307
0.0012289930429503653,0.308
0.00123364313707467,0.309
0.0012383678726953103,0.31
0.0012431637114736235,0.311
0.001248027774363061,0.312
0.0012529578590165893,0.313
0.0012579523252455188,0.314
0.0012630098721741877,0.315
0.0012681292409121765,0.316
0.0012733088827515374,0.317
0.0012785466312581326,0.318
0.0012838394243873171,0.319
0.0012891831490515788,0.32
0.0012945726526338596,0.321
0.0013000018709944513,0.322
0.0013054639840106297,0.323
0.0013109515530043388,0.324
0.001316456635598721,0.325
0.0013219708938881833,0.326
0.0013274857263952734,0.327
0.001332992454913929,0.328
0.0013384825752178503,0.329
0.0013439480428941847,0.33
0.001349381535732101,0.331
0.00135477663395775,0.332
0.0013601278861046578,0.333
0.0013654307559737373,0.334
0.001370681455017427,0.335
0.0013758766582244162,0.336
0.0013810130970341018,0.337
0.001386087086593796,0.338
0.0013910942125346787,0.339
0.0013960294358348621,0.34
0.0014008875996099003,0.341
0.0014056640700732274,0.342
0.0014103552750472455,0.343
0.0014149590338477947,0.344
0.001419474654431166,0.345
0.0014239028276863445,0.346
0.001428245372051217,0.347
0.0014325048644403264,0.348
0.0014366841620046624,0.349
0.0014407858546660215,0.35
0.0014448118530332374,0.351
0.001448763389898316,0.352
0.0014526414416643136,0.353
0.0014564472569249646,0.354
0.0014601826930076345,0.355
0.0014638502434125072,0.356
0.001467452751171723,0.357
0.0014709928980012027,0.358
0.0014744727367667484,0.359
0.001477893626205012,0.36
0.0014812566553383743,0.361
0.0014845632690807038,0.362
0.001487815775005273,0.363
0.0014910175817231968,0.364
0.0014941731137123211,0.365
0.0014972873997918755,0.366
0.0015003654404105863,0.367
0.0015034116540775715,0.368
0.0015064297624768175,0.369
0.0015094231377916641,0.37
0.001512395257377621,0.371
0.0015153499468115483,0.372
0.001518291331276607,0.373
0.00152122354169129,0.374
0.0015241502640308574,0.375
0.0015270742889070181,0.376
0.0015299972824083343,0.377
0.0015329198464294597,0.378
0.0015358416548464193,0.379
0.0015387614407681867,0.38
0.0015416768890435884,0.381
0.001544584711504287,0.382
0.0015474810678513268,0.383
0.0015503621820602284,0.384
0.001553224898900653,0.385
0.0015560670336207808,0.386
0.0015588874584993484,0.387
0.0015616859144375664,0.388
0.0015644625681759234,0.389
0.0015672174058976567,0.39
0.0015699497310703641,0.391
0.0015726581127150849,0.392
0.001575340833483058,0.393
0.0015779965317033941,0.394
0.0015806247528255015,0.395
0.0015832263222651328,0.396
0.0015858035304955624,0.397
0.0015883601268338904,0.398
0.0015909011272557607,0.399
0.0015934324576244903,0.4
0.0015959604732181385,0.401
0.0015984914134107497,0.402
0.0016010308613807673,0.403
0.0016035833021421874,0.404
0.001606151896740392,0.405
0.001608738512677525,0.406
0.0016113439162522205,0.407
0.0016139680225080485,0.408
0.0016166101607797943,0.409
0.0016192693207855585,0.41
0.0016219443361613964,0.411
0.0016246339820755271,0.412
0.0016273369907923603,0.413
0.0016300520034023597,0.414
0.0016327774723776237,0.415
0.001635511518669332,0.416
0.0016382517432740064,0.417
0.0016409950019421774,0.418
0.001643737168188196,0.419
0.00164647292618639,0.42
0.0016491956426409927,0.421
0.0016518973559555914,0.422
0.0016545688894937414,0.423
0.0016572000531135068,0.424
0.0016597798602697453,0.425
0.0016622966705963748,0.426
0.001664738174130315,0.427
0.0016670912020435547,0.428
0.0016693415373516675,0.429
0.0016714740313609996,0.43
0.0016734731303224362,0.431
0.0016753235950074208,0.432
0.0016770111511851175,0.433
0.001678522950300202,0.434
0.0016798478096094862,0.435
0.0016809762306848198,0.436
0.0016819002023364536,0.437
0.0016826127887771952,0.438
0.0016831075014553496,0.439
0.0016833775730660185,0.44
0.0016834155390126726,0.441
0.001683213524223302,0.442
0.0016827641227386888,0.443
0.0016820614033892331,0.444
0.0016811016877466521,0.445
0.0016798839318297384,0.446
0.0016784096309100953,0.447
0.0016766822508112486,0.448
0.0016747062892322757,0.449
0.0016724862305844417,0.45
0.0016700258420138507,0.451
0.0016673280960092926,0.452
0.0016643954933569932,0.453
0.0016612303655067237,0.454
0.0016578349968922705,0.455
0.0016542116384328464,0.456
0.0016503625214454476,0.457
0.0016462899471447673,0.458
0.0016419964790362921,0.459
0.0016374852175607194,0.46
0.0016327600948713385,0.461
0.0016278260984246486,0.462
0.0016226893262327497,0.463
0.0016173568044269206,0.464
0.0016118360544300002,0.465
0.0016061344732909374,0.466
0.0016002587354503968,0.467
0.0015942145545865716,0.468
0.0015880069499792824,0.469
0.0015816407905390503,0.47
0.0015751213548402777,0.471
0.0015684548387238611,0.472
0.0015616487970334535,0.473
0.0015547124589564022,0.474
0.0015476568330095367,0.475
0.0015404945436273208,0.476
0.0015332394080856545,0.477
0.001525905835388483,0.478
0.0015185081722276033,0.479
0.0015110601207775545,0.48
0.0015035743183728625,0.481
0.001496062117718264,0.482
0.001488533549289879,0.483
0.0014809973919164114,0.484
0.0014734612376849437,0.485
0.0014659314896173987,0.486
0.0014584134076743567,0.487
0.0014509113842900013,0.488
0.0014434294441523787,0.489
0.0014359718010776106,0.49
0.0014285433290785264,0.491
0.0014211498767346643,0.492
0.0014137983983900017,0.493
0.0014064969049133013,0.494
0.0013992542558633196,0.495
0.0013920798308823406,0.496
0.0013849831333942986,0.497
0.0013779733878164706,0.498
0.0013710591859231133,0.499
0.0013642482182657512,0.5
0.0013575470972195737,0.501
0.0013509612508242703,0.502
0.0013444948661497508,0.503
0.0013381508889591632,0.504
0.0013319310893419839,0.505
0.0013258361685895771,0.506
0.0013198658713121317,0.507
0.0013140190894908998,0.508
0.0013082939655232016,0.509
0.0013026880088881246,0.51
0.0012971982351364041,0.511
0.0012918213155430922,0.512
0.0012865537006306433,0.513
0.0012813916669834346,0.514
0.0012763312482075107,0.515
0.0012713680491691476,0.516
0.001266496992169846,0.517
0.001261712080114749,0.518
0.0012570062685540709,0.519
0.0012523715150867284,0.52
0.0012477990301160682,0.521
0.0012432796962942687,0.522
0.0012388045622293668,0.523
0.0012343652638717485,0.524
0.0012299542111573003,0.525
0.001225564418224273,0.526
0.0012211890328717608,0.527
0.0012168209564285,0.528
0.0012124530229051793,0.529
0.001208078738913251,0.53
0.001203693146624814,0.531
0.0011992934234037183,0.532
0.0011948790600433232,0.533
0.0011904515931620266,0.534
0.001186013959369164,0.535
0.001181569638640425,0.536
0.0011771218782657368,0.537
0.0011726733083052795,0.538
0.0011682259643441464,0.539
0.001163781403033367,0.54
0.001159340666498629,0.541
0.001154904107938771,0.542
0.001150471197253269,0.543
0.0011460404077582775,0.544
0.0011416091949882497,0.545
0.0011371740279477595,0.546
0.0011327305096974878,0.547
0.0011282736535102136,0.548
0.0011237982870404494,0.549
0.0011192994953575788,0.55
0.0011147730208543826,0.551
0.0011102155501557696,0.552
0.0011056248356648753,0.553
0.0011009996329328507,0.554
0.001096339470638354,0.555
0.0010916442912943419,0.556
0.0010869140056758834,0.557
0.0010821480721866256,0.558
0.0010773453438381745,0.559
0.0010725043371776221,0.56
0.0010676237740577371,0.561
0.0010627031482073983,0.562
0.001057743178047565,0.563
0.0010527460599133866,0.564
0.001047715445468793,0.565
0.0010426561110631213,0.566
0.0010375733675909004,0.567
0.0010324724313172456,0.568
0.0010273581378143805,0.569
0.0010222351599524415,0.57
0.0010171084397329528,0.571
0.0010119834772309099,0.572
0.00100686635822316,0.573
0.0010017635360740856,0.574
0.0009966814412356783,0.575
0.0009916261011164247,0.576
0.0009866030072725423,0.577
0.0009816172776860863,0.578
0.0009766739072202995,0.579
0.0009717779105442376,0.58
0.0009669343267340596,0.581
0.0009621481317087968,0.582
0.0009574241028010479,0.583
0.000952766661416448,0.584
0.0009481797027736537,0.585
0.000943666438234579,0.586
0.0009392293304722674,0.587
0.0009348701966092053,0.588
0.0009305904562505113,0.589
0.0009263914357945864,0.59
0.0009222746441310539,0.591
0.0009182419416975962,0.592
0.0009142955352826324,0.593
0.0009104377681960237,0.594
0.0009066707817225965,0.595
0.0009029962794769379,0.596
0.0008994155817760257,0.597
0.0008959298721284725,0.598
0.0008925404042288208,0.599
0.0008892485689981594,0.6
0.000886055852827831,0.601
0.000882963746796915,0.602
0.0008799736491988746,0.603
0.0008770867795575329,0.604
0.0008743041088674966,0.605
0.0008716263079029794,0.606
0.0008690537135695104,0.607
0.0008665863093396619,0.608
0.0008642237142280787,0.609
0.0008619651744570789,0.61
0.0008598095442408062,0.611
0.0008577552260682663,0.612
0.0008558000715887145,0.613
0.0008539413555533728,0.614
0.0008521759668169036,0.615
0.0008505008145968626,0.616
0.0008489133222535537,0.617
0.000847411882434709,0.618
0.0008459961754878519,0.619
0.0008446672706302604,0.62
0.0008434274624420621,0.621
0.0008422798449717491,0.622
0.0008412277475730999,0.623
0.0008402743468447621,0.624
0.0008394227163280541,0.625
0.0008386761955214444,0.626
0.0008380387468732068,0.627
0.0008375151127478479,0.628
0.0008371107593347438,0.629
0.0008368316564136807,0.63
0.0008366839585597833,0.631
0.000836673655579516,0.632
0.0008368062677372118,0.633
0.0008370866709397846,0.634
0.00083751907585172,0.635
0.0008381070857981017,0.636
0.0008388537612896686,0.637
0.0008397616953973883,0.638
0.0008408331351855964,0.639
0.0008420701618518999,0.64
0.0008434748998219534,0.641
0.0008450496847401721,0.642
0.0008467971057812301,0.643
0.0008487198611702532,0.644
0.0008508204751465618,0.645
0.0008531011063000327,0.646
0.0008555636623859977,0.647
0.0008582101469221422,0.648
0.000861042988417736,0.649
0.0008640651949068794,0.65
0.0008672802984935228,0.651
0.000870692111244286,0.652
0.0008743043632178454,0.653
0.0008781203645429087,0.654
0.0008821428443569053,0.655
0.0008863739655751347,0.656
0.0008908153549157513,0.657
0.0008954680416417705,0.658
0.0009003323537463171,0.659
0.000905407869649943,0.66
0.0009106934546265868,0.661
0.0009161873433248569,0.662
0.0009218872413116464,0.663
0.0009277904487259268,0.664
0.0009338939946310169,0.665
0.0009401947389134109,0.666
0.0009466893867687919,0.667
0.0009533743796468559,0.668
0.0009602456904006962,0.669
0.0009672986428107736,0.67
0.0009745278715603338,0.671
0.0009819273948709335,0.672
0.000989490681064516,0.673
0.0009972106497614965,0.674
0.001005079623521526,0.675
0.001013089258667505,0.676
0.0010212304758007442,0.677
0.0010294934123570615,0.678
0.0010378674317179496,0.679
0.0010463412335743173,0.68
0.0010549031028731903,0.681
0.0010635413033176222,0.682
0.0010722445734715424,0.683
0.0010810026351369068,0.684
0.00108980659250499,0.685
0.0010986491013407925,0.686
0.0011075242268933454,0.687
0.0011164269786030836,0.688
0.0011253526478653298,0.689
0.0011342962960538788,0.69
0.0011432527498669556,0.691
0.0011522170680785355,0.692
0.0011611851113534277,0.693
0.0011701539288719674,0.694
0.001179121882094776,0.695
0.0011880885142312586,0.696
0.0011970542056271337,0.697
0.0012060196877355365,0.698
0.0012149855169892097,0.699
0.0012239516195056129,0.7
0.0012329169961442436,0.701
0.0012418796303156545,0.702
0.0012508365864615644,0.703
0.0012597842422133576,0.704
0.001268718571650769,0.705
0.0012776353943433278,0.706
0.0012865305207386286,0.707
0.001295399750349087,0.708
0.0013042387109043342,0.709
0.0013130425623452866,0.71
0.0013218056633754903,0.711
0.001330521390155345,0.712
0.001339182220052677,0.713
0.0013477799776376192,0.714
0.0013563060897172291,0.715
0.0013647518005130055,0.716
0.0013731083430461467,0.717
0.0013813670403073981,0.718
0.0013895192844216614,0.719
0.0013975563401022878,0.72
0.0014054689945825385,0.721
0.0014132472504904893,0.722
0.0014208803159642342,0.723
0.0014283569007219744,0.724
0.0014356655734505963,0.725
0.0014427949745886369,0.726
0.0014497338292949861,0.727
0.001456470763288206,0.728
0.0014629939629524254,0.729
0.0014692908786238992,0.73
0.0014753483119330894,0.731
0.0014811530281777525,0.732
0.0014866926541950854,0.733
0.001491956517672316,0.734
0.0014969362098722,0.735
0.0015016257620877587,0.736
0.0015060214069367722,0.737
0.0015101209715945153,0.738
0.0015139230014314389,0.739
0.0015174258495959715,0.74
0.0015206271762181493,0.741
0.0015235241046664422,0.742
0.001526113726641693,0.743
0.0015283935156776317,0.744
0.001530361512120927,0.745
0.0015320163344455606,0.746
0.0015333570981320337,0.747
0.0015343833189593744,0.748
0.00153509486815392,0.749
0.0015354920341120854,0.75
0.0015355757179906285,0.751
0.0015353477428294876,0.752
0.001534811199098084,0.753
0.0015339707058519172,0.754
0.0015328324572643013,0.755
0.0015314039583630267,0.756
0.0015296934227184125,0.757
0.001527708994894656,0.758
0.0015254582561758806,0.759
0.0015229483783435293,0.76
0.001520186712935105,0.761
0.0015171813190747129,0.762
0.0015139411729262172,0.763
0.0015104760680761007,0.764
0.0015067963303928861,0.765
0.001502912514684918,0.766
0.0014988352304875691,0.767
0.0014945751612954594,0.768
0.00149014323606261,0.769
0.0014855508376412608,0.77
0.001480809918311526,0.771
0.0014759329299660698,0.772
0.0014709325414738123,0.773
0.0014658211849040462,0.774
0.00146061056391461,0.775
0.0014553113432665113,0.776
0.0014499331372516088,0.777
0.0014444846713964044,0.778
0.0014389739344038818,0.779
0.0014334082649664702,0.78
0.0014277943908856453,0.781
0.0014221384348563288,0.782
0.0014164458975596977,0.783
0.0014107216374484482,0.784
0.001404969874989004,0.785
0.0013991942447644208,0.786
0.0013933979027148358,0.787
0.001387583678727229,0.788
0.001381754253336974,0.789
0.001375912330890443,0.79
0.0013700607820596139,0.791
0.0013642027388910663,0.792
0.0013583416369583703,0.793
0.0013524811968195429,0.794
0.0013466253205467664,0.795
0.0013407778664827669,0.796
0.0013349423051786085,0.797
0.0013291214100115952,0.798
0.001323317249315949,0.799
0.0013175315545294961,0.8
0.0013117662248119308,0.801
0.0013060236932311035,0.802
0.0013003070412559155,0.803
0.0012946198582690373,0.804
0.0012889658959755032,0.805
0.0012833486074621272,0.806
0.0012777707035690926,0.807
0.0012722338710153451,0.808
0.0012667386806585357,0.809
0.001261284596640938,0.81
0.0012558700688167699,0.811
0.0012504927622339864,0.812
0.001245149896156203,0.813
0.001239838601388254,0.814
0.0012345562143436545,0.815
0.0012293004339569635,0.816
0.0012240692802509081,0.817
0.0012188608346078854,0.818
0.0012136728398436446,0.819
0.001208502388984303,0.82
0.0012033459359381577,0.821
0.001198199614649255,0.822
0.0011930596642337988,0.823
0.0011879228247883829,0.824
0.0011827866863629002,0.825
0.0011776499919633869,0.826
0.0011725128611354148,0.827
0.0011673768672308198,0.828
0.0011622448953109335,0.829
0.0011571207397000317,0.83
0.0011520084991698185,0.831
0.001146912032768812,0.832
0.001141834837860093,0.833
0.0011367804038650696,0.834
0.0011317527007005653,0.835
0.001126756483405772,0.836
0.0011217973423478119,0.837
0.0011168815526913668,0.838
0.0011120157976911877,0.839
0.0011072068345070502,0.84
0.0011024611500195156,0.841
0.0010977846469864816,0.842
0.0010931824315930916,0.843
0.0010886587726771067,0.844
0.001084217201960683,0.845
0.0010798606343516849,0.846
0.001075591413440233,0.847
0.0010714112502166835,0.848
0.0010673210976137365,0.849
0.0010633211183190899,0.85
0.0010594108776165385,0.851
0.0010555896858118823,0.852
0.0010518569088049886,0.853
0.0010482121206558418,0.854
0.0010446550330637974,0.855
0.0010411852199411437,0.856
0.0010378018288750626,0.857
0.0010345035599939045,0.858
0.0010312889687315134,0.859
0.0010281568575072123,0.86
0.0010251065333858088,0.861
0.0010221378863802197,0.862
0.0010192513308928074,0.863
0.0010164476591338417,0.864
0.0010137278439598292,0.865
0.001011092820964633,0.866
0.0010085432815524443,0.867
0.0010060795101533297,0.868
0.0010037012900113447,0.869
0.0010014078806565283,0.87
0.0009991980399010484,0.871
0.0009970700365282336,0.872
0.0009950215959602991,0.873
0.0009930497800574273,0.874
0.0009911509146796093,0.875
0.0009893206881012575,0.876
0.000987554406570014,0.877
0.000985847315462314,0.878
0.0009841949361365202,0.879
0.0009825933973354396,0.88
0.000981039718498949,0.881
0.0009795319717542496,0.882
0.0009780692378084511,0.883
0.0009766512964779757,0.884
0.000975278121986309,0.885
0.0009739494910291385,0.886
0.0009726650241595995,0.887
0.0009714245939748446,0.888
0.0009702287408265558,0.889
0.0009690788508487922,0.89
0.0009679770591025431,0.891
0.0009669259209120324,0.892
0.0009659279612919155,0.893
0.0009649853483909576,0.894
0.0009640999273607653,0.895
0.0009632735581973054,0.896
0.0009625084665517854,0.897
0.0009618073850815952,0.898
0.0009611734300360592,0.899
0.0009606097635207801,0.9
0.0009601192119814557,0.901
0.0009597041130687142,0.902
0.0009593665029402425,0.903
0.0009591084420931714,0.904
0.0009589322257576435,0.905
0.0009588403922475507,0.906
0.0009588355560026851,0.907
0.0009589201375353059,0.908
0.0009590960822485928,0.909
0.0009593646478412111,0.91
0.0009597263071011642,0.911
0.0009601807760470404,0.912
0.000960727145470184,0.913
0.0009613640673831005,0.914
0.0009620899274542313,0.915
0.0009629029257971697,0.916
0.0009638009981724882,0.917
0.0009647816190310448,0.918
0.0009658417350860593,0.919
0.0009669780401715299,0.92
0.0009681874614764424,0.921
0.0009694675716354665,0.922
0.0009708167714929481,0.923
0.0009722342185879061,0.924
0.000973719543801321,0.925
0.0009752724341868817,0.926
0.0009768922121916525,0.927
0.0009785776280718788,0.928
0.0009803269970854434,0.929
0.0009821385541001642,0.93
0.0009840108108463254,0.931
0.0009859428051453639,0.932
0.0009879341961780885,0.933
0.0009899851744639989,0.934
0.0009920961834508977,0.935
0.0009942675232271223,0.936
0.0009964990311228112,0.937
0.0009987900440859541,0.938
0.00100113963055225,0.939
0.0010035468913255723,0.94
0.001006011177234883,0.941
0.0010085321890780214,0.942
0.00101110996623513,0.943
0.0010137447744436347,0.944
0.0010164369100692486,0.945
0.0010191864477370396,0.946
0.001021992969694784,0.947
0.0010248553470539425,0.948
0.0010277716708877033,0.949
0.0010307393655040874,0.95
0.0010337554052819837,0.951
0.0010368165461650998,0.952
0.0010399195368822197,0.953
0.0010430612932423354,0.954
0.001046239017206474,0.955
0.001049450250686344,0.956
0.0010526928658433881,0.957
0.0010559649972602893,0.958
0.0010592649106788534,0.959
0.0010625907855555815,0.96
0.0010659404290039559,0.961
0.0010693110816795963,0.962
0.0010726995226886917,0.963
0.0010761024645781375,0.964
0.001079517016848057,0.965
0.00108294102149548,0.966
0.0010863731821020711,0.967
0.0010898129831689166,0.968
0.001093260442482759,0.969
0.0010967157598215321,0.97
0.0011001789189793334,0.971
0.0011036493465276722,0.972
0.0011071258301057782,0.973
0.001110606813715694,0.974
0.0011140909231215717,0.975
0.0011175774736058388,0.976
0.0011210667948758353,0.977
0.001124560278932029,0.978
0.00112806011316122,0.979
0.0011315687599647208,0.98
0.0011350884293850703,0.981
0.0011386209052848544,0.982
0.0011421678105084084,0.983
0.0011457309785386088,0.984
0.0011493125827073322,0.985
0.001152914932372588,0.986
0.001156540065741163,0.987
0.001160189444552932,0.988
0.0011638639951852487,0.989
0.0011675644003808774,0.99
0.0011712913665247523,0.991
0.0011750457178809214,0.992
0.0011788283146255605,0.993
0.001182639838400276,0.994
0.0011864804961019394,0.995
0.0011903497279545847,0.996
0.0011942460729976918,0.997
0.001198167283270311,0.998
0.0012021105999119272,0.999
0.001206073066827742,1.0
0.0012100518499068057,1.001
0.001214044570779529,1.002
0.0012180496473939383,1.003
0.0012220666033581525,1.004
0.0012260962764744975,1.005
0.0012301408434174234,1.006
0.0012342035961271476,1.007
0.0012382884530548147,1.008
0.0012423993268565476,1.009
0.0012465397004854683,1.01
0.001250712724073226,1.011
0.0012549217158375069,1.012
0.001259170697630912,1.013
0.0012634647584177576,1.014
0.001267810242565211,1.015
0.001272214817775556,1.016
0.0012766874669841739,1.017
0.0012812384244864441,1.018
0.0012858790562341586,1.019
0.0012906216706609313,1.02
0.0012954792361815266,1.021
0.0013004649773087052,1.022
0.0013055918852076071,1.023
0.001310872357386166,1.024
0.001316318238307014,1.025
0.0013219412515113064,1.026
0.0013277535270734729,1.027
0.0013337679654406122,1.028
0.0013399983466990885,1.029
0.0013464591846887974,1.03
0.0013531653690413074,1.031
0.001360131672582379,1.032
0.0013673722475201306,1.033
0.001374900275679534,1.034
0.001382727840942395,1.035
0.0013908659120407908,1.036
0.0013993243635240663,1.037
0.0014081121349427785,1.038
0.001417237572942511,1.039
0.0014267088071562505,1.04
0.0014365339632188244,1.041
0.001446721097764444,1.042
0.0014572778792201603,1.043
0.0014682112628585054,1.044
0.0014795275080972277,1.045
0.0014912326050698862,1.046
0.0015033328302281024,1.047
0.001515835152445274,1.048
0.0015287474019429223,1.049
0.0015420782349154605,1.05
0.001555836978926341,1.051
0.0015700334516074352,1.052
0.0015846778043827627,1.053
0.001599780383385987,1.054
0.0016153515567310336,1.055
0.0016314014455030001,1.056
0.0016479395483448014,1.057
0.0016649744236917454,1.058
0.0016825137293212135,1.059
0.0017005647263369846,1.06
0.0017191350234563264,1.061
0.0017382332749764833,1.062
0.0017578696652843443,1.063
0.001778056084214538,1.064
0.0017988059492324644,1.065
0.0018201337118152047,1.066
0.0018420541674362976,1.067
0.0018645817353152953,1.068
0.0018877298671576574,1.069
0.0019115106854604054,1.07
0.0019359348581884377,1.071
0.0019610116201929204,1.072
0.0019867487919204294,1.073
0.002013152710346568,1.074
0.0020402282214645635,1.075
0.0020679790181518496,1.076
0.0020964083974338195,1.077
0.002125520227088871,1.078
0.0021553198281575193,1.079
0.0021858145074299938,1.08
0.0022170135381833615,1.081
0.002248927520071037,1.082
0.0022815672989863925,1.083
0.002314942994596941,1.084
0.0023490637491131935,1.085
0.002383938212329005,1.086
0.002419575185858392,1.087
0.0024559839569483397,1.088
0.002493174228492214,1.089
0.002531155702634743,1.09
0.002569937395749666,1.091
0.0026095268915261607,1.092
0.0026499299634997545,1.093
0.002691150837521898,1.094
0.002733192844075182,1.095
0.002776059067524456,1.096
0.0028197528258107935,1.097
0.00286427791924835,1.098
0.0029096385796435133,1.099
0.0029558390676686446,1.1
0.003002882926327302,1.101
0.0030507721464523565,1.102
0.0030995068423288995,1.103
0.0031490857944517637,1.104
0.003199507480804451,1.105
0.003250771006351219,1.106
0.003302876659338044,1.107
0.0033558260331120917,1.108
0.0034096217256544803,1.109
0.00346426669751084,1.11
0.0035197634177403813,1.111
0.003576112943211965,1.112
0.003633314070280884,1.113
0.0036913627144119113,1.114
0.003750251661287016,1.115
0.0038099706759532406,1.116
0.003870506793416215,1.117
0.003931844648506601,1.118
0.00399396680575443,1.119
0.004056854065114337,1.12
0.004120485704467297,1.121
0.004184839631871092,1.122
0.004249892447972034,1.123
0.004315619438703133,1.124
0.004381994515252858,1.125
0.0044489900987044525,1.126
0.004516576931206694,1.127
0.004584723797856588,1.128
0.0046533971594766976,1.129
0.004722560712040615,1.13
0.0047921748943244155,1.131
0.004862196380602872,1.132
0.004932577669188062,1.133
0.005003266940292068,1.134
0.005074208234683782,1.135
0.005145341813025324,1.136
0.005216604561391826,1.137
0.005287930428826197,1.138
0.005359250920481115,1.139
0.005430495628123714,1.14
0.005501592715755805,1.141
0.00557246923226186,1.142
0.005643051135062836,1.143
0.005713262988580492,1.144
0.005783027422880634,1.145
0.005852264551645625,1.146
0.0059208915970653956,1.147
0.005988822908626202,1.148
0.006055970392353385,1.149
0.006122244142784708,1.15
0.006187552884848491,1.151
0.006251803772162545,1.152
0.00631490142985337,1.153
0.0063767471234255245,1.154
0.006437239548116426,1.155
0.006496277700290551,1.156
0.006553764813048063,1.157
0.0066096121212315916,1.158
0.006663741710136995,1.159
0.006716087978357384,1.16
0.006766597428234914,1.161
0.006815226770864858,1.162
0.006861939627487506,1.163
0.006906702312772692,1.164
0.006949479764877425,1.165
0.006990233643544389,1.166
0.007028923851095572,1.167
0.007065512391909609,1.168
0.0070999678814408825,1.169
0.007132269967951945,1.17
0.007162413178193544,1.171
0.0071904094398500176,1.172
0.007216288548928656,1.173
0.007240096194853861,1.174
0.0072618896932280345,1.175
0.007281732164689819,1.176
0.007299686956633474,1.177
0.007315815038698791,1.178
0.007330176363413355,1.179
0.00734283301013548,1.18
0.0073538517163880615,1.181
0.007363305281200167,1.182
0.007371273162192271,1.183
0.007377841528801239,1.184
0.007383102889144097,1.185
0.007387155264491123,1.186
0.0073901008197265515,1.187
0.007392043899884717,1.188
0.007393088548868159,1.189
0.007393335903579693,1.19
0.007392882364230241,1.191
0.007391819340737525,1.192
0.007390234307329838,1.193
0.007388212180293385,1.194
0.007385836402735915,1.195
0.007383189651613185,1.196
0.007380354206443069,1.197
0.007377411973753802,1.198
0.007374444110957427,1.199
0.007371530165733744,1.2
0.007368746679228055,1.201
0.007366165586679728,1.202
0.007363853426425484,1.203
0.007361872073177513,1.204
0.0073602803951188685,1.205
0.007359135768034552,1.206
0.007358494928639945,1.207
0.007358414013306912,1.208
0.007358947697438392,1.209
0.007360147638236863,1.21
0.007362061209933638,1.211
0.007364731870535823,1.212
0.007368201281644141,1.213
0.007372511777800043,1.214
0.0073777076494394925,1.215
0.007383834424634594,1.216
0.007390936552586779,1.217
0.00739905567593157,1.218
0.007408231529278319,1.219
0.0074185045803338,1.22
0.007429917798058278,1.221
0.007442516063417989,1.222
0.0074563436675462585,1.223
0.0074714419503960315,1.224
0.007487849102407463,1.225
0.007505601865635836,1.226
0.007524737174974505,1.227
0.0075452924675695355,1.228
0.007567304648578888,1.229
0.007590808188496598,1.23
0.007615833057035341,1.231
0.007642403448263715,1.232
0.007670537778395083,1.233
0.007700249370434249,1.234
0.007731546958869733,1.235
0.007764434698707799,1.236
0.0077989117508956525,1.237
0.007834971593450507,1.238
0.007872601260731239,1.239
0.007911780797412662,1.24
0.007952483111464124,1.241
0.007994674068608302,1.242
0.008038312499883082,1.243
0.008083350005921287,1.244
0.008129730736428985,1.245
0.00817739132177949,1.246
0.00822626087659861,1.247
0.00827626098803038,1.248
0.008327305901002273,1.249
0.008379303105020542,1.25
0.008432154158193228,1.251
0.00848575542727077,1.252
0.008539998554819251,1.253
0.008594770587537885,1.254
0.008649953739920354,1.255
0.008705424762440173,1.256
0.008761054048160273,1.257
0.00881670514276285,1.258
0.008872235548097603,1.259
0.008927499029330876,1.26
0.008982348896280782,1.261
0.009036641643503223,1.262
0.009090240447837288,1.263
0.00914301800863794,1.264
0.009194858200400948,1.265
0.009245656060937036,1.266
0.009295315770490267,1.267
0.009343746500035468,1.268
0.009390857299513231,1.269
0.009436554594250026,1.27
0.009480745162842792,1.271
0.009523343036863901,1.272
0.00956427677455204,1.273
0.009603495124711087,1.274
0.009640970326030408,1.275
0.009676698559859176,1.276
0.009710697320846838,1.277
0.009742999825919777,1.278
0.00977364732444186,1.279
0.009802682049130115,1.28
0.009830144907882277,1.281
0.009856078992032018,1.282
0.009880535148880253,1.283
0.009903575555309945,1.284
0.009925273974949744,1.285
0.009945712972911533,1.286
0.009964978952491684,1.287
0.00998315663692398,1.288
0.010000325284330537,1.289
0.010016557783851797,1.29
0.01003192123359499,1.291
0.01004647695507026,1.292
0.010060279481008585,1.293
0.010073375418607542,1.294
0.010085803188992786,1.295
0.01009759377138686,1.296
0.010108771846067987,1.297
0.010119356888847115,1.298
0.01012936415954303,1.299
0.010138805553334622,1.3
0.010147690145449315,1.301
0.010156024180741846,1.302
0.010163810287915288,1.303
0.010171045901647819,1.304
0.01017772152139877,1.305
0.010183820126808758,1.306
0.010189318402096408,1.307
0.010194188884419251,1.308
0.010198401893299635,1.309
0.010201926891357039,1.31
0.010204733340528861,1.311
0.010206791113921716,1.312
0.01020807041357702,1.313
0.010208540987642298,1.314
0.01020817034366248,1.315
0.010206921297151953,1.316
0.010204750761044249,1.317
0.010201611706061727,1.318
0.0101974577352885,1.319
0.010192248072581955,1.32
0.010185951298733786,1.321
0.01017854697034301,1.322
0.010170024678162118,1.323
0.010160380514446482,1.324
0.010149611908882259,1.325
0.01013771368354181,1.326
0.010124678429271347,1.327
0.010110501010201962,1.328
0.010095184058584391,1.329
0.010078741954224315,1.33
0.010061202575502842,1.331
0.010042606884804116,1.332
0.010023006632945594,1.333
0.010002460612243358,1.334
0.009981029957502677,1.335
0.009958773426287156,1.336
0.009935744531690395,1.337
0.009911992027351721,1.338
0.009887562972344477,1.339
0.009862506337719566,1.34
0.009836875900252687,1.341
0.00981073203422377,1.342
0.009784142215107218,1.343
0.009757180106750404,1.344
0.00972992323079957,1.345
0.009702449404773486,1.346
0.009674832864206675,1.347
0.009647142124573524,1.348
0.009619440852794054,1.349
0.009591790350126328,1.35
0.009564251422461855,1.351
0.009536884759155678,1.352
0.00950974996250033,1.353
0.009482903666025439,1.354
0.009456397304986746,1.355
0.009430275250072416,1.356
0.009404573968985613,1.357
0.009379322162564494,1.358
0.009354541042929076,1.359
0.009330244166576634,1.36
0.009306437139920918,1.361
0.009283117860286903,1.362
0.009260277328115829,1.363
0.009237900277714331,1.364
0.009215965071852234,1.365
0.00919444361286514,1.366
0.009173302831376776,1.367
0.009152508179039688,1.368
0.009132027851237198,1.369
0.00911183611674914,1.37
0.009091914703906813,1.371
0.009072251746020754,1.372
0.0090528383301027,1.373
0.009033664162576406,1.374
0.009014715815934701,1.375
0.008995979604956008,1.376
0.00897744686926941,1.377
0.008959118263804789,1.378
0.008941005617142353,1.379
0.008923131196716873,1.38
0.008905524633282473,1.381
0.008888218169526804,1.382
0.008871241776169849,1.383
0.008854620539275498,1.384
0.008838375194040238,1.385
0.008822523817773395,1.386
0.00880708259860775,1.387
0.008792065493161862,1.388
0.008777483442519933,1.389
0.008763343692435298,1.39
0.008749649470724633,1.391
0.008736399978788037,1.392
0.008723590465463489,1.393
0.008711212082710409,1.394
0.008699251227204873,1.395
0.008687688480518603,1.396
0.008676498228052804,1.397
0.00866565013120547,1.398
0.008655112160858182,1.399
0.00864485379305286,1.4
0.008634848159730299,1.401
0.00862507248418127,1.402
0.008615506619856363,1.403
0.008606130053629184,1.404
0.008596918601379587,1.405
0.008587842820557414,1.406
0.008578869079238558,1.407
0.008569961982656409,1.408
0.008561086581062676,1.409
0.008552210021705347,1.41
0.008543302881767125,1.411
0.008534340370307592,1.412
0.008525303450469745,1.413
0.008516179758351417,1.414
0.008506964052725014,1.415
0.008497657880744424,1.416
0.008488268211631345,1.417
0.008478804958460897,1.418
0.008469277622808866,1.419
0.008459692123815433,1.42
0.008450049718329262,1.421
0.008440348928454371,1.422
0.008430589285882348,1.423
0.008420775325585769,1.424
0.008410920130025736,1.425
0.008401047969986709,1.426
0.008391195464757865,1.427
0.008381410801231899,1.428
0.00837175092778489,1.429
0.008362277163025409,1.43
0.008353050324168838,1.431
0.008344127075922303,1.432
0.008335558603651993,1.433
0.00832739086250144,1.434
0.008319664816056909,1.435
0.008312416048310201,1.436
0.008305674100781552,1.437
0.008299461955830157,1.438
0.008293795815145211,1.439
0.008288685114123675,1.44
0.008284132634013177,1.441
0.008280134602542965,1.442
0.008276680742649178,1.443
0.008273754275575052,1.444
