VaMe,time
-0.0028132341019174796,0.001
-0.0026502004118502146,0.002
-0.0024882550360242543,0.003
-0.002327589008930118,0.004
-0.002168382410073853,0.005
-0.002010801352742988,0.006
-0.001854996047368523,0.007
-0.001701100008170104,0.008
-0.0015492302783189436,0.009
-0.0013994884199165373,0.01
-0.0012519619896885518,0.011
-0.0011067262798941865,0.012
-0.0009638461858387853,0.013
-0.000823378117854906,0.014
-0.0006853719044781773,0.015
-0.0005498726582817922,0.016
-0.0004169224615735431,0.017
-0.0002865613916725416,0.018
-0.00015882741216629182,0.019
-3.375531385353003e-05,0.02
8.862463485633947e-05,0.021
0.00020828781454306606,0.022
0.00032521589897777596,0.023
0.00043939688008358884,0.024
0.0005508244668576835,0.025
0.0006594970168361107,0.026
0.0007654162957441385,0.027
0.0008685864097559965,0.028
0.0009690131853360202,0.029
0.0010667041003105027,0.03
0.0011616686580880663,0.031
0.0012539189273077748,0.032
0.001343469905177008,0.033
0.001430339418076666,0.034
0.001514547413806088,0.035
0.001596114825244301,0.036
0.001675062707465472,0.037
0.0017514123636686969,0.038
0.0018251863334905305,0.039
0.0018964094838232095,0.04
0.0019651096464485813,0.041
0.0020313176436396975,0.042
0.002095066718055316,0.043
0.002156391462538568,0.044
0.0022153265429625093,0.045
0.0022719058381635857,0.046
0.002326162494893418,0.047
0.002378129669950314,0.048
0.0024278413532424063,0.049
0.002475332938657322,0.05
0.0025206414872747307,0.051
0.0025638056737951787,0.052
0.00260486539485795,0.053
0.0026438610312997913,0.054
0.002680832473699468,0.055
0.0027158183074361924,0.056
0.0027488556615091297,0.057
0.00277998074772682,0.058
0.002809229565828237,0.059
0.002836638298232206,0.06
0.0028622432737386246,0.061
0.0028860805984492837,0.062
0.002908185657958653,0.063
0.0029285927451273815,0.064
0.002947335038065795,0.065
0.002964445040855417,0.066
0.002979955426860307,0.067
0.002993900043709644,0.068
0.0030063147207934826,0.069
0.003017237516907835,0.07
0.0030267081646920407,0.071
0.003034766830019928,0.072
0.0030414529936825837,0.073
0.0030468055103430635,0.074
0.003050863950993585,0.075
0.003053670280843777,0.076
0.0030552699988195503,0.077
0.0030557124597915875,0.078
0.0030550504306428496,0.079
0.003053339081251611,0.08
0.0030506347126965493,0.081
0.0030469935480894644,0.082
0.0030424708463922265,0.083
0.0030371204623217624,0.084
0.0030309948060923504,0.085
0.003024145010302694,0.086
0.0030166210406917895,0.087
0.003008471520247047,0.088
0.002999743287040769,0.089
0.00299048113636346,0.09
0.0029807281854379915,0.091
0.0029705266936477944,0.092
0.002959918849312831,0.093
0.0029489472677851833,0.094
0.0029376551875624165,0.095
0.002926086405963968,0.096
0.0029142849766046947,0.097
0.0029022946702370817,0.098
0.002890158229832527,0.099
0.0028779166143111483,0.1
0.0028656085979839436,0.101
0.002853270836390914,0.102
0.002840938016282271,0.103
0.002828642766797438,0.104
0.0028164155217657388,0.105
0.002804284672612834,0.106
0.002792276984751056,0.107
0.002780417950857689,0.108
0.0027687318289401322,0.109
0.0027572413481124114,0.11
0.0027459673322031853,0.111
0.002734928631632843,0.112
0.002724142465983724,0.113
0.002713624849424639,0.114
0.0027033907573006887,0.115
0.0026934539598098225,0.116
0.002683826622904342,0.117
0.0026745188598828106,0.118
0.002665538440446715,0.119
0.002656890707358235,0.12
0.002648578583052478,0.121
0.0026406026628950064,0.122
0.002632961512272013,0.123
0.0026256521372563617,0.124
0.0026186704691195935,0.125
0.002612011733566329,0.126
0.0026056706230700726,0.127
0.002599641223063604,0.128
0.002593916685440315,0.129
0.0025884887347771756,0.13
0.0025833472586052463,0.131
0.002578480248811293,0.132
0.0025738740344390374,0.133
0.0025695134312973406,0.134
0.002565381615959149,0.135
0.0025614600660572072,0.136
0.0025577290257137084,0.137
0.002554168385179639,0.138
0.002550758376574401,0.139
0.0025474795582783975,0.14
0.002544312140821167,0.141
0.0025412355868717575,0.142
0.002538229399346263,0.143
0.0025352747619203073,0.144
0.0025323559627405926,0.145
0.002529460924584245,0.146
0.002526580671703718,0.147
0.002523707913561548,0.148
0.0025208355075281956,0.149
0.002517955965578269,0.15
0.002515062350543723,0.151
0.0025121495824913308,0.152
0.0025092150877544525,0.153
0.0025062584977779364,0.154
0.0025032805622744775,0.155
0.002500281766337339,0.156
0.0024972615403097737,0.157
0.002494218591515966,0.158
0.002491151849801297,0.159
0.0024880612079131417,0.16
0.002484947719332311,0.161
0.002481813249561953,0.162
0.002478659667951882,0.163
0.0024754878942931328,0.164
0.0024722974512902257,0.165
0.0024690869140736186,0.166
0.0024658548646962547,0.167
0.0024626007591577945,0.168
0.002459325481638684,0.169
0.002456031560961648,0.17
0.0024527230415849898,0.171
0.002449405012816553,0.172
0.0024460828155471914,0.173
0.0024427611052798472,0.174
0.002439443283706895,0.175
0.002436131748208313,0.176
0.0024328287609109347,0.177
0.002429537357253897,0.178
0.0024262619196241497,0.179
0.0024230083011890793,0.18
0.0024197834929302973,0.181
0.002416594897441237,0.182
0.0024134493908501593,0.183
0.002410352546533437,0.184
0.002407308387807365,0.185
0.0024043196122553556,0.186
0.002401387873357677,0.187
0.0023985138525348454,0.188
0.0023956971544656946,0.189
0.0023929361601654525,0.19
0.002390227952552228,0.191
0.00238756838230494,0.192
0.002384952280077178,0.193
0.0023823737625747136,0.194
0.0023798265460031613,0.195
0.0023773041834326074,0.196
0.002374800178010045,0.197
0.0023723079713038574,0.198
0.002369820839238247,0.199
0.0023673317289926864,0.2
0.0023648330398010424,0.201
0.0023623163086430843,0.202
0.002359771804568383,0.203
0.0023571882587459466,0.204
0.00235455309542031,0.205
0.0023518532460517494,0.206
0.002349076243947861,0.207
0.002346211249774954,0.208
0.0023432497982044925,0.209
0.002340186144794778,0.21
0.0023370171489278976,0.211
0.00233374168511744,0.212
0.0023303596187262215,0.213
0.002326870613981944,0.214
0.0023232735028619143,0.215
0.00231956680269189,0.216
0.002315750039659541,0.217
0.0023118250627509928,0.218
0.002307796848443298,0.219
0.002303673628986982,0.22
0.002299466324424269,0.221
0.002295187376607619,0.222
0.002290849340703086,0.223
0.002286463958176575,0.224
0.002282042211652327,0.225
0.002277594988375652,0.226
0.0022731336230359563,0.227
0.002268670011497875,0.228
0.0022642163779049863,0.229
0.0022597848785268037,0.23
0.0022553872080267406,0.231
0.0022510343133256873,0.232
0.002246736249614277,0.233
0.0022425021522415557,0.234
0.0022383402500120984,0.235
0.0022342578118178355,0.236
0.002230260933176092,0.237
0.002226354253429269,0.238
0.0022225409676223224,0.239
0.0022188233861359557,0.24
0.0022152038282374597,0.241
0.002211685455876232,0.242
0.002208272812118734,0.243
0.0022049719584403575,0.244
0.002201790177795962,0.245
0.0021987352939658645,0.246
0.0021958147753969332,0.247
0.002193034971316215,0.248
0.002190400847841973,0.249
0.0021879162141782127,0.25
0.0021855840547556236,0.251
0.0021834066775768142,0.252
0.002181385671174666,0.253
0.002179521774737449,0.254
0.002177814759698099,0.255
0.0021762633841123577,0.256
0.0021748654280374442,0.257
0.002173617770680575,0.258
0.0021725164457841234,0.259
0.002171556613960509,0.26
0.0021707324095797,0.261
0.002170036665510605,0.262
0.0021694606517119307,0.263
0.002168994098106776,0.264
0.00216862564147417,0.265
0.0021683435350879775,0.266
0.0021681363694717763,0.267
0.0021679936465664506,0.268
0.0021679061100135454,0.269
0.002167865766976572,0.27
0.0021678655885853096,0.271
0.002167898934202321,0.272
0.002167958788777815,0.273
0.0021680370203880084,0.274
0.0021681240485025306,0.275
0.002168209150563574,0.276
0.0021682811626289374,0.277
0.0021683292068868905,0.278
0.0021683432869081575,0.279
0.002168314693610874,0.28
0.002168236170224533,0.281
0.0021681018061535796,0.282
0.0021679066664483265,0.283
0.0021676462078593427,0.284
0.002167315569644156,0.285
0.002166908871346273,0.286
0.002166418722023827,0.287
0.0021658361299526363,0.288
0.0021651508029323988,0.289
0.0021643516640502806,0.29
0.002163427449934896,0.291
0.0021623673385436607,0.292
0.0021611615462268216,0.293
0.0021598018107558403,0.294
0.0021582816872777887,0.295
0.002156596614357719,0.296
0.002154743735097818,0.297
0.002152721469137243,0.298
0.0021505288279108424,0.299
0.0021481645674466627,0.3
0.002145626593397286,0.301
0.0021429121578302,0.302
0.0021400188837228007,0.303
0.002136946084938762,0.304
0.002133695843051346,0.305
0.0021302735626559013,0.306
0.0021266878977104285,0.307
0.0021229500613975123,0.308
0.002119072636730594,0.309
0.002115068236939361,0.31
0.0021109487132708825,0.311
0.0021067253556659622,0.312
0.0021024096610946915,0.313
0.0020980139424146243,0.314
0.0020935514828065594,0.315
0.002089036295731521,0.316
0.0020844826469857847,0.317
0.002079904503426654,0.318
0.002075315036831271,0.319
0.0020707262537860735,0.32
0.0020661487640065103,0.321
0.0020615916547067656,0.322
0.002057062417594703,0.323
0.0020525668815112247,0.324
0.002048109132228731,0.325
0.002043691438056233,0.326
0.00203931422857084,0.327
0.0020349761785504535,0.328
0.00203067442393709,0.329
0.0020264048901696544,0.33
0.00202216266367627,0.331
0.0020179423021396384,0.332
0.002013737972944083,0.333
0.0020095433424242126,0.334
0.0020053512258561496,0.335
0.002001153188748171,0.336
0.001996939438210417,0.337
0.001992699163359997,0.338
0.001988421141076074,0.339
0.0019840943815530383,0.34
0.001979708747625529,0.341
0.001975255530659753,0.342
0.00197072792913959,0.343
0.001966121344163672,0.344
0.0019614333897654745,0.345
0.001956663519127246,0.346
0.0019518121977916455,0.347
0.0019468798546618913,0.348
0.0019418664033706665,0.349
0.0019367719374622405,0.35
0.0019315981544477093,0.351
0.001926349643307948,0.352
0.0019210345930216438,0.353
0.0019156648260291991,0.354
0.001910255202830814,0.355
0.0019048225608984527,0.356
0.0018993844284225002,0.357
0.0018939578433258863,0.358
0.0018885586633518748,0.359
0.0018832014672852681,0.36
0.001877899704523611,0.361
0.0018726657621126628,0.362
0.0018675109322130623,0.363
0.001862445384939567,0.364
0.001857478206433626,0.365
0.0018526175089153027,0.366
0.0018478705872126083,0.367
0.0018432440833299642,0.368
0.001838744117143146,0.369
0.0018343763434242675,0.37
0.0018301459081670245,0.371
0.001826057304308574,0.372
0.0018221141582813066,0.373
0.0018183189942950501,0.374
0.0018146730131425092,0.375
0.0018111759100187862,0.376
0.001807825771134828,0.377
0.0018046190920029165,0.378
0.0018015509011028274,0.379
0.0017986149097586046,0.38
0.0017958036070607542,0.381
0.001793108247394824,0.382
0.001790518736457456,0.383
0.001788023533738574,0.384
0.001785609717228325,0.385
0.0017832631906897416,0.386
0.0017809688566381816,0.387
0.0017787106046825746,0.388
0.0017764711354703168,0.389
0.0017742318631099208,0.39
0.0017719731461920043,0.391
0.0017696748129991495,0.392
0.0017673167721195912,0.393
0.001764879581748785,0.394
0.0017623449431597737,0.395
0.0017596960952423362,0.396
0.0017569180713104817,0.397
0.0017539977663168357,0.398
0.001750923768553016,0.399
0.001747685937884961,0.4
0.001744274748589293,0.401
0.0017406805150737537,0.402
0.001736892850901872,0.403
0.0017329007866657455,0.404
0.0017286935962847747,0.405
0.0017242619722864572,0.406
0.001719599181767298,0.407
0.001714701980076751,0.408
0.0017095711146650238,0.409
0.0017042113004539406,0.41
0.0016986306515906387,0.411
0.0016928396765928065,0.412
0.0016868500322809368,0.413
0.001680673329916405,0.414
0.0016743203919027763,0.415
0.0016678011596716613,0.416
0.0016611249954479187,0.417
0.0016543010084351468,0.418
0.001647338313220008,0.419
0.0016402463164524473,0.42
0.0016330351165542828,0.421
0.0016257160206497266,0.422
0.0016183020940258057,0.423
0.0016108085918683178,0.424
0.0016032531065306975,0.425
0.0015956553051489695,0.426
0.0015880362210872483,0.427
0.001580417277493727,0.428
0.001572819556651357,0.429
0.0015652637735823454,0.43
0.0015577707694550073,0.431
0.0015503619317402029,0.432
0.0015430592007320775,0.433
0.0015358846905732203,0.434
0.001528860120471361,0.435
0.0015220063386454268,0.436
0.0015153431764184334,0.437
0.001508889603957908,0.438
0.001502663946338211,0.439
0.0014966839912210828,0.44
0.001490966978810346,0.441
0.0014855295169004992,0.442
0.0014803874486154134,0.443
0.0014755556776633338,0.444
0.0014710479940526877,0.445
0.0014668770451204984,0.446
0.001463054561249545,0.447
0.0014595917491418585,0.448
0.0014564996794084956,0.449
0.0014537895559530614,0.45
0.0014514728073916148,0.451
0.0014495609745362311,0.452
0.0014480654080765854,0.453
0.0014469968615142448,0.454
0.0014463651812581517,0.455
0.0014461792868153932,0.456
0.0014464473928132338,0.457
0.0014471772375596196,0.458
0.0014483761571453698,0.459
0.0014500509951141326,0.46
0.0014522079096981882,0.461
0.001454852157277582,0.462
0.0014579879181251037,0.463
0.0014616181954290519,0.464
0.0014657447790445588,0.465
0.0014703682390700894,0.466
0.001475487907129303,0.467
0.001481101832035993,0.468
0.0014872067673149592,0.469
0.0014937982705009064,0.47
0.0015008709041083362,0.471
0.001508418431169602,0.472
0.0015164338854760815,0.473
0.00152490946398877,0.474
0.0015338363543023973,0.475
0.0015432047479730134,0.476
0.00155300414690527,0.477
0.0015632237883906072,0.478
0.0015738529681288312,0.479
0.0015848811728914674,0.48
0.0015962980131302921,0.481
0.0016080929657423832,0.482
0.0016202549669455505,0.483
0.0016327719998768153,0.484
0.001645630920759965,0.485
0.0016588175989913467,0.486
0.0016723171358936882,0.487
0.0016861138950698387,0.488
0.0017001913120685583,0.489
0.0017145317095959565,0.49
0.001729116407783628,0.491
0.0017439261582698781,0.492
0.0017589416522694275,0.493
0.0017741438536817706,0.494
0.0017895140341240069,0.495
0.0018050334718866929,0.496
0.001820682917753874,0.497
0.0018364421815280454,0.498
0.0018522902150572155,0.499
0.0018682056613848125,0.5
0.0018841675085048736,0.501
0.0019001555743547735,0.502
0.0019161507532917922,0.503
0.0019321350459515518,0.504
0.0019480914257985077,0.505
0.0019640036022057707,0.506
0.001979855717102575,0.507
0.001995631974245276,0.508
0.002011316175109869,0.509
0.002026891194919673,0.51
0.002042338611903659,0.511
0.0020576387614202186,0.512
0.00207277122728225,0.513
0.002087715529500891,0.514
0.002102451800299388,0.515
0.0021169613543251965,0.516
0.002131227088244706,0.517
0.0021452336580948077,0.518
0.0021589674255407232,0.519
0.0021724162146582147,0.52
0.002185568953540167,0.521
0.002198415279242736,0.522
0.0022109451601099337,0.523
0.002223148539754726,0.524
0.0022350149459511768,0.525
0.002246533015667335,0.526
0.002257690105690582,0.527
0.0022684724011815868,0.528
0.0022788657167783733,0.529
0.002288856687186239,0.53
0.002298433910095554,0.531
0.002307588788106388,0.532
0.002316315956754124,0.533
0.0023246132669682037,0.534
0.0023324813663177903,0.535
0.002339922978012186,0.536
0.0023469420015827776,0.537
0.002353542553375772,0.538
0.0023597280450550163,0.539
0.0023655004529365654,0.54
0.0023708600309727177,0.541
0.002375805573455934,0.542
0.002380335021036255,0.543
0.0023844461747673383,0.544
0.0023881374500783945,0.545
0.0023914086410788053,0.546
0.002394261615192982,0.547
0.002396700831387388,0.548
0.0023987335895075917,0.549
0.0024003699667937244,0.55
0.002401622459035308,0.551
0.0024025053972593123,0.552
0.0024030342388628293,0.553
0.0024032248217864607,0.554
0.0024030926260230883,0.555
0.002402652075593712,0.556
0.002401916039023006,0.557
0.0024008957990770976,0.558
0.00239960155420639,0.559
0.002398043182557778,0.56
0.0023962309723482584,0.561
0.0023941761859949976,0.562
0.0023918914142378642,0.563
0.0023893907106603187,0.564
0.002386689529005379,0.565
0.0023838045079215713,0.566
0.0023807531572290156,0.567
0.0023775534955387894,0.568
0.002374223675004341,0.569
0.0023707816158327812,0.57
0.002367244668524573,0.571
0.002363629319777444,0.572
0.002359950945450561,0.573
0.0023562235852818466,0.574
0.002352459697980854,0.575
0.002348669956691608,0.576
0.0023448633271538643,0.577
0.0023410476050983236,0.578
0.002337230268880021,0.579
0.0023334193562627144,0.58
0.0023296241609558153,0.581
0.002325855634913481,0.582
0.0023221264455434805,0.583
0.0023184507057890783,0.584
0.0023148434547520217,0.585
0.0023113200023538926,0.586
0.002307895251824662,0.587
0.002304583080125972,0.588
0.002301395826588347,0.589
0.002298343955487595,0.59
0.0022954359464690205,0.591
0.002292678346666519,0.592
0.0022900758306577504,0.593
0.0022876311951655344,0.594
0.0022853453461543216,0.595
0.0022832173849902777,0.596
0.002281244873301538,0.597
0.002279424287370877,0.598
0.002277751593709817,0.599
0.002276222822327484,0.6
0.002274834502087738,0.601
0.0022735838528723886,0.602
0.002272468686202526,0.603
0.002271487024738889,0.604
0.002270636489417725,0.605
0.002269913618492255,0.606
0.002269313507280251,0.607
0.002268830082604944,0.608
0.002268456857278484,0.609
0.002268187770913096,0.61
0.002268017869046394,0.611
0.0022679437119865207,0.612
0.0022679634511842506,0.613
0.00226807655185411,0.614
0.0022682831827794702,0.615
0.0022685833555657203,0.616
0.00226897608832968,0.617
0.0022694590696706023,0.618
0.0022700290117021594,0.619
0.0022706823111771517,0.62
0.0022714155780644407,0.621
0.002272225912686596,0.622
0.002273110963327022,0.623
0.0022740687857192602,0.624
0.0022750974975200657,0.625
0.002276194711131797,0.626
0.0022773568997961242,0.627
0.0022785791709936318,0.628
0.0022798557751373505,0.629
0.002281181055975213,0.63
0.00228255033054971,0.631
0.002283960431438879,0.632
0.0022854098122847915,0.633
0.002286898183040054,0.634
0.0022884257219801807,0.635
0.0022899920986399667,0.636
0.0022915958310354358,0.637
0.002293234404856585,0.638
0.0022949049877484407,0.639
0.0022966052511012316,0.64
0.002298334015455068,0.641
0.0023000916460409566,0.642
0.002301880159374367,0.643
0.0023037030039939404,0.644
0.0023055645141420705,0.645
0.0023074691000651575,0.646
0.002309420359290956,0.647
0.002311420448166403,0.648
0.0023134699652476304,0.649
0.002315568204287452,0.65
0.0023177134276377823,0.651
0.002319902992518098,0.652
0.0023221333717942313,0.653
0.0023244001537873213,0.654
0.0023266980680045077,0.655
0.0023290210379566276,0.656
0.0023313622358263576,0.657
0.002333714115793343,0.658
0.0023360684228378235,0.659
0.002338416194451425,0.66
0.0023407477845865275,0.661
0.0023430529436725537,0.662
0.0023453209842788513,0.663
0.0023475410373030125,0.664
0.002349702352583221,0.665
0.0023517945392456936,0.666
0.002353807607073305,0.667
0.0023557316788810345,0.668
0.00235755638688106,0.669
0.002359270352845972,0.67
0.0023608613802841515,0.671
0.002362317509187982,0.672
0.0023636284130522343,0.673
0.002364786553720422,0.674
0.0023657878113871374,0.675
0.002366631506887082,0.676
0.002367319847014114,0.677
0.002367856917114871,0.678
0.0023682473980205935,0.679
0.0023684953181275733,0.68
0.002368603350998147,0.681
0.002368572908216041,0.682
0.002368404631618418,0.683
0.002368098761919842,0.684
0.0023676552532222108,0.685
0.0023670737658541365,0.686
0.0023663537168566173,0.687
0.002365494528329324,0.688
0.0023644961186828056,0.689
0.002363359574698474,0.69
0.0023620878610270666,0.691
0.0023606863815221163,0.692
0.002359163206036071,0.693
0.0023575288211199028,0.694
0.002355795351756357,0.695
0.002353975386169359,0.696
0.0023520809054536507,0.697
0.002350123007650926,0.698
0.002348112553795398,0.699
0.002346061117553797,0.7
0.0023439816426380463,0.701
0.0023418886627591044,0.702
0.0023397981636113334,0.703
0.0023377272054135485,0.704
0.00233569341700434,0.705
0.0023337144349955923,0.706
0.0023318073262156825,0.707
0.002329988023554828,0.708
0.00232827082881568,0.709
0.0023266680558753456,0.71
0.0023251898617969073,0.711
0.0023238442799974495,0.712
0.0023226374516752166,0.713
0.002321574001205917,0.714
0.002320657439522914,0.715
0.002319890456122463,0.716
0.002319274969834425,0.717
0.002318811876637767,0.718
0.002318500664989056,0.719
0.002318339328319451,0.72
0.002318324810034782,0.721
0.002318453708437945,0.722
0.002318722858490004,0.723
0.002319129656247337,0.724
0.0023196721473506283,0.725
0.0023203489394660647,0.726
0.002321159016569248,0.727
0.0023221015351632397,0.728
0.002323175669104127,0.729
0.002324380543076585,0.73
0.002325715261626308,0.731
0.0023271790054561607,0.732
0.0023287711313023022,0.733
0.0023304911821997397,0.734
0.002332338701886147,0.735
0.0023343127635652113,0.736
0.002336411352524293,0.737
0.00233863117475908,0.738
0.0023409683472460784,0.739
0.0023434196687250382,0.74
0.0023459838386528636,0.741
0.0023486622483002255,0.742
0.0023514591927149735,0.743
0.0023543814800002978,0.744
0.0023574375452286482,0.745
0.002360636265747438,0.746
0.002363985789812349,0.747
0.0023674928186885554,0.748
0.00237116254620849,0.749
0.0023749989241426423,0.75
0.002379004789477253,0.751
0.0023831816894376487,0.752
0.0023875295327511433,0.753
0.0023920463934382304,0.754
0.0023967286958404307,0.755
0.002401571626395719,0.756
0.0024065694626469207,0.757
0.0024117156564175267,0.758
0.002417002632020467,0.759
0.002422421393438228,0.76
0.0024279612771824434,0.761
0.0024336101984983576,0.762
0.002439355358866044,0.763
0.0024451841147463296,0.764
0.0024510847912215675,0.765
0.002457047351219552,0.766
0.002463063859185693,0.767
0.0024691286812914596,0.768
0.0024752383756192556,0.769
0.0024813912450534336,0.77
0.0024875865537868696,0.771
0.002493823497823341,0.772
0.002500100295089117,0.773
0.0025064139819905564,0.774
0.002512761103686072,0.775
0.002519138808700029,0.776
0.002525545781548426,0.777
0.0025319827828302315,0.778
0.0025384527466980815,0.779
0.0025449604385669603,0.78
0.0025515117328991296,0.781
0.0025581126304685515,0.782
0.0025647682309134184,0.783
0.002571482002585069,0.784
0.0025782556069714082,0.785
0.0025850891697943466,0.786
0.0025919816848028227,0.787
0.0025989313770127943,0.788
0.002605935999419799,0.789
0.0026129930325631693,0.79
0.0026200997303712564,0.791
0.002627252982671643,0.792
0.0026344490264587836,0.793
0.002641683096994058,0.794
0.002648949137796138,0.795
0.0026562396768129337,0.796
0.0026635459283946288,0.797
0.002670858106768335,0.798
0.002678165854171666,0.799
0.0026854586237965807,0.8
0.002692725841979409,0.801
0.0026999567136451316,0.802
0.002707139661788905,0.803
0.002714261712244437,0.804
0.0027213084206332435,0.805
0.0027282646077386977,0.806
0.0027351155059062793,0.807
0.0027418478035327585,0.808
0.0027484503871621113,0.809
0.002754914760847797,0.81
0.002761235157268318,0.811
0.002767408358583765,0.812
0.0027734332322701043,0.813
0.0027793099831564874,0.814
0.0027850391445727084,0.815
0.0027906204718925872,0.816
0.0027960521819059446,0.817
0.0028013309587980907,0.818
0.0028064526083859437,0.819
0.002811412873499499,0.82
0.0028162081076850143,0.821
0.0028208357768959073,0.822
0.0028252948325576915,0.823
0.002829585975782788,0.824
0.0028337117860708595,0.825
0.002837676641133052,0.826
0.0028414863357736006,0.827
0.0028451473346042585,0.828
0.0028486657331311875,0.829
0.0028520463395972665,0.83
0.002855292465225177,0.831
0.002858406501551865,0.832
0.002861390705286635,0.833
0.0028642476578809753,0.834
0.002866980294652125,0.835
0.002869591609102001,0.836
0.002872084162070261,0.837
0.0028744595018111883,0.838
0.0028767175642982487,0.839
0.002878856145662808,0.84
0.002880870615489906,0.841
0.0028827539574523687,0.842
0.0028844969955012702,0.843
0.0028860886230841565,0.844
0.0028875159973202895,0.845
0.002888764744975537,0.846
0.002889819228945587,0.847
0.002890662902956921,0.848
0.002891278747805919,0.849
0.002891649740110295,0.85
0.002891759265066285,0.851
0.0028915913633114866,0.852
0.002891130711611488,0.853
0.0028903622796912156,0.854
0.0028892706674394607,0.855
0.0028878392748733907,0.856
0.0028860497267996083,0.857
0.002883881985327681,0.858
0.002881315110306712,0.859
0.0028783282560858516,0.86
0.0028749016013983573,0.861
0.002871017117473781,0.862
0.0028666591333793025,0.863
0.0028618146541946055,0.864
0.0028564733975327723,0.865
0.0028506275365561625,0.866
0.002844271164631073,0.867
0.00283739952125536,0.868
0.002830008035472689,0.869
0.002822091306234677,0.87
0.0028136423422730522,0.871
0.0028046524925697744,0.872
0.002795112141970287,0.873
0.0027850117843319557,0.874
0.0027743430844913647,0.875
0.0027630997743303036,0.876
0.002751278332708489,0.877
0.00273887842986917,0.878
0.0027259031485516853,0.879
0.0027123590010983164,0.88
0.0026982557365848752,0.881
0.002683605896809789,0.882
0.0026684240674197954,0.883
0.002652725795082839,0.884
0.002636526346532838,0.885
0.0026198399108175044,0.886
0.0026026798276960455,0.887
0.002585059655597847,0.888
0.0025669943671872432,0.889
0.002548501200240109,0.89
0.00252960006571422,0.891
0.0025103135633120985,0.892
0.0024906666963921634,0.893
0.0024706863851037017,0.894
0.0024504008583926106,0.895
0.0024298389742857963,0.896
0.0024090294892798454,0.897
0.0023880003039453636,0.898
0.002366777827555571,0.899
0.002345386726406516,0.9
0.002323850118923299,0.901
0.0023021899148577005,0.902
0.0022804269906562327,0.903
0.0022585811514104306,0.904
0.002236670982836849,0.905
0.002214713731859971,0.906
0.0021927253384071495,0.907
0.0021707206862277006,0.908
0.002148714075247915,0.909
0.002126719857742653,0.91
0.002104753125545466,0.911
0.0020828302935357234,0.912
0.002060969416827343,0.913
0.0020391901172337632,0.914
0.0020175130681262554,0.915
0.0019959591360479497,0.916
0.0019745485876180337,0.917
0.0019533009380595713,0.918
0.0019322355535842607,0.919
0.0019113724842799529,0.92
0.0018907329989315616,0.921
0.0018703396542643933,0.922
0.0018502159284758545,0.923
0.0018303855214431405,0.924
0.0018108715566934974,0.925
0.0017916960804702814,0.926
0.0017728800806230658,0.927
0.0017544437843350115,0.928
0.0017364068661946557,0.929
0.0017187884535005344,0.93
0.0017016070018063252,0.931
0.0016848801348434872,0.932
0.0016686245010628941,0.933
0.001652855640461818,0.934
0.0016375878444144397,0.935
0.0016228340725431758,0.936
0.0016086060439137277,0.937
0.0015949145062282679,0.938
0.0015817695374683687,0.939
0.0015691807234880194,0.94
0.0015571571283990804,0.941
0.001545707069121137,0.942
0.00153483785376395,0.943
0.0015245557183383538,0.944
0.0015148660042318364,0.945
0.001505773367443404,0.946
0.0014972818290688288,0.947
0.0014893946490795317,0.948
0.0014821141009720663,0.949
0.0014754412475031834,0.95
0.0014693757999827278,0.951
0.0014639160824977215,0.952
0.0014590590844227036,0.953
0.0014548005876695474,0.954
0.0014511353274176573,0.955
0.001448057109513237,0.956
0.0014455588225509833,0.957
0.0014436323411167829,0.958
0.001442268417018488,0.959
0.0014414567142105239,0.96
0.0014411860385804979,0.961
0.001441444651626947,0.962
0.001442220518826992,0.963
0.0014435013892351567,0.964
0.0014452746439547373,0.965
0.0014475269819017008,0.966
0.0014502442484552423,0.967
0.0014534116906876886,0.968
0.0014570145504574623,0.969
0.0014610386943616242,0.97
0.0014654710785232904,0.971
0.0014702999571840122,0.972
0.0014755147909898934,0.973
0.001481105856446558,0.974
0.0014870636145701119,0.975
0.0014933780514444347,0.976
0.0015000383856143898,0.977
0.0015070333205189112,0.978
0.0015143515191735934,0.979
0.0015219818817704372,0.98
0.001529913474680479,0.981
0.0015381351500814659,0.982
0.0015466350672394208,0.983
0.0015554004854168068,0.984
0.001564417980992739,0.985
0.0015736737903179483,0.986
0.0015831538962234317,0.987
0.0015928437899745578,0.988
0.0016027282314167134,0.989
0.001612791458858849,0.99
0.001623017922710115,0.991
0.0016333931754097674,0.992
0.00164390453849197,0.993
0.00165454137406907,0.994
0.0016652949324369114,0.995
0.0016761578398033234,0.996
0.0016871233512176563,0.997
0.001698184531315126,0.998
0.0017093336016512682,0.999
0.0017205617227427352,1.0
0.0017318592517363712,1.001
0.001743216221638351,1.002
0.0017546227856737584,1.003
0.0017660695272186297,1.004
0.0017775476117354275,1.005
0.001789048796268806,1.006
0.0018005653576472131,1.007
0.001812090018224562,1.008
0.001823615924832599,1.009
0.0018351366863993304,1.01
0.0018466464237891637,1.011
0.0018581397543587779,1.012
0.001869611637907499,1.013
0.00188105705284394,1.014
0.001892470535959201,1.015
0.0019038456743405005,1.016
0.001915174663704279,1.017
0.0019264480238067778,1.018
0.0019376544837567103,1.019
0.001948781006986984,1.02
0.001959812943352345,1.021
0.001970734272834796,1.022
0.0019815278548460076,1.023
0.0019921755863390195,1.024
0.002002658381633332,1.025
0.0020129559717512843,1.026
0.0020230467523981,1.027
0.0020329080296332966,1.028
0.002042516750420314,1.029
0.0020518504763401726,1.03
0.002060888325832583,1.031
0.0020696117240401827,1.032
0.0020780048662224493,1.033
0.002086054839744229,1.034
0.0020937513906909796,1.035
0.0021010863628675614,1.036
0.0021080528783409,1.037
0.002114644362986965,1.038
0.0021208535942833563,1.039
0.0021266720718980513,1.04
0.002132089936524182,1.041
0.0021370963176530074,1.042
0.002141679811905347,1.043
0.0021458289484842384,1.044
0.002149532663181322,1.045
0.002152780824042247,1.046
0.002155564814174769,1.047
0.0021578781316568393,1.048
0.002159716926285778,1.049
0.0021610803703308525,1.05
0.0021619707638360903,1.051
0.0021623933072821375,1.052
0.002162355532685375,1.053
0.002161866456114642,1.054
0.0021609355734819977,1.055
0.0021595718696817727,1.056
0.0021577830955245504,1.057
0.0021555755736010055,1.058
0.0021529545347970074,1.059
0.0021499247004036406,1.06
0.0021464908433760075,1.061
0.0021426582090288376,1.062
0.002138432726714293,1.063
0.002133820976239838,1.064
0.0021288299496001737,1.065
0.0021234667286917992,1.066
0.002117738231541004,1.067
0.0021116511432510074,1.068
0.00210521206750882,1.069
0.002098427852295563,1.07
0.002091305989162579,1.071
0.002083854966594036,1.072
0.002076084468102908,1.073
0.0020680053366060472,1.074
0.0020596292717890013,1.075
0.002050968276735661,1.076
0.0020420339394525383,1.077
0.0020328367946619882,1.078
0.0020233861279085373,1.079
0.002013690321524806,1.08
0.002003757430030311,1.081
0.0019935956678712036,1.082
0.0019832137470483457,1.083
0.0019726211170385975,1.084
0.0019618281443257225,1.085
0.0019508462274005199,1.086
0.0019396878108843356,1.087
0.0019283662675129065,1.088
0.0019168956572824752,1.089
0.0019052904214412177,1.09
0.0018935650966238448,1.091
0.0018817341297352283,1.092
0.0018698118418036481,1.093
0.0018578125411439872,1.094
0.0018457507353214038,1.095
0.0018336413474022589,1.096
0.001821499815284196,1.097
0.0018093419581870108,1.098
0.0017971835429081218,1.099
0.0017850396823103462,1.1
0.0017729245108266704,1.101
0.001760851472076659,1.102
0.0017488339958976762,1.103
0.0017368861370174946,1.104
0.0017250229917316054,1.105
0.001713260879398794,1.106
0.0017016172990283413,1.107
0.0016901106801517419,1.108
0.0016787599656653159,1.109
0.0016675840870951527,1.11
0.0016566014104090947,1.111
0.00164582924957934,1.112
0.0016352835440667098,1.113
0.0016249787374954044,1.114
0.0016149278458651778,1.115
0.001605142701418779,1.116
0.0015956343222032097,1.117
0.0015864133110774132,1.118
0.0015774901888318171,1.119
0.0015688755801321567,1.12
0.0015605801881202824,1.121
0.0015526145279547712,1.122
0.0015449885086606652,1.123
0.0015377111685771355,1.124
0.0015307908569301683,1.125
0.0015242357804955999,1.126
0.0015180545787962603,1.127
0.001512256682668347,1.128
0.0015068523704373812,1.129
0.001501852526823599,1.13
0.0014972681774587813,1.131
0.0014931099219723854,1.132
0.0014893874262111187,1.133
0.001486109125585346,1.134
0.001483282140795175,1.135
0.0014809122668015032,1.136
0.0014790039928529754,1.137
0.001477560614740821,1.138
0.001476584413505522,1.139
0.0014760768156618937,1.14
0.0014760384995521204,1.141
0.0014764694510017448,1.142
0.0014773689734552233,1.143
0.001478735649400876,1.144
0.001480567247343893,1.145
0.0014828605796508563,1.146
0.001485611335490514,1.147
0.0014888139407621395,1.148
0.0014924615137269816,1.149
0.0014965459366877976,1.15
0.0015010579824888373,1.151
0.0015059874152589482,1.152
0.0015113230162572303,1.153
0.0015170525150778559,1.154
0.001523162452390512,1.155
0.0015296380603236548,1.156
0.0015364632318522128,1.157
0.0015436205560146903,1.158
0.0015510913602343375,1.159
0.0015588557525802967,1.16
0.0015668926851898054,1.161
0.0015751800313597456,1.162
0.0015836946290398947,1.163
0.001592412229954425,1.164
0.0016013073746332564,1.165
0.0016103533732673078,1.166
0.001619522545605732,1.167
0.0016287866171710642,1.168
0.001638117035651625,1.169
0.0016474850408061267,1.17
0.00165686143466733,1.171
0.0016662162292582726,1.172
0.0016755186128207921,1.173
0.0016847375061746985,1.174
0.0016938424783355512,1.175
0.0017028046178203342,1.176
0.001711597111525047,1.177
0.0017201953845497845,1.178
0.0017285767058790535,1.179
0.0017367193016202195,1.18
0.0017446013863916387,1.181
0.00175220087359803,1.182
0.0017594961020771613,1.183
0.0017664670505718777,1.184
0.0017730963729217324,1.185
0.001779370019148207,1.186
0.0017852774455782267,1.187
0.0017908114572036486,1.188
0.0017959677324851167,1.189
0.0018007440669627955,1.19
0.0018051393637619725,1.191
0.0018091525537776766,1.192
0.0018127819623610737,1.193
0.0018160255459628751,1.194
0.0018188817497274184,1.195
0.0018213503922760318,1.196
0.0018234332407358357,1.197
0.001825134214290274,1.198
0.001826459254027134,1.199
0.0018274159383386685,1.2
0.0018280129407838891,1.201
0.0018282594306457442,1.202
0.0018281645172794085,1.203
0.0018277368365129077,1.204
0.0018269843547733197,1.205
0.0018259144131399564,1.206
0.0018245339633538127,1.207
0.0018228498926191326,1.208
0.0018208693148905521,1.209
0.001818599721445319,1.21
0.0018160489195120546,1.211
0.0018132247301647752,1.212
0.0018101344954465168,1.213
0.0018067846409737013,1.214
0.0018031806913137542,1.215
0.0017993278904459252,1.216
0.0017952321572853025,1.217
0.0017909010252717746,1.218
0.001786344370965847,1.219
0.0017815748216917777,1.22
0.0017766077747501624,1.221
0.0017714610318285383,1.222
0.0017661541328701299,1.223
0.001760707530157084,1.224
0.0017551417508381395,1.225
0.0017494766645352535,1.226
0.001743730960939081,1.227
0.0017379219445866434,1.228
0.0017320656506584842,1.229
0.0017261771447363871,1.23
0.0017202708861543535,1.231
0.0017143611218253395,1.232
0.001708462280261334,1.233
0.0017025893003223983,1.234
0.0016967578215147238,1.235
0.001690984186370535,1.236
0.0016852852471519846,1.237
0.0016796780098411507,1.238
0.0016741791774980436,1.239
0.0016688046718942595,1.24
0.0016635692238221673,1.241
0.0016584861152894104,1.242
0.0016535671106713379,1.243
0.0016488225747949084,1.244
0.0016442617610820786,1.245
0.001639893204844345,1.246
0.0016357251031524542,1.247
0.0016317655645053102,1.248
0.0016280226540194241,1.249
0.0016245042171793866,1.25
0.001621217521648603,1.251
0.001618168849351317,1.252
0.0016153632841551776,1.253
0.0016128048457032258,1.254
0.0016104968460214674,1.255
0.0016084422667392909,1.256
0.0016066440671328205,1.257
0.0016051053881017022,1.258
0.001603829615534805,1.259
0.001602820277344362,1.26
0.0016020807733924515,1.261
0.001601613968407473,1.262
0.0016014217614644846,1.263
0.0016015048581273083,1.264
0.0016018628608781187,1.265
0.0016024945064033274,1.266
0.0016033978302255427,1.267
0.0016045702070419244,1.268
0.001606008303934421,1.269
0.001607707980628091,1.27
0.0016096641533425867,1.271
0.0016118706247656436,1.272
0.0016143199089270783,1.273
0.001617003147052433,1.274
0.0016199101925369027,1.275
0.0016230298105603556,1.276
0.0016263498642126147,1.277
0.001629857386921619,1.278
0.0016335384911532217,1.279
0.0016373782042588998,1.28
0.0016413605128846327,1.281
0.0016454688021995954,1.282
0.001649686524665902,1.283
0.0016539977841959243,1.284
0.0016583876215070215,1.285
0.0016628418956071852,1.286
0.0016673467543853865,1.287
0.0016718879131267528,1.288
0.0016764502503384896,1.289
0.001681018056329122,1.29
0.0016855756795691446,1.291
0.001690108146185659,1.292
0.001694601601159788,1.293
0.0016990435765712683,1.294
0.0017034230970683032,1.295
0.001707730626249895,1.296
0.0017119578487016223,1.297
0.001716097269580139,1.298
0.0017201416073457285,1.299
0.0017240831021356861,1.3
0.001727913178273633,1.301
0.0017316228262836152,1.302
0.0017352034987626374,1.303
0.001738648049172158,1.304
0.0017419514466064058,1.305
0.0017451111684739353,1.306
0.0017481272180238665,1.307
0.0017510017583417864,1.308
0.0017537384162936486,1.309
0.0017563413732266224,1.31
0.0017588144446908267,1.311
0.001761160442182124,1.312
0.0017633809814861171,1.313
0.0017654765394294366,1.314
0.0017674464366596765,1.315
0.0017692887276748214,1.316
0.0017710002381730147,1.317
0.0017725768225011229,1.318
0.001774013602889346,1.319
0.001775304941185008,1.32
0.0017764442308909462,1.321
0.0017774239726189437,1.322
0.0017782364747900828,1.323
0.0017788749659847715,1.324
0.001779334654378861,1.325
0.0017796134176172452,1.326
0.001779711960013357,1.327
0.0017796333913556448,1.328
0.0017793823156350016,1.329
0.001778963687830513,1.33
0.0017783819057933777,1.331
0.0017776405422202889,1.332
0.001776742614854219,1.333
0.0017756909226129475,1.334
0.0017744881530247054,1.335
0.0017731367714618079,1.336
0.0017716387975523972,1.337
0.0017699955642830666,1.338
0.0017682075372332051,1.339
0.0017662742460982288,1.34
0.001764194348952755,1.341
0.0017619658233759934,1.342
0.001759586268942306,1.343
0.0017570533061197014,1.344
0.001754365048110041,1.345
0.00175152059544573,1.346
0.0017485204694146935,1.347
0.0017453668791044502,1.348
0.001742063721274821,1.349
0.001738616247483721,1.35
0.0017350303972572965,1.351
0.0017313119595872863,1.352
0.001727465979297081,1.353
0.001723496768940436,1.354
0.0017194083970454522,1.355
0.0017152052368666992,1.356
0.0017108923410452256,1.357
0.0017064756201207562,1.358
0.0017019618438560786,1.359
0.001697358476980367,1.36
0.0016926733758811472,1.361
0.0016879144038860665,1.362
0.0016830890445568832,1.363
0.0016782040838627368,1.364
0.00167326539459478,1.365
0.0016682778134974063,1.366
0.0016632450791676068,1.367
0.0016581698036883673,1.368
0.001653053470075391,1.369
0.0016478964630993094,1.37
0.0016426981434014085,1.371
0.0016374569647232978,1.372
0.0016321706177704791,1.373
0.001626836170422238,1.374
0.0016214501705951027,1.375
0.0016160086847194601,1.376
0.0016105072510127104,1.377
0.001604940724223989,1.378
0.0015993030345385435,1.379
0.0015935870368394861,1.38
0.001587784696407742,1.381
0.001581887654495126,1.382
0.0015758879925636966,1.383
0.00156977901349646,1.384
0.0015635559400435208,1.385
0.0015572164546355147,1.386
0.0015507610013884665,1.387
0.0015441927783883419,1.388
0.0015375173763479445,1.389
0.001530742068981578,1.39
0.0015238748499712305,1.391
0.001516923536891645,1.392
0.0015098954538564874,1.393
0.0015027978624683298,1.394
0.001495638706787582,1.395
0.0014884271844106346,1.396
0.0014811739929478597,1.397
0.0014738912768662727,1.398
0.0014665923284833604,1.399
0.001459291104124817,1.4
0.0014520016114958022,1.401
0.0014447373015190155,1.402
0.0014375107506535373,1.403
0.0014303337937531775,1.404
0.0014232178677789837,1.405
0.0014161742064361363,1.406
0.001409213726346221,1.407
0.001402346701835244,1.408
0.0013955825792793207,1.409
0.0013889301816355992,1.41
0.0013823980889304962,1.411
0.0013759948148468158,1.412
0.0013697286344484952,1.413
0.00136360722075528,1.414
0.0013576374853431533,1.415
0.0013518258698406891,1.416
0.0013461788797944003,1.417
0.0013407035234782054,1.418
0.0013354075144460787,1.419
0.0013302992154623924,1.42
0.0013253873295453458,1.421
0.0013206804147998805,1.422
0.0013161864617700456,1.423
0.0013119128376388241,1.424
0.0013078666323629244,1.425
0.0013040551207711471,1.426
0.0013004860707473615,1.427
0.001297167812204235,1.428
0.0012941090758461994,1.429
0.0012913186427683356,1.43
0.001288804898858782,1.431
0.0012865754818107082,1.432
0.0012846372062195407,1.433
0.0012829962382315584,1.434
0.0012816583006128454,1.435
0.001280628745213463,1.436
0.0012799124834434988,1.437
0.001279513849130633,1.438
0.0012794364893663778,1.439
0.0012796833582429765,1.44
0.0012802568353852276,1.441
0.0012811589334307649,1.442
0.001282391521121648,1.443
0.0012839564829140314,1.444
0.001285855760021883,1.445
0.0012880912586244629,1.446
0.0012906646507046921,1.447
0.001293577118179733,1.448
0.001296829096323681,1.449
0.0013004200591140809,1.45
0.0013043483664276897,1.451
0.0013086111743512117,1.452
0.0013132043960061995,1.453
0.0013181226948364322,1.454
0.0013233595086749946,1.455
0.001328907112534238,1.456
0.0013347566984832152,1.457
0.0013408984166571349,1.458
0.0013473213496561763,1.459
0.0013540135025521855,1.46
0.001360961946892728,1.461
0.0013681531418232489,1.462
0.0013755733216693886,1.463
0.001383208840635533,1.464
0.0013910464307389974,1.465
0.0013990733719702955,1.466
0.001407277586585917,1.467
0.0014156476580388878,1.468
0.0014241727502970357,1.469
0.0014328423873455453,1.47
0.0014416460638307072,1.471
0.0014505727635527124,1.472
0.0014596106582295662,1.473
0.001468747230039852,1.474
0.00147796971204474,1.475
0.0014872655285179926,1.476
0.0014966225182333676,1.477
0.001506028865445597,1.478
0.00151547274335725,1.479
0.0015249417991277895,1.48
0.0015344227711386966,1.481
0.0015439014499292517,1.482
0.0015533628447258559,1.483
0.0015627912616566068,1.484
0.0015721701724148462,1.485
0.0015814819614736093,1.486
0.0015907077422273159,1.487
0.0015998273627572267,1.488
0.0016088195464877635,1.489
0.0016176620771332483,1.49
0.0016263320408510537,1.491
0.0016348061974753606,1.492
0.0016430615326553035,1.493
0.0016510759841874612,1.494
0.0016588292579090805,1.495
0.0016663035777744392,1.496
0.0016734841831763734,1.497
0.0016803594102110235,1.498
0.0016869202616448032,1.499
0.0016931594598017846,1.5
0.0016990702451544484,1.501
0.001704645633604435,1.502
0.0017098787036304455,1.503
0.0017147635989395087,1.504
0.0017192965007264097,1.505
0.0017234761696526052,1.506
0.0017273040005530373,1.507
0.0017307836359345297,1.508
0.0017339202269616393,1.509
0.0017367194695622938,1.51
0.0017391866471778829,1.511
0.0017413260364408853,1.512
0.0017431408269696488,1.513
0.0017446332469044207,1.514
0.0017458045305892426,1.515
0.001746654788573371,1.516
0.0017471831337061013,1.517
0.0017473882230047374,1.518
0.001747269007608311,1.519
0.001746825403851133,1.52
0.0017460587324071993,1.521
0.0017449718659478342,1.522
0.0017435690757082497,1.523
0.0017418556129180135,1.524
0.001739837090434846,1.525
0.0017375187805074685,1.526
0.0017349050837663661,1.527
0.0017319994835581997,1.528
0.001728805027447459,1.529
0.0017253250467881202,1.53
0.0017215638334761333,1.531
0.0017175271705944038,1.532
0.001713222695630011,1.533
0.001708660090801762,1.534
0.0017038511044894001,1.535
0.0016988094175429992,1.536
0.0016935503825103101,1.537
0.0016880906768376154,1.538
0.0016824479151777414,1.539
0.0016766402590852822,1.54
0.001670686047276345,1.541
0.0016646034522965702,1.542
0.001658410157482686,1.543
0.0016521230449119972,1.544
0.0016457579018144784,1.545
0.0016393292077701942,1.546
0.001632850097003134,1.547
0.0016263325052852334,1.548
0.001619787399929073,1.549
0.0016132249979180849,1.55
0.0016066549399312742,1.551
0.0016000864103674366,1.552
0.0015935281944222226,1.553
0.0015869886706680854,1.554
0.001580475749223504,1.555
0.0015739967735670833,1.556
0.0015675584034782351,1.557
0.0015611664949427445,1.558
0.001554826002558192,1.559
0.0015485409477599315,1.56
0.0015423144993011362,1.561
0.0015361491824932307,1.562
0.0015300471791564554,1.563
0.0015240106295666166,1.564
0.0015180418257250054,1.565
0.001512143200619024,1.566
0.00150631706628834,1.567
0.001500565183247138,1.568
0.0014948884413825273,1.569
0.00148928688889471,1.57
0.0014837599750807454,1.571
0.001478306662744046,1.572
0.0014729252728103116,1.573
0.001467613273033054,1.574
0.0014623673253807946,1.575
0.0014571836096279559,1.576
0.0014520581191642785,1.577
0.0014469866464285812,1.578
0.0014419644890587022,1.579
0.0014369863130416895,1.58
0.0014320465966024003,1.581
0.0014271405162599017,1.582
0.001422264782766389,1.583
0.0014174180822969895,1.584
0.0014126010106346016,1.585
0.0014078155387545577,1.586
0.0014030641743902688,1.587
0.001398349157014139,1.588
0.0013936721244573002,1.589
0.0013890343697799195,1.59
0.0013844373179534044,1.591
0.0013798828244212195,1.592
0.0013753731769672723,1.593
0.0013709108303816783,1.594
0.0013664979618341342,1.595
0.001362136045447917,1.596
0.0013578257046296454,1.597
0.0013535669024859742,1.598
0.001349359255061992,1.599
0.001345202261970108,1.6
0.001341095425597459,1.601
0.001337038307519477,1.602
0.001333030558298814,1.603
0.0013290719212105133,1.604
0.0013251621731578589,1.605
0.0013213009467607892,1.606
0.0013174874305305158,1.607
0.0013137201209175913,1.608
0.0013099969027666838,1.609
0.00130631551047473,1.61
0.0013026741168479837,1.611
0.001299071769388837,1.612
0.0012955085267531896,1.613
0.0012919852433007008,1.614
0.0012885030452105283,1.615
0.0012850627434591244,1.616
0.0012816646066957462,1.617
0.0012783086731379015,1.618
0.0012749952947540802,1.619
0.001271725521430075,1.62
0.0012685011660588182,1.621
0.0012653245323893956,1.622
0.0012621979069233071,1.623
0.0012591231367912372,1.624
0.00125610164579868,1.625
0.0012531348730973858,1.626
0.001250224791125614,1.627
0.0012473742280879763,1.628
0.0012445869146692427,1.629
0.001241867259071121,1.63
0.0012392198860510194,1.631
0.0012366490941471747,1.632
0.0012341585866776146,1.633
0.0012317517293784525,1.634
0.0012294321530374275,1.635
0.0012272043479317502,1.636
0.0012250740644794034,1.637
0.001223048463956531,1.638
0.001221136006481376,1.639
0.0012193461018599697,1.64
0.0012176885821776448,1.641
0.0012161731129136672,1.642
0.0012148087596934017,1.643
0.0012136039087547962,1.644
0.0012125664957862623,1.645
0.0012117043092586789,1.646
0.001211025205879319,1.647
0.0012105372101267938,1.648
0.0012102485057536858,1.649
0.0012101673135291025,1.65
0.0012103016439295787,1.651
0.0012106589721639553,1.652
0.0012112460089135266,1.653
0.001212068729358522,1.654
0.0012131325924543543,1.655
0.0012144427271174394,1.656
0.0012160039366610133,1.657
0.0012178205137723995,1.658
0.0012198959923790157,1.659
0.0012222330441290334,1.66
0.0012248336030735287,1.661
0.0012276990908331629,1.662
0.001230830598976738,1.663
0.0012342289926272436,1.664
0.0012378949384840108,1.665
0.0012418288525290755,1.666
0.0012460307583663968,1.667
0.0012505000673047862,1.668
0.0012552353846804014,1.669
0.00126023453295684,1.67
0.0012654948668404833,1.671
0.0012710137366287676,1.672
0.001276788910327992,1.673
0.0012828188566940465,1.674
0.0012891028553783056,1.675
0.0012956409306269557,1.676
0.0013024336285375937,1.677
0.001309481672656308,1.678
0.0013167855387064302,1.679
0.0013243450351570762,1.68
0.0013321590709648422,1.681
0.001340225740143694,1.682
0.0013485426213788872,1.683
0.00135710708117636,1.684
0.0013659164470433659,1.685
0.0013749679957547518,1.686
0.001384258745955621,1.687
0.00139378511789273,1.688
0.001403542635109659,1.689
0.0014135258566810326,1.69
0.0014237285383377587,1.691
0.001434143844835569,1.692
0.0014447644763691556,1.693
0.0014555826857372749,1.694
0.0014665902042145192,1.695
0.0014777780944554425,1.696
0.0014891365445295183,1.697
0.001500654647465318,1.698
0.00151232028384356,1.699
0.0015241201885507114,1.7
0.00153604010522137,1.701
0.001548064846661293,1.702
0.0015601782025984172,1.703
0.0015723628585138066,1.704
0.0015846005501701566,1.705
0.0015968724434238506,1.706
0.0016091595028669666,1.707
0.0016214426401400276,1.708
0.0016337025655691036,1.709
0.0016459194089011042,1.71
0.0016580723695470271,1.711
0.0016701397149558206,1.712
0.0016820991706239109,1.713
0.0016939284550004823,1.714
0.0017056057529077667,1.715
0.0017171101058418084,1.716
0.001728421782798567,1.717
0.0017395226853607183,1.718
0.0017503967746437482,1.719
0.001761030413788127,1.72
0.0017714124515566347,1.721
0.00178153387613961,1.722
0.0017913869523106857,1.723
0.0018009641073096071,1.724
0.001810257386465396,1.725
0.0018192590824731008,1.726
0.0018279631163359716,1.727
0.0018363663644346481,1.728
0.001844469527185811,1.729
0.0018522774195416718,1.73
0.001859798665015976,1.731
0.001867044890426576,1.732
0.0018740296171077797,1.733
0.0018807670902501186,1.734
0.0018872712723526578,1.735
0.0018935551609217663,1.736
0.0018996304924726298,1.737
0.0019055077866812296,1.738
0.0019111965944767022,1.739
0.0019167057715126317,1.74
0.0019220436200776765,1.741
0.001927217816050126,1.742
0.0019322351258726082,1.743
0.001937101033432752,1.744
0.001941819514660068,1.745
0.0019463931087981836,1.746
0.0019508231647691644,1.747
0.0019551100532952865,1.748
0.001959253258555578,1.749
0.0019632513598084947,1.75
0.001967101951722449,1.751
0.0019708015738396792,1.752
0.0019743457122702313,1.753
0.001977728900208549,1.754
0.0019809449056405843,1.755
0.0019839869840290398,1.756
0.0019868481890053867,1.757
0.0019895217439509756,1.758
0.0019920014562536275,1.759
0.00199428211145749,1.76
0.0019963597498280517,1.761
0.00199823173229389,1.762
0.0019998965486871263,1.763
0.002001353385881101,1.764
0.0020026015282379435,1.765
0.0020036396905777887,1.766
0.002004465413707534,1.767
0.002005074689674176,1.768
0.002005461899260239,1.769
0.0020056199476816213,1.77
0.002005540427946969,1.771
0.002005213754618671,1.772
0.0020046292981751724,1.773
0.0020037755627404963,1.774
0.0020026404383046664,1.775
0.0020012115377625412,1.776
0.0019994766019866654,1.777
0.0019974239320961753,1.778
0.001995042797365644,1.779
0.001992323774192996,1.78
0.0019892589918447763,1.781
0.00198584228193537,1.782
0.00198206923694708,1.783
0.0019779371764081484,1.784
0.0019734450117493236,1.785
0.001968593006538181,1.786
0.0019633824438452917,1.787
0.0019578152201040907,1.788
0.0019518933743314958,1.789
0.00194561853762629,1.79
0.0019389913808953742,1.791
0.0019320113975791224,1.792
0.0019246773403176305,1.793
0.0019169881929403253,1.794
0.0019089443097501243,1.795
0.0019005484562795549,1.796
0.0018918065819580703,1.797
0.0018827281927859144,1.798
0.0018733262620040556,1.799
0.0018636167088396287,1.8
0.001853617554718227,1.801
0.001843347905522845,1.802
0.0018328269120225253,1.803
0.0018220729204195577,1.804
0.0018111031047416996,1.805
0.001799933659876312,1.806
0.0017885802479486459,1.807
0.0017770583493889093,1.808
0.0017653833820597624,1.809
0.0017535705686691004,1.81
0.0017416345886466411,1.811
0.0017295891387485534,1.812
0.001717446599707105,1.813
0.0017052179236800825,1.814
0.001692912643394389,1.815
0.0016805388548146135,1.816
0.001668103204274555,1.817
0.0016556110067025478,1.818
0.001643066518685477,1.819
0.001630473308328787,1.82
0.001617834695236764,1.821
0.0016051542640712492,1.822
0.0015924364304508165,1.823
0.0015796869923096512,1.824
0.0015669135695190188,1.825
0.0015541258370705964,1.826
0.0015413354864610527,1.827
0.0015285558896108477,1.828
0.0015158014804564316,1.829
0.0015030869540770503,1.83
0.0014904265857462956,1.831
0.001477834079791289,1.832
0.001465323015191844,1.833
0.0014529074937666352,1.834
0.0014406026023999609,1.835
0.0014284245795728192,1.836
0.0014163907328471738,1.837
0.0014045191997879328,1.838
0.0013928286490179308,1.839
0.0013813379851727215,1.84
0.0013700660773904565,1.841
0.0013590315015080663,1.842
0.001348252280402424,1.843
0.0013377456239237549,1.844
0.001327527721065405,1.845
0.0013176136823693863,1.846
0.0013080176613006365,1.847
0.0012987530458478825,1.848
0.0012898325738293177,1.849
0.0012812682897775341,1.85
0.0012730713997151756,1.851
0.0012652522366597917,1.852
0.0012578204582054749,1.853
0.0012507853083176777,1.854
0.0012441557104099137,1.855
0.0012379401300414937,1.856
0.001232146307732148,1.857
0.0012267810460348577,1.858
0.0012218501467248179,1.859
0.0012173584167796381,1.86
0.0012133096975996418,1.861
0.001209707018415894,1.862
0.0012065529133460653,1.863
0.0012038497771466572,1.864
0.0012016000951292321,1.865
0.0011998064324830284,1.866
0.0011984711771551757,1.867
0.0011975962638075329,1.868
0.001197183242248241,1.869
0.001197233779539019,1.87
0.0011977503094575711,1.871
0.001198736537519897,1.872
0.0012001977128193037,1.873
0.0012021406856985398,1.874
0.0012045737899324456,1.875
0.0012075065837906407,1.876
0.001210949475179789,1.877
0.0012149132590013616,1.878
0.0012194086114508842,1.879
0.001224445625368785,1.88
0.0012300335123933497,1.881
0.001236180528742556,1.882
0.0012428940220929117,1.883
0.0012501804593126927,1.884
0.0012580453932172113,1.885
0.0012664933898954031,1.886
0.0012755279461992835,1.887
0.0012851514511633526,1.888
0.0012953652463416714,1.889
0.0013061697659409303,1.89
0.0013175646671725399,1.891
0.0013295488665454195,1.892
0.0013421204472415177,1.893
0.0013552764858947425,1.894
0.001369012932797212,1.895
0.0013833246241479447,1.896
0.0013982053496645504,1.897
0.0014136478791707198,1.898
0.0014296439453202621,1.899
0.0014461842219157355,1.9
0.0014632583300474354,1.901
0.001480854889099536,1.902
0.0014989616045251169,1.903
0.001517565355748939,1.904
0.0015366522353205492,1.905
0.0015562075047609667,1.906
0.0015762154629495229,1.907
0.0015966592552593003,1.908
0.0016175206818213857,1.909
0.0016387800693218745,1.91
0.0016604162391130545,1.911
0.0016824065881948357,1.912
0.001704727303299369,1.913
0.0017273536937484975,1.914
0.0017502605928782474,1.915
0.0017734227891835217,1.916
0.001796815471283494,1.917
0.0018204146699636631,1.918
0.0018441976494715825,1.919
0.0018681431559785834,1.92
0.0018922314103235513,1.921
0.0019164437593761218,1.922
0.0019407619668448943,1.923
0.0019651673516812755,1.924
0.001989640352616716,1.925
0.002014160970940107,1.926
0.002038709858586278,1.927
0.0020632695340858037,1.928
0.0020878254546176523,1.929
0.002112366839783489,1.93
0.0021368871653850516,1.931
0.002161384276673437,1.932
0.0021858601178935777,1.933
0.002210320119228668,1.934
0.0022347723062182637,1.935
0.0022592261978527763,1.936
0.002283691589012487,1.937
0.002308177520773899,1.938
0.0023326919619688084,1.939
0.0023572423861470794,1.94
0.0023818367813139116,1.941
0.002406484543836776,1.942
0.0024311970383159463,1.943
0.0024559877878704704,1.944
0.0024808723193242344,1.945
0.0025058677417389235,1.946
0.0025309921606769497,1.947
0.0025562640180867516,1.948
0.002581701415623619,1.949
0.0026073214532504763,1.95
0.002633139621998108,1.951
0.0026591693424897677,1.952
0.002685421752025442,1.953
0.0027119057112812745,1.954
0.002738627879101909,1.955
0.0027655927753317587,1.956
0.002792802882558825,1.957
0.0028202588578847064,1.958
0.002847959863001053,1.959
0.0028759039418558667,1.96
0.0029040883234297526,1.961
0.00293250953424832,1.962
0.0029611632660916324,1.963
0.0029900440204857783,1.964
0.0030191446038327426,1.965
0.0030484556088800564,1.966
0.003077965098831176,1.967
0.003107658626564531,1.968
0.003137519474160655,1.969
0.003167528905969782,1.97
0.003197666319654119,1.971
0.0032279092302864992,1.972
0.0032582330464636638,1.973
0.0032886107894993443,1.974
0.003319013171914232,1.975
0.003349409305513142,1.976
0.0033797678146880203,1.977
0.0034100579312021265,1.978
0.003440250280177728,1.979
0.0034703171778647213,1.98
0.0035002323208273988,1.981
0.0035299698174189624,1.982
0.0035595028676017617,1.983
0.003588803079422863,1.984
0.003617841270124643,1.985
0.0036465893648064446,1.986
0.0036750223595133987,1.987
0.003703119704756862,1.988
0.0037308658582104817,1.989
0.0037582498868683274,1.99
0.0037852640849027498,1.991
0.0038119018929062757,1.992
0.003838156178724631,1.993
0.0038640191729322746,1.994
0.0038894840261178387,1.995
0.003914546552009968,1.996
0.003939205895785142,1.997
0.003963463774617579,1.998
0.003987322672297191,1.999
0.004010784168916251,2.0
0.004033848743028998,2.001
0.00405651706324829,2.002
0.004078791441955726,2.003
0.004100676280588472,2.004
0.004122177175242016,2.005
0.004143299192146565,2.006
0.004164045705132413,2.007
0.004184418789171067,2.008
0.00420442043954474,2.009
0.004224053286034018,2.01
0.004243320403847038,2.011
0.004262224620277754,2.012
0.004280767893777418,2.013
0.004298951197513659,2.014
0.0043167750177210504,2.015
0.004334240217203141,2.016
0.004351348767131395,2.017
0.004368103839324413,2.018
0.0043845089963111756,2.019
0.004400566728358308,2.02
0.0044162772171260556,2.021
0.00443163817220947,2.022
0.004446645598323488,2.023
0.004461294642847167,2.024
0.004475579971424736,2.025
0.004489495631899007,2.026
0.004503034545940929,2.027
0.004516187776535994,2.028
0.004528943694849419,2.029
0.004541287217129755,2.03
0.00455319939978852,2.031
0.004564657517072095,2.032
0.004575635331645154,2.033
0.004586103161708196,2.034
0.004596027694054923,2.035
0.004605371998927073,2.036
0.004614096304737994,2.037
0.004622159567018058,2.038
0.004629521407483459,2.039
0.0046361439626535494,2.04
0.00464199323620704,2.041
0.004647039591163783,2.042
0.004651257121330256,2.043
0.004654621825266321,2.044
0.004657109292637753,2.045
0.004658693851692013,2.046
0.004659350498379083,2.047
0.004659058453764507,2.048
0.00465780431398352,2.049
0.004655583721843778,2.05
0.004652401219983123,2.051
0.004648268312555731,2.052
0.004643200172387123,2.053
0.004637212166053149,2.054
0.004630318124832689,2.055
0.004622531268814589,2.056
0.004613866501341908,2.057
0.00460434245037708,2.058
0.004593982725357494,2.059
0.004582816304959308,2.06
0.0045708769394722576,2.061
0.004558201530684613,2.062
0.004544827806000384,2.063
0.004530792384453756,2.064
0.004516130643287235,2.065
0.004500878564593882,2.066
0.004485075269733712,2.067
0.004468764957214936,2.068
0.004451997701510709,2.069
0.004434828971119341,2.07
0.004417317957859217,2.071
0.004399525097981823,2.072
0.004381509611170964,2.073
0.004363328182531304,2.074
0.004345035092844249,2.075
0.0043266828068674245,2.076
0.004308322070937544,2.077
0.0042900014845877275,2.078
0.004271766932039271,2.079
0.004253661234878988,2.08
0.004235724246757805,2.081
0.004217993405228257,2.082
0.004200504562497639,2.083
0.004183292804744684,2.084
0.004166392969568258,2.085
0.00414983966821703,2.086
0.004133666765045927,2.087
0.0041179064454899906,2.088
0.004102588289516307,2.089
0.004087738940884176,2.09
0.0040733825240462885,2.091
0.004059541288603612,2.092
0.004046235921061762,2.093
0.004033485335846524,2.094
0.004021306097516776,2.095
0.004009712042258067,2.096
0.0039987147094671886,2.097
0.003988324512666738,2.098
0.003978551999574251,2.099
0.003969408614573669,2.1
0.003960906646109304,2.101
0.0039530582944643,2.102
0.0039458743872246415,2.103
0.003939363900568068,2.104
0.003933534787080543,2.105
0.003928395095022496,2.106
0.003923953091854029,2.107
0.003920216296340949,2.108
0.003917190611110767,2.109
0.003914880609698014,2.11
0.00391329040974136,2.111
0.003912423784366024,2.112
0.003912283484550512,2.113
0.003912871352599175,2.114
0.003914190213130108,2.115
0.003916246436501637,2.116
0.0039190514489999976,2.117
0.003922621456691102,2.118
0.003926975563263408,2.119
0.003932133178721642,2.12
0.003938112179232669,2.121
0.003944928599212778,2.122
0.003952597054723555,2.123
0.003961130705444539,2.124
0.003970540586758366,2.125
0.0039808350588600196,2.126
0.003992019985361233,2.127
0.004004099376244756,2.128
0.004017075815174164,2.129
0.004030950335086485,2.13
0.004045721829442311,2.131
0.0040613864261842625,2.132
0.004077937430340734,2.133
0.004095366085328351,2.134
0.0041136628427722805,2.135
0.004132818734953091,2.136
0.00415282661693768,2.137
0.004173682059932652,2.138
0.0041953836180846525,2.139
0.004217932226809627,2.14
0.004241329665763435,2.141
0.004265576608747911,2.142
0.004290671536507246,2.143
0.004316611194871391,2.144
0.004343391656029652,2.145
0.004371008794143857,2.146
0.0043994579813193225,2.147
0.004428733359150887,2.148
0.0044588270505359715,2.149
0.004489728553551078,2.15
0.004521424394118652,2.151
0.004553897977207596,2.152
0.004587129505153765,2.153
0.004621095832200952,2.154
0.0046557701867696024,2.155
0.004691121850179645,2.156
0.004727116050262338,2.157
0.004763714215737142,2.158
0.004800874419198383,2.159
0.004838551764683497,2.16
0.004876698647298999,2.161
0.004915264943876021,2.162
0.004954198242190188,2.163
0.004993444203370157,2.164
0.005032947060932552,2.165
0.005072650111979384,2.166
0.005112495912069312,2.167
0.005152425821072157,2.168
0.005192378981614227,2.169
0.005232291859503246,2.17
0.005272099574653016,2.171
0.005311738709815407,2.172
0.005351150166340979,2.173
0.005390280914309449,2.174
0.0054290841095495194,2.175
0.00546751758341651,2.176
0.005505541207440346,2.177
0.005543113968141383,2.178
0.005580191692958484,2.179
0.005616726040222603,2.18
0.00565266457746981,2.181
0.00568795133008341,2.182
0.005722527562158944,2.183
0.005756332995916735,2.184
0.005789307629613691,2.185
0.0058213940302719236,2.186
0.005852539712389681,2.187
0.005882699047209356,2.188
0.005911834128064872,2.189
0.005939914144010644,2.19
0.005966913034841034,2.191
0.0059928060951648385,2.192
0.006017567951643475,2.193
0.006041174273878904,2.194
0.006063606554019134,2.195
0.006084857184399237,2.196
0.006104932722059113,2.197
0.006123854469814981,2.198
0.006141656321227552,2.199
0.006158380506044283,2.2
0.006174072449786288,2.201
0.006188776478102272,2.202
0.006202533930350208,2.203
0.006215383553415223,2.204
0.006227362408446222,2.205
0.006238505930468158,2.206
0.006248847028926398,2.207
0.0062584147614727645,2.208
0.006267233392805055,2.209
0.006275322271549883,2.21
0.006282695993600346,2.211
0.006289364270936582,2.212
0.006295332015672571,2.213
0.0063006005448058506,2.214
0.006305169964450186,2.215
0.006309042209888387,2.216
0.006312224391165487,2.217
0.006314732259152608,2.218
0.0063165935390490785,2.219
0.006317850728895009,2.22
0.006318562805683645,2.221
0.006318805223489145,2.222
0.006318667722471407,2.223
0.006318249820320745,2.224
