VaMe,time
-0.0007904239124602876,0.001
-0.0006941839951815539,0.002
-0.000598247033282646,0.003
-0.0005027125074554601,0.004
-0.0004076743925773066,0.005
-0.0003132196838305141,0.006
-0.00021942767342595013,0.007
-0.00012636992579330994,0.008
-3.4110722762743986e-05,0.009
5.729231566165323e-05,0.01
0.0001477876564075205,0.011
0.00023732938027328193,0.012
0.00032587669618292994,0.013
0.00041339323562327915,0.014
0.0004998459472985414,0.015
0.0005852037452664419,0.016
0.000669436655133649,0.017
0.0007525160936388938,0.018
0.0008344158975800472,0.019
0.0009151131996240324,0.02
0.0009945886700051469,0.021
0.001072826124090262,0.022
0.001149811698199318,0.023
0.00122553284062948,0.024
0.001299977326136652,0.025
0.0013731324877815725,0.026
0.0014449848082584563,0.027
0.0015155197993468872,0.028
0.00158472205136825,0.029
0.0016525755849457274,0.03
0.0017190645709921901,0.031
0.0017841740441883866,0.032
0.001847890088627231,0.033
0.0019101993338180392,0.034
0.0019710882807621186,0.035
0.002030543372739564,0.036
0.0020885521098662724,0.037
0.002145104558260228,0.038
0.002200194479811792,0.039
0.002253819706359463,0.04
0.002305981624154942,0.041
0.0023566838019045567,0.042
0.00240593034451444,0.043
0.0024537252552579458,0.044
0.0025000735142279313,0.045
0.0025449829939226598,0.046
0.0025884659291543093,0.047
0.0026305394307036276,0.048
0.0026712250824890713,0.049
0.00271054786561267,0.05
0.0027485347378002315,0.051
0.0027852131509354117,0.052
0.0028206097374835555,0.053
0.0028547494774641565,0.054
0.002887655640099413,0.055
0.0029193504286138478,0.056
0.0029498559294850496,0.057
0.0029791950262828028,0.058
0.0030073921120760093,0.059
0.0030344735029825213,0.06
0.0030604674991242895,0.061
0.0030854040995284687,0.062
0.0031093144234801435,0.063
0.0031322299083145102,0.064
0.0031541813530141407,0.065
0.003175197962456546,0.066
0.003195306740518151,0.067
0.003214532498378381,0.068
0.0032328982806544156,0.069
0.003250425778674954,0.07
0.0032671355163440313,0.071
0.003283046838855475,0.072
0.0032981778159858967,0.073
0.0033125451653023084,0.074
0.003326164251154102,0.075
0.0033390491480426703,0.076
0.00335121270252195,0.077
0.0033626665078149483,0.078
0.003373420724409125,0.079
0.0033834837284195075,0.08
0.0033928616336845008,0.081
0.0034015578312679234,0.082
0.0034095727671062917,0.083
0.0034169040581765904,0.084
0.003423546836658781,0.085
0.003429494213399814,0.086
0.0034347378623306637,0.087
0.0034392687134084687,0.088
0.0034430776554689145,0.089
0.003446156093594367,0.09
0.00344849620105777,0.091
0.0034500907500393994,0.092
0.0034509324773696736,0.093
0.003451013108448999,0.094
0.003450322532374345,0.095
0.0034488488076150235,0.096
0.0034465791452715205,0.097
0.0034435013272972868,0.098
0.003439605001427473,0.099
0.003434882631673258,0.1
0.0034293300423347797,0.101
0.003422946527839146,0.102
0.003415734522329771,0.103
0.003407698840380994,0.104
0.0033988455315230484,0.105
0.0033891804616149926,0.106
0.003378707989655642,0.107
0.003367430402185002,0.108
0.00335534838641392,0.109
0.003342462017188313,0.11
0.003328771654012993,0.111
0.003314278631356513,0.112
0.003298985865487732,0.113
0.0032828984913606586,0.114
0.003266024574997581,0.115
0.003248375846909917,0.116
0.003229968305268755,0.117
0.003210822477502855,0.118
0.0031909631325906167,0.119
0.0031704183146405115,0.12
0.003149217705434944,0.121
0.0031273907700761928,0.122
0.003104965806659932,0.123
0.003081970616972074,0.124
0.003058434094026497,0.125
0.0030343876028679985,0.126
0.0030098657167583758,0.127
0.002984906334408135,0.128
0.002959550321844039,0.129
0.002933840877320972,0.13
0.002907822813361301,0.131
0.0028815418917744,0.132
0.0028550442594163657,0.133
0.002828375951847079,0.134
0.0028015823905265026,0.135
0.0027747078060153044,0.136
0.0027477946521516712,0.137
0.002720883308117306,0.138
0.0026940122881513374,0.139
0.002667218757645307,0.14
0.0026405390002045615,0.141
0.002614008684835345,0.142
0.0025876629434686952,0.143
0.002561536306289909,0.144
0.002535662543392162,0.145
0.0025100744504114557,0.146
0.0024848036043261432,0.147
0.0024598801073930604,0.148
0.0024353323336323077,0.149
0.0024111866935016854,0.15
0.002387467447977524,0.151
0.0023641966227671857,0.152
0.002341394038299224,0.153
0.0023190774034549102,0.154
0.0022972624171275755,0.155
0.0022759628559161455,0.156
0.002255190626773119,0.157
0.0022349557503554677,0.158
0.002215266286741163,0.159
0.0021961283201255752,0.16
0.0021775461085643977,0.161
0.0021595223478517596,0.162
0.0021420584306949333,0.163
0.0021251546438971133,0.164
0.0021088102935538445,0.165
0.0020930237608697464,0.166
0.0020777924981687872,0.167
0.002063112975310066,0.168
0.0020489805808964717,0.169
0.0020353894720517396,0.17
0.0020223323754094,0.171
0.0020098004289953136,0.172
0.0019977832554844885,0.173
0.001986269368949636,0.174
0.001975246802709367,0.175
0.0019647037747413942,0.176
0.0019546292632841833,0.177
0.0019450133983648786,0.178
0.0019358475903116354,0.179
0.0019271243488741554,0.18
0.0019188367896466262,0.181
0.0019109779090399814,0.182
0.0019035399260437375,0.183
0.001896514153393901,0.184
0.001889891549012879,0.185
0.001883663579680685,0.186
0.0018778229594379131,0.187
0.0018723640623460776,0.188
0.001867282939893753,0.189
0.0018625769278053724,0.19
0.0018582438952132907,0.191
0.0018542813568319686,0.192
0.0018506859125631703,0.193
0.0018474533316051433,0.194
0.001844579030605271,0.195
0.0018420584711787023,0.196
0.0018398872649796787,0.197
0.0018380610037700422,0.198
0.0018365748910681874,0.199
0.001835423276219675,0.2
0.001834599254414055,0.201
0.0018340945248596007,0.202
0.0018338995347304161,0.203
0.0018340037251051023,0.204
0.0018343957178606311,0.205
0.0018350634347604393,0.206
0.0018359942060784437,0.207
0.00183717491125509,0.208
0.0018385921497002713,0.209
0.0018402323876189584,0.21
0.0018420819937625837,0.211
0.0018441270791329815,0.212
0.0018463531294689512,0.213
0.001848744637855878,0.214
0.001851285132305488,0.215
0.0018539577690884369,0.216
0.001856746231078056,0.217
0.001859635583127989,0.218
0.0018626129084591395,0.219
0.0018656676521814455,0.22
0.0018687916391820604,0.221
0.0018719787759736359,0.222
0.0018752244743290743,0.223
0.0018785248440304331,0.224
0.0018818757977853656,0.225
0.001885272459161662,0.226
0.0018887092753789234,0.227
0.0018921807622446511,0.228
0.001895682428133751,0.229
0.0018992115244551508,0.23
0.001902767491967185,0.231
0.0019063520709759337,0.232
0.0019099690926996891,0.233
0.0019136240094575609,0.234
0.001917323244972773,0.235
0.0019210734562657762,0.236
0.0019248807994296476,0.237
0.0019287503074599695,0.238
0.0019326855160381746,0.239
0.001936688400026714,0.24
0.0019407595187456406,0.241
0.001944898224531087,0.242
0.001949102885073221,0.243
0.0019533711324605236,0.244
0.0019577001396531455,0.245
0.001962086891876833,0.246
0.001966528397104164,0.247
0.001971021783204947,0.248
0.001975564262196971,0.249
0.0019801529868855193,0.25
0.0019847848555930385,0.251
0.001989456318455711,0.252
0.001994163205109807,0.253
0.0019989005485681233,0.254
0.0020036623506955696,0.255
0.002008441292288505,0.256
0.0020132285566817278,0.257
0.00201801396736842,0.258
0.0020227864037151914,0.259
0.0020275342784583914,0.26
0.002032245926795274,0.261
0.0020369098753131583,0.262
0.0020415150061003176,0.263
0.0020460506360553362,0.264
0.0020505065197575535,0.265
0.0020548727703564107,0.266
0.002059139686338927,0.267
0.002063297471091089,0.268
0.002067335831177639,0.269
0.0020712434955301516,0.27
0.0020750078773302013,0.271
0.0020786151859888175,0.272
0.0020820510389880933,0.273
0.002085301314213549,0.274
0.0020883529702268437,0.275
0.002091194682866525,0.276
0.002093817203410172,0.277
0.0020962133748616855,0.278
0.0020983777869179876,0.279
0.0021003060950310574,0.28
0.0021019940905570925,0.281
0.002103436807435225,0.282
0.0021046281669136425,0.283
0.002105561368774936,0.284
0.002106229635310388,0.285
0.0021066268410594472,0.286
0.0021067478985018363,0.287
0.0021065889473627897,0.288
0.0021061474187242016,0.289
0.0021054220358016694,0.29
0.0021044127669575235,0.291
0.0021031206843982794,0.292
0.0021015476412241654,0.293
0.0020996956828924986,0.294
0.002097566297672946,0.295
0.0020951600040670496,0.296
0.002092476752076249,0.297
0.0020895169666240343,0.298
0.002086282664294968,0.299
0.002082778260771033,0.3
0.0020790109333427165,0.301
0.0020749905214048872,0.302
0.0020707290334906164,0.303
0.00206623988861104,0.304
0.002061537032171726,0.305
0.002056634044027584,0.306
0.002051543411351905,0.307
0.0020462762523940792,0.308
0.0020408426032607722,0.309
0.0020352519962609657,0.31
0.0020295140051358918,0.311
0.002023638648067822,0.312
0.0020176366473371103,0.313
0.002011519553837394,0.314
0.002005299753097044,0.315
0.001998990381580972,0.316
0.0019926051902436287,0.317
0.001986158384481877,0.318
0.0019796644461264855,0.319
0.0019731379212476496,0.32
0.0019665931555835105,0.321
0.001960043976550624,0.322
0.001953503339046338,0.323
0.001946982966107088,0.324
0.0019404930615854112,0.325
0.0019340422248150648,0.326
0.0019276376213799111,0.327
0.0019212853107191865,0.328
0.0019149906071137957,0.329
0.001908758418809136,0.33
0.0019025935350987103,0.331
0.0018965008283886682,0.332
0.0018904853440954532,0.333
0.0018845522656652815,0.334
0.0018787067661726275,0.335
0.0018729537882944322,0.336
0.0018672978181365717,0.337
0.0018617427201838533,0.338
0.0018562916768410428,0.339
0.0018509472390153413,0.34
0.001845711460999667,0.341
0.0018405860717470807,0.342
0.0018355726242003816,0.343
0.001830672561155224,0.344
0.0018258871393260286,0.345
0.0018212171665794084,0.346
0.0018166626014562645,0.347
0.0018122222699641013,0.348
0.0018078939808751006,0.349
0.00180367499542912,0.35
0.0017995625557156911,0.351
0.0017955542741040988,0.352
0.001791648363662245,0.353
0.0017878437480394218,0.354
0.0017841400760993614,0.355
0.0017805376396363875,0.356
0.0017770371769777753,0.357
0.0017736395507807615,0.358
0.0017703453106860919,0.359
0.0017671542010591166,0.36
0.0017640647663364193,0.361
0.0017610742297567742,0.362
0.0017581786399390328,0.363
0.0017553730792222106,0.364
0.0017526517514573016,0.365
0.0017500078931588711,0.366
0.0017474335662907904,0.367
0.0017449195439517538,0.368
0.0017424554999451467,0.369
0.0017400304524888232,0.37
0.0017376332249708958,0.371
0.0017352527388381422,0.372
0.0017328780587840646,0.373
0.0017304981720030058,0.374
0.0017281015580812666,0.375
0.0017256757770627398,0.376
0.0017232074321041006,0.377
0.0017206826386003367,0.378
0.001718087753140078,0.379
0.0017154100586513174,0.38
0.0017126382609924209,0.381
0.0017097627329396663,0.382
0.0017067754765267473,0.383
0.0017036698365620786,0.384
0.0017004400635491155,0.385
0.0016970808529668281,0.386
0.0016935869543406926,0.387
0.0016899528615360504,0.388
0.0016861725109930663,0.389
0.0016822389588931918,0.39
0.0016781442531557918,0.391
0.001673879811905983,0.392
0.0016694373055273213,0.393
0.0016648097239486644,0.394
0.001659992301564709,0.395
0.001654983074963615,0.396
0.001649782936392345,0.397
0.0016443951509638646,0.398
0.0016388244236795915,0.399
0.0016330757791167458,0.4
0.0016271537363530002,0.401
0.0016210621462949962,0.402
0.0016148045154676103,0.403
0.0016083843401912535,0.404
0.0016018051986332045,0.405
0.001595070619248719,0.406
0.0015881838190728802,0.407
0.0015811474010161083,0.408
0.0015739630830464545,0.409
0.0015666315100123724,0.41
0.001559152180442684,0.411
0.001551523510232806,0.412
0.0015437430453037854,0.413
0.0015358078147137142,0.414
0.001527714782258775,0.415
0.0015194613190423598,0.416
0.001511045596546201,0.417
0.0015024667975467028,0.418
0.0014937250601158498,0.419
0.0014848211047818881,0.42
0.0014757556328272728,0.421
0.0014665288764514578,0.422
0.0014571407420396378,0.423
0.001447591532654575,0.424
0.001437882823141107,0.425
0.0014280181364046747,0.426
0.0014180032988688768,0.427
0.0014078464524606635,0.428
0.0013975577333803784,0.429
0.001387148656457317,0.43
0.0013766312885058884,0.431
0.0013660174514118157,0.432
0.0013553183661734894,0.433
0.001344544895011763,0.434
0.0013337080349047888,0.435
0.0013228192736403372,0.436
0.0013118907216252511,0.437
0.0013009350754149668,0.438
0.0012899654622793866,0.439
0.0012789951895670598,0.44
0.0012680374005339247,0.441
0.0012571046919491614,0.442
0.0012462088905195634,0.443
0.001235361161355932,0.444
0.0012245723473918602,0.445
0.0012138532815726458,0.446
0.001203214913573874,0.447
0.001192668218372215,0.448
0.0011822239144944641,0.449
0.0011718921195749857,0.45
0.001161682192582843,0.451
0.0011516028902380405,0.452
0.0011416626563431442,0.453
0.0011318697943371757,0.454
0.001122232432411976,0.455
0.001112758309514007,0.456
0.0011034545105582327,0.457
0.0010943273496770958,0.458
0.0010853824682953606,0.459
0.0010766249986061684,0.46
0.0010680596384492068,0.461
0.0010596906173486428,0.462
0.0010515215921909648,0.463
0.001043555511460708,0.464
0.001035794514711491,0.465
0.001028239969457956,0.466
0.0010208926958777472,0.467
0.0010137533193640825,0.468
0.0010068226469352307,0.469
0.0010001019755391952,0.47
0.0009935932481224923,0.471
0.0009872989976776121,0.472
0.0009812220775900085,0.473
0.0009753652551257931,0.474
0.0009697308373823416,0.475
0.0009643205169643024,0.476
0.0009591354528878287,0.477
0.000954176412939981,0.478
0.0009494438406005378,0.479
0.0009449378483004106,0.48
0.0009406581866660396,0.481
0.0009366042241848608,0.482
0.0009327749549528386,0.483
0.0009291690468413839,0.484
0.0009257849459940556,0.485
0.0009226210500346421,0.486
0.0009196759367116411,0.487
0.0009169485911488764,0.488
0.0009144385412735566,0.489
0.0009121458180921802,0.49
0.0009100707103014404,0.491
0.0009082133867831597,0.492
0.0009065735891149233,0.493
0.0009051505758455437,0.494
0.0009039432719132665,0.495
0.0009029504288908691,0.496
0.0009021706911092455,0.497
0.0009016025901060409,0.498
0.0009012445210310516,0.499
0.0009010947308886527,0.5
0.0009011513131762881,0.501
0.0009014121744212036,0.502
0.000901874925726297,0.503
0.0009025367116809316,0.504
0.000903394131818055,0.505
0.0009044434098263946,0.506
0.0009056807340237317,0.507
0.0009071025407479791,0.508
0.0009087055774087255,0.509
0.0009104866991015898,0.51
0.0009124425235609178,0.511
0.0009145692744049358,0.512
0.000916863024427224,0.513
0.0009193201468817632,0.514
0.0009219376596535074,0.515
0.000924713334109936,0.516
0.0009276455804468642,0.517
0.000930733167666699,0.518
0.0009339748444314651,0.519
0.000937368966877213,0.52
0.0009409133378364573,0.521
0.0009446053820339361,0.522
0.0009484425094066824,0.523
0.0009524224259000379,0.524
0.0009565432707774326,0.525
0.0009608035613143495,0.526
0.0009652019836026529,0.527
0.0009697371053168432,0.528
0.000974407086120712,0.529
0.0009792094382524918,0.53
0.0009841408735131159,0.531
0.000989197263203695,0.532
0.0009943737042591196,0.533
0.0009996646472006875,0.534
0.0010050640444731328,0.535
0.0010105655026462939,0.536
0.001016162434097074,0.537
0.0010218482020028432,0.538
0.0010276162405597814,0.539
0.001033460116380476,0.54
0.001039373490490832,0.541
0.0010453499522201236,0.542
0.0010513827462356607,0.543
0.0010574645220497488,0.544
0.001063587292653424,0.545
0.0010697426521884832,0.546
0.0010759221270146883,0.547
0.0010821175407913803,0.548
0.0010883213515109854,0.549
0.0010945269139237825,0.55
0.00110072858066616,0.551
0.0011069215502886637,0.552
0.001113101429683463,0.553
0.0011192636902693964,0.554
0.0011254034466144267,0.555
0.0011315157840728917,0.556
0.001137596327474434,0.557
0.0011436416252566595,0.558
0.00114964919531511,0.559
0.0011556172554561918,0.56
0.0011615442179403299,0.561
0.0011674281362639143,0.562
0.001173266421270129,0.563
0.0011790559775603688,0.564
0.0011847935327959276,0.565
0.001190475868710282,0.566
0.0011960998674160933,0.567
0.0012016624010457366,0.568
0.0012071601189684678,0.569
0.001212589200605065,0.57
0.0012179451285752319,0.571
0.0012232225052675211,0.572
0.0012284149401963521,0.573
0.0012335150847992936,0.574
0.0012385148810185904,0.575
0.001243405997646221,0.576
0.0012481803653744,0.577
0.0012528307055720896,0.578
0.0012573509326387026,0.579
0.0012617363135885105,0.58
0.0012659833108024647,0.581
0.0012700890995857703,0.582
0.0012740509070473486,0.583
0.0012778655715660265,0.584
0.0012815296840224077,0.585
0.0012850402024107731,0.586
0.0012883951325061958,0.587
0.0012915940076964655,0.588
0.0012946381011545022,0.589
0.0012975303749945028,0.59
0.0013002751866124775,0.591
0.001302877773373614,0.592
0.0013053435872243146,0.593
0.0013076777369453948,0.594
0.0013098849022567796,0.595
0.0013119697671441532,0.596
0.0013139375917325476,0.597
0.0013157945338386318,0.598
0.0013175475705611611,0.599
0.0013192040363616921,0.6
0.001320771016370501,0.601
0.0013222550671654237,0.602
0.0013236624801459946,0.603
0.0013249997269579132,0.604
0.0013262736419154286,0.605
0.0013274912337830217,0.606
0.001328659253790704,0.607
0.0013297837770059689,0.608
0.0013308700661938536,0.609
0.0013319227395671323,0.61
0.0013329460078833134,0.611
0.001333943783912541,0.612
0.0013349196375209633,0.613
0.001335876649545294,0.614
0.001336817229677204,0.615
0.0013377429563322504,0.616
0.0013386544795553476,0.617
0.001339551513935754,0.618
0.0013404329390818447,0.619
0.001341297009025629,0.62
0.0013421416376808047,0.621
0.0013429646813549762,0.622
0.0013437641056118328,0.623
0.0013445379261428684,0.624
0.0013452839114151344,0.625
0.0013459992840752794,0.626
0.0013466808023396952,0.627
0.0013473253049279298,0.628
0.0013479303873131351,0.629
0.0013484948527403443,0.63
0.0013490188001163007,0.631
0.0013495033602851925,0.632
0.0013499501605908407,0.633
0.0013503606800440596,0.634
0.001350735790874342,0.635
0.001351075744257034,0.636
0.0013513805160062112,0.637
0.0013516501734203996,0.638
0.0013518850182507554,0.639
0.0013520854523039513,0.64
0.0013522516176931313,0.641
0.0013523829842227884,0.642
0.0013524781829079514,0.643
0.001352535243021901,0.644
0.001352552058024798,0.645
0.0013525268261414107,0.646
0.0013524583470635207,0.647
0.0013523461186268002,0.648
0.00135219018332062,0.649
0.0013519907065018938,0.65
0.0013517474325590376,0.651
0.0013514594262324193,0.652
0.0013511253765025265,0.653
0.001350744237647001,0.654
0.0013503158378955693,0.655
0.001349841316554621,0.656
0.0013493233760275513,0.657
0.001348766337637159,0.658
0.0013481759893688632,0.659
0.0013475592216699698,0.66
0.0013469234692622385,0.661
0.0013462760598927927,0.662
0.0013456237326109329,0.663
0.0013449725862491435,0.664
0.0013443284025492156,0.665
0.0013436970381312087,0.666
0.0013430846642839237,0.667
0.0013424978002099751,0.668
0.00134194314618999,0.669
0.0013414272453723137,0.67
0.001340956065292873,0.671
0.0013405346790107465,0.672
0.0013401671682746678,0.673
0.001339856639915934,0.674
0.0013396052129081419,0.675
0.0013394141061095417,0.676
0.0013392840255678099,0.677
0.0013392157607675674,0.678
0.0013392107234073696,0.679
0.001339271241144109,0.68
0.0013394005335628351,0.681
0.001339602392167584,0.682
0.0013398806697608374,0.683
0.0013402387325448875,0.684
0.001340679035155888,0.685
0.0013412029160343572,0.686
0.0013418105772586182,0.687
0.001342501143784468,0.688
0.0013432727700112574,0.689
0.0013441228432214895,0.69
0.0013450483266626509,0.691
0.0013460462332397268,0.692
0.0013471141641545263,0.693
0.0013482508015480266,0.694
0.0013494562315922369,0.695
0.001350732002800947,0.696
0.001352080879145853,0.697
0.0013535063060984684,0.698
0.0013550117250161196,0.699
0.0013566000700032603,0.7
0.0013582737520420342,0.701
0.0013600350290117313,0.702
0.0013618863846315487,0.703
0.0013638306884243175,0.704
0.0013658711440847852,0.705
0.00136801112211902,0.706
0.0013702539692233616,0.707
0.001372602846867446,0.708
0.0013750606008924597,0.709
0.00137762962962669,0.71
0.0013803117133249824,0.711
0.0013831077968259578,0.712
0.0013860177928549469,0.713
0.0013890405411543835,0.714
0.0013921739918867993,0.715
0.0013954155384875056,0.716
0.001398762389153072,0.717
0.001402211906911369,0.718
0.001405761858313441,0.719
0.0014094105101246867,0.72
0.0014131565345290337,0.721
0.0014169987249222026,0.722
0.001420935577951088,0.723
0.0014249648517336813,0.724
0.0014290832431667875,0.725
0.0014332862793028944,0.726
0.001437568399860969,0.727
0.001441923161003106,0.728
0.001446343545934989,0.729
0.0014508223925625676,0.73
0.0014553528972576792,0.731
0.0014599290968005693,0.732
0.0014645462137145954,0.733
0.001469200774692908,0.734
0.001473890460695385,0.735
0.0014786136978737125,0.736
0.0014833690409868983,0.737
0.0014881545348755135,0.738
0.001492967433636061,0.739
0.0014978044865484965,0.74
0.0015026625263205192,0.741
0.0015075389868215044,0.742
0.0015124322088377648,0.743
0.0015173415160647655,0.744
0.0015222670580998345,0.745
0.001527209439091474,0.746
0.0015321691840162134,0.747
0.0015371461716469751,0.748
0.0015421392626843947,0.749
0.0015471462623427433,0.75
0.0015521640791602426,0.751
0.0015571888394910352,0.752
0.0015622158576614421,0.753
0.0015672394893226796,0.754
0.0015722529348791172,0.755
0.0015772480678146773,0.756
0.001582215356182702,0.757
0.0015871439250643466,0.758
0.0015920217780457059,0.759
0.0015968361641331675,0.76
0.0016015740486067546,0.761
0.0016062226227902905,0.762
0.0016107697664370564,0.763
0.0016152043596772787,0.764
0.001619516340743377,0.765
0.001623696433088642,0.766
0.0016277355579950763,0.767
0.0016316242182387148,0.768
0.001635352406291404,0.769
0.0016389103073368447,0.77
0.0016422894385977188,0.771
0.0016454837052971964,0.772
0.0016484900910235256,0.773
0.0016513088539655146,0.774
0.0016539431817708568,0.775
0.0016563983580542777,0.776
0.0016586806086226259,0.777
0.0016607960181901466,0.778
0.0016627500709294881,0.779
0.0016645479636955307,0.78
0.0016661951883320824,0.781
0.0016676978533706587,0.782
0.0016690626147626442,0.783
0.0016702962985371702,0.784
0.0016714053477393425,0.785
0.001672395268715044,0.786
0.0016732702608644654,0.787
0.0016740330796028544,0.788
0.0016746850411111314,0.789
0.0016752261750314287,0.79
0.0016756556258026194,0.791
0.001675972261135447,0.792
0.001676175315472516,0.793
0.0016762649060794081,0.794
0.001676242299307936,0.795
0.001676109849648941,0.796
0.001675870596962273,0.797
0.001675527602292531,0.798
0.001675083299686889,0.799
0.0016745392849242908,0.8
0.0016738966759728216,0.801
0.001673156714823655,0.802
0.0016723212550474478,0.803
0.0016713930409460718,0.804
0.0016703758052967752,0.805
0.0016692742167051518,0.806
0.0016680937040636288,0.807
0.001666840184214694,0.808
0.0016655197177086046,0.809
0.0016641381114732682,0.81
0.0016627004850899869,0.811
0.0016612108865050072,0.812
0.001659672155946502,0.813
0.0016580861389541323,0.814
0.0016564540763096855,0.815
0.0016547769362575133,0.816
0.0016530556004166743,0.817
0.0016512909163635993,0.818
0.001649483662972132,0.819
0.0016476344833652224,0.82
0.0016457438255353387,0.821
0.0016438118999194823,0.822
0.0016418386312248992,0.823
0.0016398235695733654,0.824
0.001637765743801978,0.825
0.0016356634713747687,0.826
0.0016335141552657308,0.827
0.0016313140853501265,0.828
0.001629058263086112,0.829
0.0016267403259858397,0.83
0.0016243526652328225,0.831
0.0016218867259527286,0.832
0.001619333386334935,0.833
0.0016166833255149946,0.834
0.0016139273428520465,0.835
0.001611056627248694,0.836
0.0016080629840881046,0.837
0.0016049390055081067,0.838
0.0016016781375976143,0.839
0.0015982745876440751,0.84
0.0015947230367821391,0.841
0.0015910181633840084,0.842
0.0015871540859636508,0.843
0.0015831240108379627,0.844
0.001578920340697535,0.845
0.0015745351702981028,0.846
0.0015699608955410446,0.847
0.0015651907599442078,0.848
0.0015602192741014773,0.849
0.0015550424576159664,0.85
0.0015496578451180396,0.851
0.0015440642038228405,0.852
0.0015382609389766072,0.853
0.0015322473381680986,0.854
0.0015260221193138682,0.855
0.0015195836589687278,0.856
0.001512930684665009,0.857
0.0015060629291480854,0.858
0.0014989814762803378,0.859
0.0014916887575362183,0.86
0.0014841882335540795,0.861
0.0014764838266700124,0.862
0.0014685792514866184,0.863
0.001460477560793163,0.864
0.0014521812067010292,0.865
0.0014436925493727152,0.866
0.0014350144657504337,0.867
0.001426150799172068,0.868
0.001417106574842865,0.869
0.0014078879956933707,0.87
0.001398502269749069,0.871
0.0013889573275314593,0.872
0.0013792614690475837,0.873
0.0013694229543260142,0.874
0.001359449567179562,0.875
0.0013493482817794982,0.876
0.001339125209989532,0.877
0.0013287858268893919,0.878
0.0013183352614392655,0.879
0.001307778477658276,0.88
0.0012971203351268357,0.881
0.0012863656062279086,0.882
0.0012755190415298322,0.883
0.0012645855464457367,0.884
0.0012535704754010517,0.885
0.0012424799898501269,0.886
0.0012313213842846066,0.887
0.0012201032694289335,0.888
0.0012088355175266367,0.889
0.0011975289218659865,0.89
0.0011861946131238627,0.891
0.0011748434591077267,0.892
0.0011634858146643684,0.893
0.0011521317400481471,0.894
0.0011407913827743141,0.895
0.0011294751987871612,0.896
0.0011181939461190587,0.897
0.0011069585152192296,0.898
0.0010957796759418904,0.899
0.0010846678152073566,0.9
0.0010736327194663332,0.901
0.0010626834325856388,0.902
0.0010518282019932957,0.903
0.0010410745179755428,0.904
0.0010304292473382389,0.905
0.0010198988516644583,0.906
0.0010094896583925815,0.907
0.0009992081319013062,0.908
0.0009890610869921642,0.909
0.0009790557987482953,0.91
0.0009691999785218637,0.911
0.0009595016005292493,0.912
0.000949968590383877,0.913
0.0009406084857798519,0.914
0.0009314283032310593,0.915
0.0009224347373380487,0.916
0.000913634541725176,0.917
0.0009050348823332316,0.918
0.0008966435823491888,0.919
0.0008884692371187876,0.92
0.000880521174588607,0.921
0.0008728092437693151,0.922
0.0008653434461092834,0.923
0.0008581335323258066,0.924
0.0008511888013365959,0.925
0.0008445181956846044,0.926
0.0008381304917835188,0.927
0.0008320343598638929,0.928
0.0008262382579588397,0.929
0.0008207502367327848,0.93
0.000815577766438989,0.931
0.0008107276638665873,0.932
0.0008062060916763544,0.933
0.0008020185871281028,0.934
0.0007981701758870729,0.935
0.000794665613094001,0.936
0.0007915096568683616,0.937
0.0007887072335903641,0.938
0.0007862634210219422,0.939
0.0007841832516028828,0.94
0.0007824714419846398,0.941
0.0007811322576744052,0.942
0.000780169614910673,0.943
0.0007795872754186826,0.944
0.0007793889557504313,0.945
0.0007795783203598015,0.946
0.0007801589078624655,0.947
0.0007811340372273057,0.948
0.000782506714070656,0.949
0.0007842795265053691,0.95
0.0007864545309739402,0.951
0.0007890331945796897,0.952
0.000792016459457175,0.953
0.0007954048778396955,0.954
0.0007991987015814479,0.955
0.0008033978658489431,0.956
0.0008080018773575201,0.957
0.0008130096686693139,0.958
0.0008184195160191001,0.959
0.0008242290669561713,0.96
0.0008304354197593474,0.961
0.0008370351848187741,0.962
0.0008440245171435777,0.963
0.000851399133147033,0.964
0.0008591543182902422,0.965
0.0008672849273333336,0.966
0.0008757853803281078,0.967
0.00088464966061994,0.968
0.0008938713179913965,0.969
0.0009034434702244149,0.97
0.000913358788456914,0.971
0.0009236094531821904,0.972
0.000934187076730476,0.973
0.0009450825998203619,0.974
0.0009562861964364824,0.975
0.0009677872542125868,0.976
0.0009795744714498644,0.977
0.000991636034031082,0.978
0.0010039598040695887,0.979
0.001016533479290917,0.98
0.0010293447169059024,0.981
0.0010423812417077417,0.982
0.001055630961534584,0.983
0.0010690820866568205,0.984
0.0010827232142455526,0.985
0.0010965433218258548,0.986
0.001110531626047228,0.987
0.0011246772982825206,0.988
0.0011389691017214248,0.989
0.0011533951261078431,0.99
0.001167942795614222,0.991
0.0011825991342585846,0.992
0.0011973511273281813,0.993
0.001212186059295285,0.994
0.0012270917829313188,0.995
0.0012420568855474076,0.996
0.0012570707150023686,0.997
0.001272123242042324,0.998
0.0012872047623212466,0.999
0.0013023054677905332,1.0
0.001317414990784872,1.001
0.0013325221520081962,1.002
0.0013476150834214882,1.003
0.001362681607190983,1.004
0.0013777096141069963,1.005
0.00139268729134422,1.006
0.0014076031611184735,1.007
0.0014224459418738665,1.008
0.0014372042692238857,1.009
0.0014518663198249244,1.01
0.0014664194281566786,1.011
0.0014808498906584387,1.012
0.0014951431050092788,1.013
0.0015092839574867875,1.014
0.0015232572607104845,1.015
0.0015370481152709304,1.016
0.001550642130992193,1.017
0.0015640254746074117,1.018
0.0015771847506418982,1.019
0.0015901067541411768,1.02
0.001602778137828731,1.021
0.0016151850115647896,1.022
0.0016273125466162248,1.023
0.001639144836448231,1.024
0.0016506652352811862,1.025
0.0016618570658702794,1.026
0.0016727044265835377,1.027
0.0016831929279189156,1.028
0.0016933102650153048,1.029
0.001703046549469305,1.03
0.0017123943446510127,1.031
0.0017213483766031956,1.032
0.0017299049279552745,1.033
0.0017380609613797233,1.034
0.0017458131836435601,1.035
0.0017531575458053356,1.036
0.0017600895295294219,1.037
0.0017666049513305635,1.038
0.0017727007802736366,1.039
0.0017783757315953965,1.04
0.0017836306085391585,1.041
0.001788468416386901,1.042
0.0017928942828603128,1.043
0.001796915207231068,1.044
0.0018005396434455014,1.045
0.0018037769186966342,1.046
0.0018066365062160514,1.047
0.0018091272766902534,1.048
0.001811257032796477,1.049
0.0018130325474657284,1.05
0.0018144599356509368,1.051
0.0018155450322587389,1.052
0.0018162936466403334,1.053
0.0018167117341814807,1.054
0.0018168055471834564,1.055
0.0018165817920815115,1.056
0.0018160477755788398,1.057
0.0018152114892721937,1.058
0.0018140815702364324,1.059
0.0018126670830894934,1.06
0.0018109770920484152,1.061
0.0018090200975478343,1.062
0.001806803642866467,1.063
0.0018043344338722377,1.064
0.0018016189349013797,1.065
0.0017986640700447096,1.066
0.0017954777302850778,1.067
0.0017920689892968902,1.068
0.0017884480324874441,1.069
0.0017846258445243378,1.07
0.0017806137203572256,1.071
0.0017764226688300078,1.072
0.001772062830498242,1.073
0.001767543148117259,1.074
0.001762871476039284,1.075
0.0017580550398117584,1.076
0.0017531010201830878,1.077
0.0017480171247959994,1.078
0.0017428120819720653,1.079
0.0017374959875638522,1.08
0.0017320804303905843,1.081
0.0017265783377803342,1.082
0.001721003522475969,1.083
0.0017153699713182951,1.084
0.0017096910758187093,1.085
0.0017039792079307796,1.086
0.0016982458434537957,1.087
0.0016925019253122603,1.088
0.0016867580782314862,1.089
0.001681024593174228,1.09
0.0016753112726727712,1.091
0.0016696272413291302,1.092
0.001663980806548829,1.093
0.0016583794222883403,1.094
0.0016528297724654516,1.095
0.001647337953478337,1.096
0.0016419097000937894,1.097
0.0016365505765920504,1.098
0.0016312660630791933,1.099
0.0016260615113675102,1.1
0.0016209420033515094,1.101
0.0016159121803440122,1.102
0.0016109761055335618,1.103
0.001606137185088403,1.104
0.001601398132987046,1.105
0.001596760942796163,1.106
0.0015922268339276936,1.107
0.0015877961610053987,1.108
0.001583468294395945,1.109
0.001579241482678441,1.11
0.0015751127171340807,1.111
0.0015710776762896065,1.112
0.00156713086862877,1.113
0.0015632660179447676,1.114
0.0015594766292552004,1.115
0.0015557566398725778,1.116
0.0015521010629992438,1.117
0.00154850652728276,1.118
0.0015449716213365283,1.119
0.0015414969796603833,1.12
0.0015380850911912902,1.121
0.0015347398604339557,1.122
0.0015314659886254594,1.123
0.001528268261583521,1.124
0.0015251508847093829,1.125
0.001522117100802144,1.126
0.0015191692432565032,1.127
0.0015163090940189627,1.128
0.0015135382950095344,1.129
0.0015108586731225942,1.13
0.0015082724438525267,1.131
0.0015057823069262333,1.132
0.0015033914853283703,1.133
0.0015011037725730682,1.134
0.0014989236283553726,1.135
0.0014968563137601684,1.136
0.0014949080100762461,1.137
0.001493085838219508,1.138
0.0014913976955606165,1.139
0.0014898518557960277,1.14
0.0014884563971777306,1.141
0.001487218757871669,1.142
0.0014861457494656889,1.143
0.0014852439759705449,1.144
0.0014845202728773562,1.145
0.0014839818726042325,1.146
0.0014836362421682089,1.147
0.00148349067393558,1.148
0.0014835517864765968,1.149
0.0014838251282367717,1.15
0.001484314981375752,1.151
0.001485024311628322,1.152
0.0014859548224862578,1.153
0.001487107138479158,1.154
0.0014884810668521547,1.155
0.0014900758281844006,1.156
0.0014918902018459176,1.157
0.0014939225835230434,1.158
0.0014961709625606417,1.159
0.0014986328314411184,1.16
0.0015013050563594272,1.161
0.0015041837605864717,1.162
0.0015072642746823957,1.163
0.0015105411741921937,1.164
0.0015140083722786062,1.165
0.0015176591945653068,1.166
0.0015214863560761693,1.167
0.001525481796632374,1.168
0.0015296364642701274,1.169
0.0015339402998916136,1.17
0.0015383825879784051,1.171
0.0015429525481842625,1.172
0.001547639952598383,1.173
0.0015524356620908496,1.174
0.001557332037749737,1.175
0.0015623231904289415,1.176
0.0015674050389412873,1.177
0.0015725751586714133,1.178
0.0015778324168966794,1.179
0.0015831764083450014,1.18
0.0015886067462531877,1.181
0.0015941224053116756,1.182
0.0015997214418230778,1.183
0.0016054011922232848,1.184
0.0016111586665487137,1.185
0.0016169908651553196,1.186
0.0016228950117000895,1.187
0.0016288687957242813,1.188
0.0016349106698828706,1.189
0.0016410201747527906,1.19
0.0016471982068921643,1.191
0.0016534471208656217,1.192
0.0016597705628766078,1.193
0.0016661729688089962,1.194
0.0016726588213791175,1.195
0.0016792320970824663,1.196
0.0016858963799300142,1.197
0.0016926555642192277,1.198
0.0016995145850140954,1.199
0.0017064797143738438,1.2
0.0017135582576451767,1.201
0.001720757803563671,1.202
0.0017280856511501235,1.203
0.0017355490710675978,1.204
0.0017431562966353717,1.205
0.0017509175319886325,1.206
0.0017588454320902104,1.207
0.0017669549050486342,1.208
0.0017752623137001638,1.209
0.0017837843706010954,1.21
0.0017925373021406177,1.211
0.001801536765752751,1.212
0.0018107983774691759,1.213
0.0018203383036987685,1.214
0.0018301735800989069,1.215
0.001840322131461721,1.216
0.0018508025737603506,1.217
0.0018616338870345547,1.218
0.0018728350245018524,1.219
0.0018844244862204088,1.22
0.0018964198648961,1.221
0.0019088374223378195,1.222
0.001921691830630669,1.223
0.0019349961111747229,1.224
0.0019487616779505555,1.225
0.001962998539615841,1.226
0.0019777157918610655,1.227
0.0019929222794214593,1.228
0.0020086271238387134,1.229
0.0020248398698334115,1.23
0.002041570130377904,1.231
0.002058826906500297,1.232
0.002076618188365212,1.233
0.002094951280156887,1.234
0.0021138335069605194,1.235
0.0021332726678524486,1.236
0.0021532769591006543,1.237
0.0021738544078886133,1.238
0.0021950120970415507,1.239
0.0022167556925677986,1.24
0.0022390895321891305,1.241
0.0022620169384641254,1.242
0.00228554032677971,1.243
0.0023096610214519346,1.244
0.0023343788956758102,1.245
0.0023596920189842214,1.246
0.002385596501555531,1.247
0.0024120865685784117,1.248
0.0024391547296416147,1.249
0.0024667919422927493,1.25
0.002494987789200922,1.251
0.0025237307208870246,1.252
0.002553008390280495,1.253
0.0025828080811486974,1.254
0.002613117219610192,1.255
0.0026439239474717216,1.256
0.002675217710190798,1.257
0.002706989763631404,1.258
0.0027392334498834115,1.259
0.0027719440696271857,1.26
0.00280511821643835,1.261
0.0028387526500004505,1.262
0.002872843293560463,1.263
0.0029073852144556917,1.264
0.002942373771475042,1.265
0.0029778062177605014,1.266
0.0030136830369740636,1.267
0.0030500087601903884,1.268
0.0030867922502896493,1.269
0.0031240465009468826,1.27
0.003161788030205723,1.271
0.003200035964601237,1.272
0.0032388109152773213,1.273
0.0032781337433772867,1.274
0.0033180243229042356,1.275
0.003358500535862802,1.276
0.0033995778655908186,1.277
0.0034412696800314594,1.278
0.0034835878199261194,1.279
0.003526543084508928,1.28
0.0035701454984893933,1.281
0.0036144043935985343,1.282
0.0036593283699050015,1.283
0.0037049252181726436,1.284
0.00375120187846694,1.285
0.0037981644828818635,1.286
0.0038458184867148355,1.287
0.0038941688441166203,1.288
0.003943220150231597,1.289
0.003992976669084372,1.29
0.004043442195800521,1.291
0.004094619743634809,1.292
0.004146511074228914,1.293
0.004199116093701413,1.294
0.004252432144760633,1.295
0.0043064533410644866,1.296
0.004361170249130196,1.297
0.004416570043877352,1.298
0.0044726368548937585,1.299
0.004529351976267222,1.3
0.004586693873312858,1.301
0.004644638072849563,1.302
0.004703157052879092,1.303
0.004762220241385758,1.304
0.004821794204079652,1.305
0.004881843058212303,1.306
0.0049423290979518876,1.307
0.005003213559693645,1.308
0.005064457403747996,1.309
0.005126021958632562,1.31
0.005187869278937408,1.311
0.005249962105692072,1.312
0.005312263370282069,1.313
0.005374735230611467,1.314
0.0054373377420289665,1.315
0.00550002763804306,1.316
0.005562758024598868,1.317
0.0056254792914269,1.318
0.005688140644675146,1.319
0.005750691551295924,1.32
0.0058130828197165,1.321
0.00587526726752459,1.322
0.00593719998689195,1.323
0.005998838264352543,1.324
0.006060141216157972,1.325
0.00612106916507413,1.326
0.0061815827311458545,1.327
0.0062416415614180935,1.328
0.006301202771663958,1.329
0.006360219764393441,1.33
0.006418642469088013,1.331
0.006476419247589339,1.332
0.006533499536977001,1.333
0.006589836124071974,1.334
0.006645386393772844,1.335
0.006700112246061744,1.336
0.006753978696208593,1.337
0.0068069514984179,1.338
0.006858994431573021,1.339
0.006910067235023299,1.34
0.006960125131006905,1.341
0.0070091199779483485,1.342
0.0070570022874270714,1.343
0.007103723450442534,1.344
0.007149237836719805,1.345
0.007193504356897897,1.346
0.007236486944445071,1.347
0.007278153490591825,1.348
0.007318473208717521,1.349
0.007357413721076596,1.35
0.007394940443820004,1.351
0.007431019438021892,1.352
0.007465621870460011,1.353
0.007498727588936133,1.354
0.007530326662337557,1.355
0.0075604185955873635,1.356
0.007589009315972782,1.357
0.0076161067527650665,1.358
0.007641717054330496,1.359
0.0076658436314068525,1.36
0.007688488915571907,1.361
0.0077096565834526695,1.362
0.007729352589898737,1.363
0.0077475849438205955,1.364
0.007764362826073295,1.365
0.0077796956811241715,1.366
0.007793592736318655,1.367
0.00780606305931199,1.368
0.007817115869544467,1.369
0.007826760534218616,1.37
0.007835005634430523,1.371
0.007841857120826684,1.372
0.007847317003050745,1.373
0.007851384328413442,1.374
0.007854058252190647,1.375
0.007855341367764664,1.376
0.007855241917099732,1.377
0.00785377453730384,1.378
0.007850959670363783,1.379
0.007846821876854392,1.38
0.007841387286326837,1.381
0.007834680586772821,1.382
0.00782672266757761,1.383
0.007817530415752214,1.384
0.00780711889819814,1.385
0.007795504517842534,1.386
0.007782707723696991,1.387
0.007768754732273061,1.388
0.007753678176669502,1.389
0.007737516752337004,1.39
0.007720314024011674,1.391
0.00770211657926016,1.392
0.007682971678017794,1.393
0.0076629246233947635,1.394
0.007642016638864674,1.395
0.0076202845610063635,1.396
0.007597762751972115,1.397
0.007574486001274822,1.398
0.007550491892120063,1.399
0.007525821883534742,1.4
0.007500520992558632,1.401
0.007474636414332575,1.402
0.007448215750328157,1.403
0.007421305533754532,1.404
0.0073939504477210935,1.405
0.00736619320715379,1.406
0.007338074733652008,1.407
0.00730963411365256,1.408
0.007280907910405644,1.409
0.00725192887011219,1.41
0.007222724908872928,1.411
0.0071933193764290825,1.412
0.007163732383881172,1.413
0.0071339820532317424,1.414
0.007104084934736835,1.415
0.007074055594822162,1.416
0.007043905781222129,1.417
0.007013643724267438,1.418
0.006983274112698268,1.419
0.006952799069590867,1.42
0.006922220084014625,1.421
0.006891540439691948,1.422
0.00686076738291331,1.423
0.006829913210830664,1.424
0.00679899465441966,1.425
0.0067680304589836674,1.426
0.006737038457046957,1.427
0.006706034837390892,1.428
0.006675036873183956,1.429
0.00664406710304143,1.43
0.006613156291441129,1.431
0.006582344150249861,1.432
0.006551677970677437,1.433
0.006521209772107689,1.434
0.006490992781602789,1.435
0.00646107815368758,1.436
0.006431512913757768,1.437
0.006402339626286282,1.438
0.00637359730882082,1.439
0.006345322798097508,1.44
0.006317552220942504,1.441
0.0062903224546845046,1.442
0.006263672317616249,1.443
0.006237643121798719,1.444
0.006212278305189074,1.445
0.0061876220867774865,1.446
0.006163717410886118,1.447
0.006140603955933002,1.448
0.006118317272872818,1.449
0.006096889300779978,1.45
0.0060763493127191535,1.451
0.0060567243790818,1.452
0.006038039231887313,1.453
0.00602031582031107,1.454
0.006003572899995769,1.455
0.005987825921287643,1.456
0.005973087291008623,1.457
0.005959366880252051,1.458
0.00594667255578816,1.459
0.005935010559997067,1.46
0.005924385676158824,1.461
0.005914801174129246,1.462
0.0059062584807650816,1.463
0.005898756420087268,1.464
0.005892290197977843,1.465
0.005886851147703984,1.466
0.005882428079373877,1.467
0.005879009581942678,1.468
0.005876585939075638,1.469
0.005875149897272024,1.47
0.005874696138461273,1.471
0.005875219698319632,1.472
0.0058767138536287445,1.473
0.005879168165170597,1.474
0.005882567270360369,1.475
0.005886890511828653,1.476
0.005892112206232638,1.477
0.005898202562569942,1.478
0.0059051290944109516,1.479
0.005912857887395691,1.48
0.005921353983432307,1.481
0.0059305806548004564,1.482
0.005940498576923509,1.483
0.005951066630753622,1.484
0.005962244715482579,1.485
0.005973997062598955,1.486
0.005986294396575908,1.487
0.005999114280466054,1.488
0.006012439795908078,1.489
0.006026257171674888,1.49
0.006040553118928712,1.491
0.006055312443905179,1.492
0.006070516236848594,1.493
0.006086140872787175,1.494
0.0061021580415478414,1.495
0.006118535726997858,1.496
0.006135239743479278,1.497
0.006152235420111711,1.498
0.0061694890825952295,1.499
0.006186968968879474,1.5
0.006204645261947358,1.501
0.006222489100806241,1.502
0.006240470703737519,1.503
0.0062585572020791725,1.504
0.006276711166526963,1.505
0.006294890164537787,1.506
0.0063130468197642375,1.507
0.006331129472778729,1.508
0.00634908408105183,1.509
0.006366856941519154,1.51
0.00638439702584842,1.511
0.006401657058671327,1.512
0.006418592996907281,1.513
0.006435161962026361,1.514
0.006451319478430305,1.515
0.006467018003124494,1.516
0.006482208103392281,1.517
0.006496841259596518,1.518
0.006510872492738219,1.519
0.006524262151698522,1.52
0.006536977010281679,1.521
0.006548990949315115,1.522
0.006560285374141574,1.523
0.006570849268332806,1.524
0.006580678576711347,1.525
0.0065897745829807544,1.526
0.006598141132185448,1.527
0.006605781326434328,1.528
0.006612695581176118,1.529
0.006618882566010455,1.53
0.006624342261654857,1.531
0.006629079308407591,1.532
0.006633105677087946,1.533
0.006636442398703116,1.534
0.006639120189076252,1.535
0.006641178836913092,1.536
0.006642665326943166,1.537
0.006643630838038198,1.538
0.0066441271307758265,1.539
0.006644203573852274,1.54
0.006643906211404897,1.541
0.0066432787764089275,1.542
0.006642364015023563,1.543
0.006641204056980155,1.544
0.0066398397552557544,1.545
0.006638309456833878,1.546
0.006636647741832136,1.547
0.0066348846370525025,1.548
0.006633045696537081,1.549
0.006631153144253644,1.55
0.006629227992435812,1.551
0.006627292722488615,1.552
0.0066253738308885745,1.553
0.006623503412447937,1.554
0.006621719070482155,1.555
0.006620061823202619,1.556
