VaMe,time
0.001981798748874886,0.001
0.0021853265878621444,0.002
0.00238994241904333,0.003
0.0025954219526613588,0.004
0.002801556696129085,0.005
0.0030081596335731534,0.006
0.0032150679335397254,0.007
0.0034221425406780856,0.008
0.0036292649997090947,0.009
0.0038363322483232656,0.01
0.004043250378110003,0.011
0.004249928745798709,0.012
0.004456276050943464,0.013
0.0046621987366943715,0.014
0.004867600472345582,0.015
0.005072382290061631,0.016
0.00527644397470166,0.017
0.0054796860037979135,0.018
0.005682010290586829,0.019
0.0058833191152540395,0.02
0.006083513977554761,0.021
0.0062824971260975835,0.022
0.006480176304996796,0.023
0.006676470511777935,0.024
0.006871314353006292,0.025
0.007064659674859125,0.026
0.007256473886396837,0.027
0.007446734948107823,0.028
0.007635424774372588,0.029
0.007822525542081132,0.03
0.00800802188149489,0.031
0.008191906058954921,0.032
0.008374181216781292,0.033
0.008554860540234088,0.034
0.008733962821524522,0.035
0.00891150696486473,0.036
0.009087509276571372,0.037
0.009261984737335234,0.038
0.009434949099299764,0.039
0.00960641840466559,0.04
0.00977640614211075,0.041
0.009944921619221952,0.042
0.010111972163205323,0.043
0.010277567195099308,0.044
0.01044172047144831,0.045
0.010604448818080767,0.046
0.010765768272603051,0.047
0.01092569103817258,0.048
0.011084226378968234,0.049
0.01124138454945586,0.05
0.011397180320801979,0.051
0.011551633945456583,0.052
0.011704769255871567,0.053
0.011856609582260326,0.054
0.012007173434056143,0.055
0.012156472795483876,0.056
0.012304514891918805,0.057
0.01245130497563025,0.058
0.012596847380421926,0.059
0.012741143970004568,0.06
0.012884190982824065,0.061
0.013025977253156192,0.062
0.013166486307457426,0.063
0.01330570125016564,0.064
0.013443609413710244,0.065
0.013580204716847784,0.066
0.013715486798284002,0.067
0.013849456863231267,0.068
0.013982112415257495,0.069
0.01411344552249943,0.07
0.014243447055505839,0.071
0.014372113829982576,0.072
0.01449945432218901,0.073
0.014625491233898086,0.074
0.014750260882052123,0.075
0.014873809937528806,0.076
0.014996190368784591,0.077
0.015117453526650657,0.078
0.015237644474685947,0.079
0.015356798195365182,0.08
0.015474938995700786,0.081
0.015592082590778792,0.082
0.015708239093218668,0.083
0.015823415754395997,0.084
0.015937619193548996,0.085
0.01605085701523417,0.086
0.016163138627808715,0.087
0.016274475080815077,0.088
0.016384877867067996,0.089
0.016494356868552103,0.09
0.016602917898141726,0.091
0.016710560483532273,0.092
0.016817276505922713,0.093
0.01692304993600306,0.094
0.017027857251181243,0.095
0.01713166743792699,0.096
0.017234440649270526,0.097
0.017336126758873992,0.098
0.017436667317355343,0.099
0.01753600257394722,0.1
0.01763408089444606,0.101
0.017730866459688105,0.102
0.017826342425191242,0.103
0.017920508056329894,0.104
0.018013370455731387,0.105
0.018104936076687086,0.106
0.018195209842674243,0.107
0.018284203534693726,0.108
0.018371946343201266,0.109
0.018458490058925765,0.11
0.0185439062510402,0.111
0.018628276793517827,0.112
0.018711683713308287,0.113
0.018794206726390313,0.114
0.018875930189580448,0.115
0.01895695207583799,0.116
0.019037387601263982,0.117
0.019117365781494616,0.118
0.019197020668471246,0.119
0.019276481382584133,0.12
0.019355866827345573,0.121
0.019435287360405566,0.122
0.01951484925309749,0.123
0.019594657276474466,0.124
0.019674814493978458,0.125
0.019755419976883643,0.126
0.019836565008201096,0.127
0.019918328791080454,0.128
0.020000775987911425,0.129
0.02008395789945766,0.13
0.020167916025738558,0.131
0.020252685098761287,0.132
0.0203382936459355,0.133
0.020424761635779637,0.134
0.020512097016594347,0.135
0.020600295106837297,0.136
0.020689342662603152,0.137
0.02077922362170629,0.138
0.020869922433422092,0.139
0.02096142317471649,0.14
0.021053704893723314,0.141
0.021146736402046368,0.142
0.021240475443095704,0.143
0.021334873615684917,0.144
0.02142988306480507,0.145
0.02152546052947128,0.146
0.021621567150948384,0.147
0.021718164120673726,0.148
0.021815205881234243,0.149
0.021912635478137075,0.15
0.0220103864684844,0.151
0.02210839044454964,0.152
0.02220658529677323,0.153
0.022304920414352333,0.154
0.022403357237665632,0.155
0.022501864810472637,0.156
0.022600411438500837,0.157
0.022698956321869777,0.158
0.022797446442861167,0.159
0.022895819644272418,0.16
0.022994009047213052,0.161
0.02309194449304774,0.162
0.023189550854026825,0.163
0.02328674514542451,0.164
0.02338343448391688,0.165
0.023479516323466045,0.166
0.02357488134788231,0.167
0.023669418264985455,0.168
0.023763018880753297,0.169
0.023855581500253627,0.17
0.023947010990291766,0.171
0.02403721461252541,0.172
0.024126094592852823,0.173
0.024213541851233162,0.174
0.024299436408210744,0.175
0.02438365498053662,0.176
0.024466081033249678,0.177
0.02454661315696395,0.178
0.024625170528306636,0.179
0.024701695334230587,0.18
0.024776152119858452,0.181
0.024848524102337892,0.182
0.024918806710292226,0.183
0.024986998930338192,0.184
0.02505309368285068,0.185
0.02511707003855012,0.186
0.025178890979442824,0.187
0.025238507432660543,0.188
0.025295865257420495,0.189
0.025350911975512036,0.19
0.025403602398434713,0.191
0.025453903258701397,0.192
0.02550179687314609,0.193
0.025547283602458237,0.194
0.025590382531958087,0.195
0.0256311296483323,0.196
0.0256695729943268,0.197
0.025705764729030727,0.198
0.025739751478343422,0.199
0.02577156756875163,0.2
0.025801236520149314,0.201
0.025828780868961412,0.202
0.025854235081806835,0.203
0.025877656593855717,0.204
0.02589913235675089,0.205
0.025918779493446772,0.206
0.02593673963773782,0.207
0.025953167860935197,0.208
0.025968219017519903,0.209
0.025982036953622528,0.21
0.02599475177339742,0.211
0.02600648476660477,0.212
0.026017355911376095,0.213
0.026027490158051166,0.214
0.026037021541610285,0.215
0.026046094843341097,0.216
0.026054864435154278,0.217
0.026063490209350577,0.218
0.026072130941886776,0.219
0.02608093624822203,0.22
0.026090040032779673,0.221
0.02609955908997733,0.222
0.026109597299743693,0.223
0.026120251768070597,0.224
0.026131617234135,0.225
0.026143787242681096,0.226
0.026156851760859145,0.227
0.026170891639415186,0.228
0.026185972183029056,0.229
0.026202140075546488,0.23
0.02621942551172463,0.231
0.026237846151458733,0.232
0.026257408754929434,0.233
0.026278107366436803,0.234
0.026299919368848484,0.235
0.02632280268293911,0.236
0.026346697079143565,0.237
0.026371528991681423,0.238
0.026397216871013457,0.239
0.026423674994518302,0.24
0.02645081502525235,0.241
0.026478545149894516,0.242
0.02650676685281661,0.243
0.026535369770360775,0.244
0.026564226740224524,0.245
0.026593193136617406,0.246
0.026622112488558926,0.247
0.02665082536582195,0.248
0.026679176961800468,0.249
0.02670702052320955,0.25
0.026734215130190236,0.251
0.026760618142911665,0.252
0.02678607694034037,0.253
0.02681042737436148,0.254
0.026833500755977378,0.255
0.026855132585016078,0.256
0.026875165615119975,0.257
0.026893444836675547,0.258
0.026909808057803228,0.259
0.02692408192434116,0.26
0.026936089742967552,0.261
0.026945665353747577,0.262
0.026952663595993142,0.263
0.02695696339025152,0.264
0.026958463310971393,0.265
0.026957070717803,0.266
0.02695268846454133,0.267
0.026945207994029576,0.268
0.026934514925663393,0.269
0.026920502607641134,0.27
0.026903085177194083,0.271
0.026882206057641175,0.272
0.026857840997971474,0.273
0.026829995501057573,0.274
0.026798696926350174,0.275
0.026763981913363672,0.276
0.026725882510344294,0.277
0.02668441939398875,0.278
0.026639607696674224,0.279
0.026591469818900707,0.28
0.02654004563916317,0.281
0.026485395298182706,0.282
0.026427593568418572,0.283
0.02636671813331526,0.284
0.02630283944422748,0.285
0.02623602021799683,0.286
0.02616632349948194,0.287
0.026093820420516837,0.288
0.026018590912956923,0.289
0.025940716858356465,0.29
0.025860273400736558,0.291
0.025777327887280713,0.292
0.025691949909187387,0.293
0.025604225395467008,0.294
0.02551426606689465,0.295
0.02542221069303629,0.296
0.025328218183604315,0.297
0.025232454736964793,0.298
0.02513508071801268,0.299
0.025036245010993764,0.3
0.024936088985290147,0.301
0.02483475377391325,0.302
0.02473238457127077,0.303
0.024629130997342413,0.304
0.024525145151469585,0.305
0.024420579136378746,0.306
0.024315583446699793,0.307
0.02421030683508976,0.308
0.024104897318947795,0.309
0.023999503129332043,0.31
0.023894271906530984,0.311
0.02378934663655979,0.312
0.02368485962190138,0.313
0.023580930582149863,0.314
0.023477673488468045,0.315
0.023375208499087433,0.316
0.023273672135898687,0.317
0.023173222042836946,0.318
0.023074035311868663,0.319
0.022976300691896708,0.32
0.02288020730137815,0.321
0.02278593589926886,0.322
0.02269365824636316,0.323
0.022603543103735583,0.324
0.02251576237693261,0.325
0.022430493079177688,0.326
0.022347914718457842,0.327
0.022268203489834427,0.328
0.022191525314269246,0.329
0.02211803003506654,0.33
0.022047848262035253,0.331
0.021981090789739935,0.332
0.02191785030854494,0.333
0.021858205615572293,0.334
0.021802227437523608,0.335
0.021749983630288145,0.336
0.02170154151456389,0.337
0.02165696577574401,0.338
0.02161631309321146,0.339
0.02157962953681143,0.34
0.02154695597681482,0.341
0.021518338788076557,0.342
0.021493839212525075,0.343
0.02147353768490737,0.344
0.021457532526343758,0.345
0.021445933915353762,0.346
0.021438855000461655,0.347
0.02143640249850879,0.348
0.02143866923416129,0.349
0.02144573022704274,0.35
0.021457641649700685,0.351
0.021474440520489125,0.352
0.021496144295189146,0.353
0.02152275138458747,0.354
0.021554243938290234,0.355
0.02159059355889731,0.356
0.021631769624994975,0.357
0.021677748799290887,0.358
0.021728523426730696,0.359
0.02178410630094827,0.36
0.021844529940851655,0.361
0.02190983993328523,0.362
0.021980084206531986,0.363
0.022055303306274785,0.364
0.022135527118680283,0.365
0.022220777759231355,0.366
0.022311072943115833,0.367
0.022406425754193215,0.368
0.022506841048693882,0.369
0.022612310590877812,0.37
0.02272280902689878,0.371
0.022838292145999035,0.372
0.022958697829044902,0.373
0.023083949042993043,0.374
0.023213957595159904,0.375
0.02334862734182057,0.376
0.023487856126555247,0.377
0.023631536619203315,0.378
0.023779556967805756,0.379
0.023931802303614313,0.38
0.024088157485059512,0.381
0.024248510334875455,0.382
0.02441275364505748,0.383
0.024580783941803977,0.384
0.024752495907691786,0.385
0.02492777508722518,0.386
0.025106496103316098,0.387
0.0252885306343197,0.388
0.025473760424490496,0.389
0.025662087971847596,0.39
0.025853441363011317,0.391
0.026047772504982507,0.392
0.02624504922841381,0.393
0.026445243001931615,0.394
0.02664831652222873,0.395
0.026854217687862,0.396
0.027062882080372115,0.397
0.027274238031541848,0.398
0.02748820747973488,0.399
0.027704701770062026,0.4
0.027923617870707518,0.401
0.02814484177206689,0.402
0.028368259307230765,0.403
0.02859376792475301,0.404
0.028821282954160046,0.405
0.02905073486541183,0.406
0.029282058659190296,0.407
0.029515184975128544,0.408
0.029750044904019803,0.409
0.029986588600420416,0.41
0.030224806199503934,0.411
0.030464741010147508,0.412
0.030706491520603917,0.413
0.030950202586884537,0.414
0.03119604814103305,0.415
0.03144421020330329,0.416
0.031694862874697395,0.417
0.03194816963939683,0.418
0.03220429316421348,0.419
0.03246340882459329,0.42
0.032725714899800425,0.421
0.03299143702566062,0.422
0.03326082618285205,0.423
0.033534150151114724,0.424
0.033811679545252694,0.425
0.03409367272497744,0.426
0.034380367578300194,0.427
0.03467198377529822,0.428
0.03496872906087828,0.429
0.035270801861238536,0.43
0.03557838855197641,0.431
0.035891657153071355,0.432
0.036210750171100634,0.433
0.03653577972527547,0.434
0.03686682604682922,0.435
0.03720393727405503,0.436
0.03754712897393372,0.437
0.03789638502223908,0.438
0.03825166169955313,0.439
0.038612894076112035,0.44
0.038980002181626436,0.441
0.039352894708260255,0.442
0.03973146845941359,0.443
0.04011560301202852,0.444
0.04050515421005509,0.445
0.040899954264827794,0.446
0.04129982237338378,0.447
0.041704580938474234,0.448
0.04211407026556238,0.449
0.042528158146693154,0.45
0.04294674300997,0.451
0.04336974998888115,0.452
0.04379711971334151,0.453
0.04422879158071115,0.454
0.04466468955040825,0.455
0.04510472274468323,0.456
0.04554880419209567,0.457
0.045996877413100073,0.458
0.04644893849929125,0.459
0.046905046793672425,0.46
0.04736532080742974,0.461
0.04782991849847038,0.462
0.04829900832164533,0.463
0.04877274917688152,0.464
0.04925129433652523,0.465
0.04973481168679604,0.466
0.050223500095371534,0.467
0.05071759057737739,0.468
0.05121733213206575,0.469
0.05172296890466218,0.47
0.052234721185344266,0.471
0.052752780165254726,0.472
0.0532773125474551,0.473
0.05380846267859581,0.474
0.05434634672902661,0.475
0.054891044972345315,0.476
0.05544260072994505,0.477
0.05600102552797052,0.478
0.056566301701687124,0.479
0.057138377933207134,0.48
0.057717164739216585,0.481
0.05830253940357508,0.482
0.05889435909948908,0.483
0.05949247249885463,0.484
0.06009672280285038,0.485
0.06070694101955881,0.486
0.06132293219625355,0.487
0.06194446081634676,0.488
0.06257124282892818,0.489
0.06320294565403761,0.49
0.06383918973159809,0.491
0.06447954631455072,0.492
0.06512353225183387,0.493
0.06577060523993494,0.494
0.06642016281084326,0.495
0.06707154711113845,0.496
0.06772405566012313,0.497
0.06837695627511653,0.498
0.06902950286920403,0.499
0.06968094832789741,0.5
0.07033055120627939,0.501
0.07097757430936126,0.502
0.07162127490665031,0.503
0.0722608878598975,0.504
0.07289560672737479,0.505
0.07352457395569918,0.506
0.07414688805572363,0.507
0.07476162258712946,0.508
0.07536784684312618,0.509
0.07596464316960051,0.51
0.07655111920036851,0.511
0.0771264138347568,0.512
0.07768969639985548,0.513
0.07824015921107598,0.514
0.07877700433543114,0.515
0.07929942547953958,0.516
0.07980658664130666,0.517
0.08029760419387437,0.518
0.08077154504367247,0.519
0.081227447355714,0.52
0.08166435618678848,0.521
0.08208136253511375,0.522
0.08247763884155974,0.523
0.08285246580959116,0.524
0.08320524537286438,0.525
0.08353549557861788,0.526
0.08384282499852153,0.527
0.08412688789885463,0.528
0.08438733543697975,0.529
0.08462379698298053,0.53
0.08483591069696629,0.531
0.08502338039412224,0.532
0.0851860253186014,0.533
0.08532380930624643,0.534
0.08543684799971402,0.535
0.08552539592530208,0.536
0.08558981745562415,0.537
0.08563054675188451,0.538
0.08564804174035384,0.539
0.08564274042640678,0.54
0.0856150357086006,0.541
0.08556528064446592,0.542
0.08549381590040206,0.543
0.08540100137765927,0.544
0.08528724195355339,0.545
0.08515300500491474,0.546
0.08499882953133245,0.547
0.08482532737817883,0.548
0.08463317718325246,0.549
0.08442311114416914,0.55
0.0841958939721062,0.551
0.08395229319101552,0.552
0.08369304682110587,0.553
0.08341884835727344,0.554
0.08313036373336692,0.555
0.08282826786683807,0.556
0.08251327775352757,0.557
0.08218617039491957,0.558
0.08184778315070536,0.559
0.08149899789007012,0.56
0.08114071293989707,0.561
0.08077380984651837,0.562
0.08039912755404308,0.563
0.08001745694790416,0.564
0.07962955494778721,0.565
0.07923616340619084,0.566
0.07883801980294831,0.567
0.07843585513289834,0.568
0.07803037914127144,0.569
0.07762226003197316,0.57
0.07721211431828065,0.571
0.076800514453743,0.572
0.0763880014973109,0.573
0.07597508623129887,0.574
0.0755622381829171,0.575
0.0751498785668263,0.576
0.07473839043048527,0.577
0.0743281387000661,0.578
0.07391948319362748,0.579
0.07351277622414662,0.58
0.07310834687178133,0.581
0.07270648257807116,0.582
0.07230742133326261,0.583
0.07191135575247831,0.584
0.07151843648749659,0.585
0.07112876740420751,0.586
0.07074240097611491,0.587
0.07035934423354431,0.588
0.06997957173762959,0.589
0.06960303419372244,0.59
0.06922965617199724,0.591
0.06885932533890415,0.592
0.06849188509673032,0.593
0.06812714330383576,0.594
0.06776489702426927,0.595
0.06740496330521031,0.596
0.06704720733970217,0.597
0.06669156256019391,0.598
0.06633803790992476,0.599
0.0659867087046909,0.6
0.06563769031578416,0.601
0.06529110242654018,0.602
0.0649470453500283,0.603
0.06460560661420996,0.604
0.06426688990797706,0.605
0.06393104393100646,0.606
0.06359827819786965,0.607
0.06326886432340158,0.608
0.06294312551310062,0.609
0.0626214182263868,0.61
0.06230411000809629,0.611
0.06199155661137786,0.612
0.061684081692564285,0.613
0.06138196436852331,0.614
0.061085438030486224,0.615
0.06079469600574516,0.616
0.060509895546635224,0.617
0.060231155515089646,0.618
0.05995855010410984,0.619
0.05969210571923808,0.62
0.05943180393735043,0.621
0.05917758427713854,0.622
0.058929342608876986,0.623
0.05868693241560167,0.624
0.05845017596615569,0.625
0.05821888032227072,0.626
0.05799284870923251,0.627
0.05777188379048542,0.628
0.05755578487404992,0.629
0.05734434308759679,0.63
0.057137338111554505,0.631
0.05693453765964032,0.632
0.05673569803082423,0.633
0.05654056229436239,0.634
0.056348852813773165,0.635
0.056160259848494154,0.636
0.055974436844120914,0.637
0.05579101105721729,0.638
0.055609604012763714,0.639
0.05542985086738757,0.64
0.055251413897416744,0.641
0.05507399007823002,0.642
0.054897314070062195,0.643
0.054721158122491245,0.644
0.05454532945964538,0.645
0.05436966400194327,0.646
0.054194013599977366,0.647
0.05401822719829704,0.648
0.05384213846128874,0.649
0.053665577566700165,0.65
0.053488407766455526,0.651
0.05331056803882613,0.652
0.05313210292368467,0.653
0.05295316993788806,0.654
0.05277402249449842,0.655
0.05259497244966685,0.656
0.052416345892373546,0.657
0.05223845544030645,0.658
0.052061601149132095,0.659
0.051886085149882084,0.66
0.05171221960137432,0.661
0.05154032333358379,0.662
0.05137071271143535,0.663
0.05120369311396864,0.664
0.05103955533642233,0.665
0.050878577995876265,0.666
0.0507210339674889,0.667
0.05056719707474456,0.668
0.05041734515641745,0.669
0.050271756987096884,0.67
0.050130702597535826,0.671
0.04999442980346764,0.672
0.04986315417148261,0.673
0.049737059127111065,0.674
0.04961630467957171,0.675
0.04950103735462069,0.676
0.04939139627804149,0.677
0.049287514481687375,0.678
0.04918951609118944,0.679
0.04909751033535032,0.68
0.04901158327206178,0.681
0.04893178884487646,0.682
0.04885814293736585,0.683
0.04879062370250242,0.684
0.04872917655189183,0.685
0.048673718686632256,0.686
0.048624139556595655,0.687
0.048580296927238434,0.688
0.04854201172825704,0.689
0.048509066944453054,0.69
0.04848121228900159,0.691
0.04845817039288973,0.692
0.04843963917266729,0.693
0.048425288799039665,0.694
0.048414757884595136,0.695
0.048407657671169155,0.696
0.048403587274501926,0.697
0.048402152497041794,0.698
0.04840297775648671,0.699
0.04840570449064289,0.7
0.04840997666595496,0.701
0.048415426332142915,0.702
0.048421676623611555,0.703
0.048428363427226874,0.704
0.048435159553987965,0.705
0.04844178729209602,0.706
0.048448015989996915,0.707
0.04845364737717814,0.708
0.04845849346468017,0.709
0.048462353563537806,0.71
0.04846499906047013,0.711
0.048466172086893015,0.712
0.048465595660995606,0.713
0.04846298829016364,0.714
0.04845807913977041,0.715
0.04845062283438831,0.716
0.04844041214554989,0.717
0.048427284849339954,0.718
0.04841112017696237,0.719
0.048391821557838076,0.72
0.04836929145360722,0.721
0.04834341899966605,0.722
0.048314095213570024,0.723
0.04828124294094556,0.724
0.048244839099729486,0.725
0.04820491939472109,0.726
0.048161565723663854,0.727
0.048114880559513386,0.728
0.04806495830309897,0.729
0.04801186950022399,0.73
0.047955665588696836,0.731
0.04789639402171237,0.732
0.04783411135588427,0.733
0.04776889195174162,0.734
0.047700833952407935,0.735
0.04763006259064869,0.736
0.04755672915837431,0.737
0.04748100356403204,0.738
0.04740305981654776,0.739
0.04732305782555769,0.74
0.04724113022006469,0.741
0.04715738123575211,0.742
0.04707189498742308,0.743
0.04698474586441339,0.744
0.04689600822902248,0.745
0.04680576634411218,0.746
0.04671412480706972,0.747
0.046621217842212605,0.748
0.04652721466269883,0.749
0.04643231825674749,0.75
0.04633675625120083,0.751
0.046240764453087085,0.752
0.04614456728336309,0.753
0.04604836423072705,0.754
0.045952329622469444,0.755
0.04585662255253569,0.756
0.04576139814699166,0.757
0.04566681544743825,0.758
0.04557304176741003,0.759
0.04548025428896138,0.76
0.04538863927131805,0.761
0.045298388970348484,0.762
0.045209696498311566,0.763
0.04512274926093741,0.764
0.04503772188866468,0.765
0.044954769446641285,0.766
0.04487402122495998,0.767
0.044795574921891734,0.768
0.044719491812361005,0.769
0.044645795629469,0.77
0.0445744774520868,0.771
0.044505505276132055,0.772
0.044438835324602625,0.773
0.04437442310187107,0.774
0.044312232710291465,0.775
0.04425224307070088,0.776
0.044194450160288175,0.777
0.044138864977813226,0.778
0.0440855074147851,0.779
0.04403439639833803,0.78
0.04398553741250313,0.781
0.043938912143512594,0.782
0.04389447881059269,0.783
0.043852187278404786,0.784
0.04381200347246734,0.785
0.04377393458031588,0.786
0.043738048695589664,0.787
0.04370448357082348,0.788
0.043673440173863695,0.789
0.043645159702855006,0.79
0.04361989254389469,0.791
0.04359788154545327,0.792
0.04357937332246876,0.793
0.04356464208695005,0.794
0.04355400246869241,0.795
0.04354780321354512,0.796
0.043546406244241345,0.797
0.0435501630182024,0.798
0.043559401264737355,0.799
0.04357442245950428,0.8
0.043595500634747764,0.801
0.04362288379597744,0.802
0.043656806191642764,0.803
0.04369750697961229,0.804
0.04374524272417066,0.805
0.04380028674091573,0.806
0.04386291602177577,0.807
0.0439333952353626,0.808
0.0440119721925654,0.809
0.044098888138284234,0.81
0.04419439020129389,0.811
0.044298733400627587,0.812
0.044412170295816206,0.813
0.04453493485506569,0.814
0.0446672312483109,0.815
0.04480923205434443,0.816
0.04496107912788429,0.817
0.04512288240048024,0.818
0.04529472182671691,0.819
0.04547665615775174,0.82
0.045668733097626285,0.821
0.04587099334338543,0.822
0.046083465400972495,0.823
0.046306154884950705,0.824
0.04653903975661324,0.825
0.046782079274775124,0.826
0.04703522943537923,0.827
0.04729845218718061,0.828
0.04757171226482024,0.829
0.04785496404928926,0.83
0.048148140027732975,0.831
0.048451152566143504,0.832
0.04876390669509621,0.833
0.04908631166383202,0.834
0.04941828326435087,0.835
0.04975973613649831,0.836
0.05011056957868146,0.837
0.05047065505397279,0.838
0.05083983410460979,0.839
0.05121792607134079,0.84
0.051604735824102785,0.841
0.052000053368489244,0.842
0.05240364522861277,0.843
0.05281524515134527,0.844
0.05323455294489853,0.845
0.053661241709262265,0.846
0.054094965811187216,0.847
0.05453536372330108,0.848
0.054982054711921,0.849
0.055434630537995425,0.85
0.05589264658180343,0.851
0.05635562098055091,0.852
0.05682304665144282,0.853
0.057294411150838054,0.854
0.05776921582191013,0.855
0.058246988568923144,0.856
0.05872728656597191,0.857
0.059209686296005634,0.858
0.059693762967312165,0.859
0.06017907224499386,0.86
0.0606651517964379,0.861
0.0611515440771168,0.862
0.06163782253799331,0.863
0.062123603553495804,0.864
0.06260853713875103,0.865
0.06309228109594266,0.866
0.06357447791364923,0.867
0.06405475529519547,0.868
0.0645327476955951,0.869
0.06500811653737004,0.87
0.06548055297752668,0.871
0.06594976188712934,0.872
0.06641543542196392,0.873
0.06687723144941812,0.874
0.06733476871471367,0.875
0.0677876345741,0.876
0.06823539172524383,0.877
0.06867757650660228,0.878
0.06911368978976283,0.879
0.0695431847148337,0.88
0.06996545633582887,0.881
0.07037983819966205,0.882
0.07078560963669087,0.883
0.07118201495310705,0.884
0.07156829212529106,0.885
0.07194370496572038,0.886
0.07230757044020199,0.887
0.07265927298450632,0.888
0.07299826035591879,0.889
0.0733240196505444,0.89
0.07363604136008574,0.891
0.07393379477265238,0.892
0.07421673729239602,0.893
0.07448435362351911,0.894
0.07473620225864805,0.895
0.07497195329184653,0.896
0.07519141188742265,0.897
0.0753945248449185,0.898
0.07558136872995187,0.899
0.07575211973126494,0.9
0.07590700770776676,0.901
0.07604626598169835,0.902
0.07617010322047214,0.903
0.07627871492866704,0.904
0.07637231856863279,0.905
0.0764511842225751,0.906
0.07651564794998249,0.907
0.07656610751197396,0.908
0.07660300484417201,0.909
0.0766268024544351,0.91
0.07663796148439365,0.911
0.07663692708369246,0.912
0.07662412285182141,0.913
0.07659995197999132,0.914
0.07656479978259993,0.915
0.07651903128937405,0.916
0.07646298070450107,0.917
0.07639694029910563,0.918
0.07632116535875465,0.919
0.07623590150241828,0.92
0.07614142090837352,0.921
0.07603804961501774,0.922
0.07592617638634619,0.923
0.07580624083405202,0.924
0.07567870357666734,0.925
0.07554400946590042,0.926
0.07540256425764005,0.927
0.07525473682816415,0.928
0.07510087522857439,0.929
0.07494131782881067,0.93
0.07477639305215482,0.931
0.07460641020382429,0.932
0.07443164558710474,0.933
0.07425232775124296,0.934
0.07406862549812375,0.935
0.07388064222432913,0.936
0.0736884170884169,0.937
0.0734919287488002,0.938
0.07329109671314904,0.939
0.07308577962392082,0.94
0.07287577642701064,0.941
0.07266083776566713,0.942
0.07244068722516253,0.943
0.07221504510033973,0.944
0.07198364683481928,0.945
0.07174624966068914,0.946
0.07150262262549399,0.947
0.07125252389914394,0.948
0.07099568659431606,0.949
0.070731834966364,0.95
0.07046072562590602,0.951
0.07018218920909529,0.952
0.06989615481913408,0.953
0.06960265190065454,0.954
0.06930179095572683,0.955
0.0689937281923637,0.956
0.06867862437576337,0.957
0.06835661677278432,0.958
0.06802782047879236,0.959
0.06769235459121561,0.96
0.06735037439556964,0.961
0.06700209614789891,0.962
0.06664780969960792,0.963
0.06628787708389919,0.964
0.06592271659753735,0.965
0.06555277398967847,0.966
0.06517848855891317,0.967
0.06480027188782946,0.968
0.06441851237039538,0.969
0.06403359667666662,0.97
0.06364592898669388,0.971
0.06325593797175491,0.972
0.06286407090682541,0.973
0.0624707777614111,0.974
0.062076490043543375,0.975
0.06168160189696631,0.976
0.06128646167188155,0.977
0.06089137508153483,0.978
0.060496612561749485,0.979
0.060102414879227205,0.98
0.05970899709017165,0.981
0.05931655236735106,0.982
0.05892525513007947,0.983
0.05853526062851583,0.984
0.058146698551073045,0.985
0.05775966505862805,0.986
0.05737422472176394,0.987
0.056990426930887475,0.988
0.05660832657349172,0.989
0.05622799589127858,0.99
0.055849521963178286,0.991
0.055472990988467474,0.992
0.05509846820843041,0.993
0.054725988999136235,0.994
0.05435556807076441,0.995
0.0539872163386288,0.996
0.05362095299299955,0.997
0.053256810152502596,0.998
0.052894832508219414,0.999
0.05253507424888678,1.0
0.05217759416159862,1.001
0.05182244794861721,1.002
0.05146967672779117,1.003
0.0511192964446682,1.004
0.05077130014210018,1.005
0.05042567924899495,1.006
0.05008245484906931,1.007
0.04974170475720069,1.008
0.04940357743729906,1.009
0.049068288868156715,1.01
0.04873610254246179,1.011
0.04840729907100009,1.012
0.04808215085961212,1.013
0.047760917812272666,1.014
0.04744386335219758,1.015
0.04713127503166548,1.016
0.04682347729617558,1.017
0.04652083327941344,1.018
0.04622373614293447,1.019
0.04593259164578949,1.02
0.04564779692509775,1.021
0.04536972508739444,1.022
0.04509872226826518,1.023
0.04483511224853318,1.024
0.04457919859184436,1.025
0.04433126043473635,1.026
0.04409154563764372,1.027
0.04386026784533939,1.028
0.0436376100542889,1.029
0.043423730777288796,1.03
0.04321876790537059,1.031
0.04302283823789038,1.032
0.04283603314139669,1.033
0.04265841467073503,1.034
0.0424900188157868,1.035
0.04233086745396628,1.036
0.04218098323720244,1.037
0.042040400277978146,1.038
0.041909166288963975,1.039
0.0417873346660381,1.04
0.0416749498261726,1.041
0.04157203594082057,1.042
0.04147859784154142,1.043
0.041394630829327456,1.044
0.04132012943231939,1.045
0.04125509019919132,1.046
0.041199509742453885,1.047
0.041153380972657465,1.048
0.04111668962721477,1.049
0.04108941130060393,1.05
0.041071507372384554,1.051
0.041062918612785305,1.052
0.04106355934027483,1.053
0.041073317876870234,1.054
0.04109206395811554,1.055
0.04111965651861024,1.056
0.04115594580128053,1.057
0.04120076948093962,1.058
0.04125394674408615,1.059
0.04131527541946241,1.06
0.041384535352490405,1.061
0.04146149709408823,1.062
0.04154593093930787,1.063
0.04163760973266788,1.064
0.0417363021160937,1.065
0.041841762581050414,1.066
0.04195373151479522,1.067
0.04207194857252631,1.068
0.04219616665155569,1.069
0.04232615271331169,1.07
0.042461674872568744,1.071
0.042602490030423504,1.072
0.0427483469269598,1.073
0.0428990013535321,1.074
0.04305422726217242,1.075
0.043213813430904545,1.076
0.04337754813518262,1.077
0.04354520499549365,1.078
0.043716543305993456,1.079
0.04389132179604009,1.08
0.04406931364963911,1.081
0.044250314355649654,1.082
0.044434141348572154,1.083
0.04462062693011928,1.084
0.04480960594332728,1.085
0.04500090063990029,1.086
0.04519430891482832,1.087
0.04538960326799291,1.088
0.04558654018302589,1.089
0.045784871065300936,1.09
0.045984346471166476,1.091
0.046184710702171755,1.092
0.04638568980466122,1.093
0.04658698279744537,1.094
0.04678826391661296,1.095
0.04698919091299662,1.096
0.047189407946442,1.097
0.047388539719114914,1.098
0.04758618695546972,1.099
0.04778193563698804,1.1
0.047975378478966005,1.101
0.04816613534677369,1.102
0.04835386100426653,1.103
0.048538234942543675,1.104
0.0487189390538281,1.105
0.04889564527688849,1.106
0.049068031070221306,1.107
0.049235811994813264,1.108
0.04939876776564261,1.109
0.04955674961448723,1.11
0.04970966831057785,1.111
0.04985746745779352,1.112
0.0500000919317373,1.113
0.050137466833546196,1.114
0.0502694974245941,1.115
0.05039608486976859,1.116
0.050517145858069476,1.117
0.0506326300335862,1.118
0.050742533560058874,1.119
0.05084690682090839,1.12
0.05094585391490901,1.121
0.05103952267478074,1.122
0.051128085697978214,1.123
0.051211716068805355,1.124
0.05129056769659004,1.125
0.05136477237811616,1.126
0.05143445468249246,1.127
0.05149975281850318,1.128
0.051560833979709605,1.129
0.05161789959333332,1.13
0.0516711795990372,1.131
0.051720916687390636,1.132
0.05176734496588746,1.133
0.05181067302712329,1.134
0.05185108018360246,1.135
0.05188872205539247,1.136
0.051923732564720076,1.137
0.05195621770519857,1.138
0.05198625247983451,1.139
0.052013892056829734,1.14
0.05203919125401332,1.141
0.0520622190273132,1.142
0.05208306135538575,1.143
0.0521018118344952,1.144
0.0521185543683841,1.145
0.05213335121675792,1.146
0.05214625043173449,1.147
0.05215731163346008,1.148
0.05216663621298143,1.149
0.05217438977067138,1.15
0.05218081073025044,1.151
0.0521862025975665,1.152
0.0521909102071417,1.153
0.05219528762903402,1.154
0.0521996770137802,1.155
0.052204414006096746,1.156
0.052209851717751485,1.157
0.05221638230190817,1.158
0.05222444377147714,1.159
0.05223451067294574,1.16
0.05224707277078477,1.161
0.05226260931474246,1.162
0.0522815676159519,1.163
0.05230435137803711,1.164
0.05233131862050269,1.165
0.05236278621664931,1.166
0.0523990372140323,1.167
0.05244032584879219,1.168
0.05248687620641519,1.169
0.052538876252811194,1.17
0.05259647562739425,1.171
0.052659793231141706,1.172
0.05272893088301843,1.173
0.052803986431230875,1.174
0.05288506377758969,1.175
0.052972278999760945,1.176
0.053065760881490676,1.177
0.053165643818377586,1.178
0.05327205304514063,1.179
0.05338508824432868,1.18
0.05350481629125462,1.181
0.05363127587902223,1.182
0.05376448362369879,1.183
0.05390443160723623,1.184
0.054051077907350656,1.185
0.05420433976820175,1.186
0.05436409408088078,1.187
0.05453017905997946,1.188
0.05470239336339956,1.189
0.05488049953612375,1.19
0.05506423707839073,1.191
0.055253340140980045,1.192
0.05544755188102982,1.193
0.055646631402725064,1.194
0.05585035204905813,1.195
0.05605849077352254,1.196
0.0562708111997231,1.197
0.05648705032716408,1.198
0.056706921322682534,1.199
0.05693013258243796,1.2
0.05715640975434267,1.201
0.05738550803258334,1.202
0.05761720976146487,1.203
0.05785130785486848,1.204
0.05808758184711541,1.205
0.05832578100177962,1.206
0.05856562437482212,1.207
0.058806810664940125,1.208
0.05904902379631024,1.209
0.05929192830299233,1.21
0.059535157735937975,1.211
0.05977830512512274,1.212
0.06002092343569676,1.213
0.060262534179104287,1.214
0.06050263547906986,1.215
0.060740703259127,1.216
0.06097618466979847,1.217
0.06120848997662047,1.218
0.0614369952505834,1.219
0.06166106200737238,1.22
0.061880065514334455,1.221
0.06209341808401249,1.222
0.06230057730821016,1.223
0.06250103319027095,1.224
0.0626942800967908,1.225
0.0628798007340377,1.226
0.06305708542825343,1.227
0.06322567381396171,1.228
0.06338518798995221,1.229
0.06353534023948912,1.23
0.06367591388110681,1.231
0.06380672513555924,1.232
0.063927585864285,1.233
0.06403829221627988,1.234
0.06413864462167607,1.235
0.06422847887212418,1.236
0.06430768832144113,1.237
0.0643762317937584,1.238
0.06443412832574963,1.239
0.06448144086065123,1.24
0.0645182520283642,1.241
0.0645446361692656,1.242
0.06456063467924239,1.243
0.06456624522185779,1.244
0.064561429663134,1.245
0.06454613400491678,1.246
0.06452031201586124,1.247
0.06448394942516482,1.248
0.06443708612605309,1.249
0.06437983179641114,1.25
0.06431236993883611,1.251
0.06423494707499353,1.252
0.06414784721302079,1.253
0.06405135795256468,1.254
0.0639457436242154,1.255
0.06383124018269883,1.256
0.0637080690935098,1.257
0.06357645412319181,1.258
0.06343663053376182,1.259
0.06328884631756428,1.26
0.06313335836397635,1.261
0.06297042613887646,1.262
0.06280030472203763,1.263
0.06262323819424852,1.264
0.06243945363351363,1.265
0.06224915569269845,1.266
0.06205252207310281,1.267
0.06184970087178318,1.268
0.06164081104225948,1.269
0.061425946479635334,1.27
0.06120518256705461,1.271
0.06097858209496356,1.272
0.06074619625163431,1.273
0.06050805729516318,1.274
0.060264166873072025,1.275
0.060014494579722834,1.276
0.05975899670048142,1.277
0.05949764660745679,1.278
0.05923046203646138,1.279
0.05895752212028191,1.28
0.058678972794971196,1.281
0.058395021151075685,1.282
0.058105920162778525,1.283
0.05781194513410904,1.284
0.05751336650880857,1.285
0.05721043273264351,1.286
0.05690337659649606,1.287
0.05659244069618556,1.288
0.056277904547428634,1.289
0.0559601003556587,1.29
0.05563941303319209,1.291
0.055316264690507974,1.292
0.05499108805612117,1.293
0.05466430079148112,1.294
0.05433629646869645,1.295
0.05400745518672594,1.296
0.05367815935804048,1.297
0.05334880067001467,1.298
0.05301977523164086,1.299
0.05269146960115393,1.3
0.05236424385203229,1.301
0.05203842182650627,1.302
0.051714293632790835,1.303
0.05139212343358854,1.304
0.05107215324255839,1.305
0.0507546001604717,1.306
0.05043964922130052,1.307
0.050127446249859806,1.308
0.04981809433661702,1.309
0.049511653694407354,1.31
0.04920814539115742,1.311
0.048907563146867804,1.312
0.04860989370265323,1.313
0.048315138576436566,1.314
0.04802332737872529,1.315
0.047734515079892216,1.316
0.04744876465231559,1.317
0.04716613288893956,1.318
0.04688667945157471,1.319
0.046610496061687615,1.32
0.04633773450269354,1.321
0.04606861791776955,1.322
0.04580343250800589,1.323
0.04554250369934642,1.324
0.04528616566387796,1.325
0.04503473767953238,1.326
0.04478851733580236,1.327
0.04454778678435206,1.328
0.04431282012734174,1.329
0.044083885686678745,1.33
0.04386124430466324,1.331
0.04364514653120236,1.332
0.04343583062594985,1.333
0.04323352216061068,1.334
0.04303843501270734,1.335
0.04285077287005775,1.336
0.042670730025979105,1.337
0.0424984901528377,1.338
0.042334221810988205,1.339
0.042178071226398196,1.34
0.04203015757409654,1.341
0.04189057743961975,1.342
0.04175941805977239,1.343
0.041636771685504566,1.344
0.041522743642772725,1.345
0.041417450425306215,1.346
0.04132100817219682,1.347
0.04123351864878626,1.348
0.04115506496717527,1.349
0.041085721322754364,1.35
0.0410255669959793,1.351
0.04097469336954118,1.352
0.0409332006138105,1.353
0.04090118583668474,1.354
0.04087872815382851,1.355
0.040865879651940204,1.356
0.040862666744490315,1.357
0.040869096548251084,1.358
0.040885161627218385,1.359
0.040910842316413946,1.36
0.040946108484343775,1.361
0.04099092173085877,1.362
0.041045237695736383,1.363
0.04110900719275547,1.364
0.041182174598268804,1.365
0.041264672367298985,1.366
0.04135641246083151,1.367
0.04145727903956336,1.368
0.041567127488191115,1.369
0.041685789359935825,1.37
0.04181307794435724,1.371
0.04194879071964732,1.372
0.04209270860631143,1.373
0.04224459349234967,1.374
0.042404185776010635,1.375
0.04257120355448772,1.376
0.04274534440230114,1.377
0.0429262894111407,1.378
0.043113707835982396,1.379
0.043307260163913605,1.38
0.04350659804759064,1.381
0.04371136076697932,1.382
0.04392116881474448,1.383
0.04413561600206517,1.384
0.04435426320542003,1.385
0.04457663767962518,1.386
0.04480223849450096,1.387
0.04503054435412129,1.388
0.04526102014103217,1.389
0.04549312125931892,1.39
0.04572629671524076,1.391
0.04595999258336564,1.392
0.046193657146374294,1.393
0.046426747501773606,1.394
0.04665873549355288,1.395
0.046889109512385695,1.396
0.047117368835813536,1.397
0.04734300992661491,1.398
0.04756551157795355,1.399
0.0477843320997792,1.4
0.047998923915419926,1.401
0.04820875612963728,1.402
0.04841333352659589,1.403
0.04861220771304208,1.404
0.048804980246881194,1.405
0.04899129873900765,1.406
0.04917084751751711,1.407
0.04934333411579991,1.408
0.0495084716346129,1.409
0.049665959792390586,1.41
0.04981547656639862,1.411
0.049956691932224684,1.412
0.05008929881004362,1.413
0.05021304585246979,1.414
0.05032776058674157,1.415
0.05043335709180195,1.416
0.050529825749863914,1.417
0.05061720582838912,1.418
0.050695550014790654,1.419
0.0507649032064922,1.42
0.05082531213198235,1.421
0.0508768544909904,1.422
0.05091966350101768,1.423
0.05095393483470891,1.424
0.05097991445568793,1.425
0.05099787151166252,1.426
0.051008067633883505,1.427
0.05101074016971284,1.428
0.051006106408279135,1.429
0.05099437622762397,1.43
0.05097575939626401,1.431
0.05095046573823442,1.432
0.05091870130623011,1.433
0.050880662360771066,1.434
0.05083652701702043,1.435
0.05078644539823887,1.436
0.05073053478420518,1.437
0.05066888705740103,1.438
0.05060158596811516,1.439
0.05052872377102428,1.44
0.05045040833250575,1.441
0.05036675656212793,1.442
0.05027787768767848,1.443
0.050183861378367826,1.444
0.050084784566368654,1.445
0.04998073169264347,1.446
0.04987181122129799,1.447
0.04975815736082261,1.448
0.04963991575156827,1.449
0.0495172224769701,1.45
0.04939019542130488,1.451
0.049258947436343604,1.452
0.049123608180352836,1.453
0.04898433706560247,1.454
0.04884132168790384,1.455
0.04869476390611407,1.456
0.04854485938361254,1.457
0.04839178106127355,1.458
0.04823567667776965,1.459
0.04807668022047991,1.46
0.04791492816116257,1.461
0.04775057306525668,1.462
0.04758379203548007,1.463
0.0474147886487457,1.464
0.04724378693967339,1.465
0.047071016794930434,1.466
0.046896695144757444,1.467
0.04672101574510309,1.468
0.04654415670351845,1.469
0.046366298142800993,1.47
0.04618763585110884,1.471
0.04600838410692161,1.472
0.04582876755594227,1.473
0.04564900542292476,1.474
0.04546929404969665,1.475
0.04528979444045525,1.476
0.045110628721547474,1.477
0.044931885494107114,1.478
0.04475363104837282,1.479
0.044575920491493164,1.48
0.04439880177578952,1.481
0.044222310325180834,1.482
0.0440464625022073,1.483
0.043871261268420156,1.484
0.043696716571543795,1.485
0.04352286934003187,1.486
0.04334980762666573,1.487
0.0431776703575115,1.488
0.04300663886042849,1.489
0.0428369189518798,1.49
0.04266871844323225,1.491
0.042502227767160936,1.492
0.04233761232226192,1.493
0.04217501792298074,1.494
0.04201458175246142,1.495
0.04185644206659764,1.496
0.041700745681150744,1.497
0.04154765414781045,1.498
0.0413973487747758,1.499
0.04125003390960356,1.5
0.041105937506430885,1.501
0.040965308015521514,1.502
0.04082840695238964,1.503
0.04069549702252438,1.504
0.040566828017464945,1.505
0.04044262745230525,1.506
0.04032310266116141,1.507
0.04020845205451829,1.508
0.04009887666480903,1.509
0.03999458555961565,1.51
0.03989579356187951,1.511
0.03980271266986763,1.512
0.039715540379896025,1.513
0.03963444893844004,1.514
0.03955957906952135,1.515
0.03949104008147581,1.516
0.039428915981542245,1.517
0.0393732750943636,1.518
0.03932417942904365,1.519
0.03928169004104615,1.52
0.03924586579946656,1.521
0.0392167554560809,1.522
0.039194387829970694,1.523
0.03917876871262649,1.524
0.03916988761777993,1.525
0.039167727680425445,1.526
0.03917227112664167,1.527
0.03918349839993052,1.528
0.03920138232015179,1.529
0.03922587935917453,1.53
0.03925692063723473,1.531
0.03929440575530667,1.532
0.03933820080493295,1.533
0.03938813841945341,1.534
0.03944401831684351,1.535
0.039505610707757335,1.536
0.03957266439373676,1.537
0.03964491656329095,1.538
0.03972209890283186,1.539
0.03980393579387232,1.54
0.0398901358577049,1.541
0.03998038719209335,1.542
0.04007436498293641,1.543
0.04017174511500455,1.544
0.04027221039989179,1.545
0.04037544391985271,1.546
0.04048111616584489,1.547
0.040588878939146075,1.548
0.04069836913904206,1.549
0.04080921132613149,1.55
0.04092101461155755,1.551
0.041033376308118506,1.552
0.04114590060871548,1.553
0.04125822168067163,1.554
0.04137001552896084,1.555
0.04148099376866698,1.556
0.041590883343219684,1.557
0.0416994088601308,1.558
0.04180629602251171,1.559
0.04191129563421862,1.56
0.04201421094341235,1.561
0.04211491474230685,1.562
0.04221335296785808,1.563
0.04230953622117625,1.564
0.042403521584296326,1.565
0.042495387373289714,1.566
0.04258520815663504,1.567
0.042673045222417626,1.568
0.042758960718701416,1.569
0.04284304386829937,1.57
0.04292543213148403,1.571
0.043006319098751036,1.572
0.04308594725111906,1.573
0.04316458703856931,1.574
0.043242509963636225,1.575
0.04331997019625726,1.576
0.04339720246956616,1.577
0.043474426002509656,1.578
0.04355184211722354,1.579
0.04362962977940971,1.58
0.04370795027701306,1.581
0.04378696018799522,1.582
0.043866821165814786,1.583
0.043947698189876476,1.584
0.04402974777737341,1.585
0.044113107516324704,1.586
0.04419789880074925,1.587
0.04428424144810375,1.588
0.044372268475457124,1.589
0.04446213262448707,1.59
0.044554003523782006,1.591
0.044648058058655855,1.592
0.04474446766913881,1.593
0.0448433860287816,1.594
0.044944939239925825,1.595
0.04504921915910869,1.596
0.045156279534707446,1.597
0.045266134499135344,1.598
0.04537875916467796,1.599
0.045494092002365066,1.6
0.045612038055887774,1.601
0.04573247109336485,1.602
0.04585523298994653,1.603
0.04598013256601043,1.604
0.04610695095769018,1.605
0.046235457701288604,1.606
0.04636543268929012,1.607
0.046496684984047645,1.608
0.0466290616596778,1.609
0.046762443413239624,1.61
0.046896727365207065,1.611
0.04703180388058561,1.612
0.04716754183048059,1.613
0.04730379163286855,1.614
0.04744039843351285,1.615
0.0475772119774692,1.616
0.04771408759401573,1.617
0.0478508787503869,1.618
0.04798742392400125,1.619
0.048123534035232396,1.62
0.04825898785540158,1.621
0.04839353528173508,1.622
0.04852689948605967,1.623
0.04865877360659613,1.624
0.04878882127019663,1.625
0.04891669022448382,1.626
0.04904203331365958,1.627
0.04916452376430735,1.628
0.04928385696789353,1.629
0.04939973745580027,1.63
0.04951185923684091,1.631
0.049619898324961394,1.632
0.049723528217631104,1.633
0.04982244646780599,1.634
0.049916394202328726,1.635
0.05000516034519126,1.636
0.050088569115520454,1.637
0.050166455774225856,1.638
0.0502386478253781,1.639
0.05030497055345584,1.64
0.05036527510212733,1.641
0.05041946844654174,1.642
0.05046752732178831,1.643
0.050509489151232434,1.644
0.05054542396956663,1.645
0.050575407514925085,1.646
0.05059952116937308,1.647
0.050617880627155706,1.648
0.050630668884333596,1.649
0.05063815174171169,1.65
0.05064067050224255,1.651
0.05063861603316004,1.652
0.050632393928313736,1.653
0.05062239651314442,1.654
0.05060899452503547,1.655
0.05059254507512107,1.656
0.05057340150120263,1.657
0.050551916822179084,1.658
0.05052844212638454,1.659
0.0505033239834772,1.66
0.05047690373263049,1.661
0.05044951915892237,1.662
0.05042150656285524,1.663
0.05039319976045912,1.664
0.050364922922769485,1.665
0.05033697846546896,1.666
0.05030963876525657,1.667
0.05028315013397512,1.668
0.0502577457829543,1.669
0.05023365744856909,1.67
0.05021111945717658,1.671
0.050190364490039475,1.672
0.050171612669594357,1.673
0.05015505801543023,1.674
0.0501408596516851,1.675
0.050129143099323654,1.676
0.05012000876469057,1.677
0.050113540963690834,1.678
0.05010981411108517,1.679
0.05010889583261134,1.68
0.05011084751253381,1.681
0.050115722829294676,1.682
0.050123564567317716,1.683
0.050134399348328446,1.684
0.05014822974208306,1.685
0.0501650265369995,1.686
0.05018472915660217,1.687
0.05020725899662063,1.688
0.050232539719822174,1.689
0.05026051446041797,1.69
0.05029115373752769,1.691
0.05032445177960114,1.692
0.05036041176503934,1.693
0.05039902538017521,1.694
0.05044025862339035,1.695
0.05048405275382615,1.696
0.05053033483577612,1.697
0.05057902521292885,1.698
0.05063003545075844,1.699
0.05068325812201711,1.7
0.05073855538173731,1.701
0.05079575507020983,1.702
0.05085465578377115,1.703
0.05091503277457095,1.704
0.05097663690678948,1.705
0.05103918867063834,1.706
0.05110237829183593,1.707
0.05116587858534801,1.708
0.051229362676912533,1.709
0.05129251332927713,1.71
0.051355016835487585,1.711
0.05141654685500446,1.712
0.05147675784850766,1.713
0.051535301395196534,1.714
0.05159185315247489,1.715
0.05164613003864058,1.716
0.051697888992765444,1.717
0.05174690806331932,1.718
0.05179296010993109,1.719
0.05183580111458907,1.72
0.051875186362452114,1.721
0.05191090197908477,1.722
0.05194279223796616,1.723
0.05197077426465523,1.724
0.05199483816745476,1.725
0.052015031879010284,1.726
0.05203143276899098,1.727
0.05204411752183362,1.728
0.05205315229850654,1.729
0.052058613605285145,1.73
0.052060623737250046,1.731
0.05205937882326893,1.732
0.05205515991097052,1.733
0.05204832561693936,1.734
0.05203928817268847,1.735
0.05202847966117074,1.736
0.052016323419764705,1.737
0.052003226844207634,1.738
0.051989595527888156,1.739
0.05197585217723399,1.74
0.05196244664899681,1.741
0.051949854272109186,1.742
0.05193856425961682,1.743
0.05192906106100882,1.744
0.05192180470923499,1.745
0.05191722014194441,1.746
0.051915699597300455,1.747
0.05191760992333732,1.748
0.05192329574766322,1.749
0.0519330775236145,1.75
0.051947247473570365,1.751
0.05196606616150553,1.752
0.05198976112462193,1.753
0.05201852743129038,1.754
0.0520525288568348,1.755
0.052091897934169795,1.756
0.05213673348315918,1.757
0.05218709587920055,1.758
0.052243003462054044,1.759
0.05230443452278932,1.76
0.0523713354938936,1.761
0.05244363197836516,1.762
0.052521239071455006,1.763
0.052604068465468154,1.764
0.052692030106736946,1.765
0.052785026740208546,1.766
0.05288294219693599,1.767
0.0529856298542493,1.768
0.053092910543732094,1.769
0.05320458138602048,1.77
0.053320426707148344,1.771
0.05344022227097998,1.772
0.05356373021613356,1.773
0.053690687682920575,1.774
0.05382079808931332,1.775
0.053953733743355686,1.776
0.05408914815744465,1.777
0.05422668894116561,1.778
0.0543660047023976,1.779
0.054506744197050996,1.78
0.054648548166102255,1.781
0.05479103612480183,1.782
0.054933794423824595,1.783
0.05507637429205271,1.784
0.05521830210624984,1.785
0.05535909505286387,1.786
0.05549827516309587,1.787
0.055635379485580234,1.788
0.05576996595143129,1.789
0.055901613968173926,1.79
0.056029918226126345,1.791
0.056154474235497374,1.792
0.0562748592940555,1.793
0.05639062324579469,1.794
0.05650130108868865,1.795
0.0566064399069302,1.796
0.05670562200440177,1.797
0.056798471808094296,1.798
0.05688464145567136,1.799
0.05696378292213194,1.8
0.05703553356939627,1.801
0.05709953362394034,1.802
0.05715545863023796,1.803
0.05720303852129787,1.804
0.05724205217162241,1.805
0.05727230161479538,1.806
0.05729358271327081,1.807
0.057305675498754344,1.808
0.05730836031717268,1.809
0.057301441809388946,1.81
0.05728476251088021,1.811
0.0572582020839198,1.812
0.057221665736068184,1.813
0.05717506707432787,1.814
0.05711831073023332,1.815
0.05705127851197938,1.816
0.0569738202340441,1.817
0.0568857478381476,1.818
0.0567868307402132,1.819
0.05667679362580928,1.82
0.05655532224930054,1.821
0.05642208090488683,1.822
0.056276738354843224,1.823
0.0561189950901786,1.824
0.055948604860094266,1.825
0.05576538459983151,1.826
0.05556920917851083,1.827
0.05535999068954145,1.828
0.05513764866748477,1.829
0.05490208851717438,1.83
0.05465320527971094,1.831
0.05439091044595156,1.832
0.054115164587824074,1.833
0.05382600266490714,1.834
0.05352354702361224,1.835
0.05320800580599953,1.836
0.05287965543563294,1.837
0.0525388090820134,1.838
0.05218578404057733,1.839
0.05182089183336837,1.84
0.051444460162070875,1.841
0.051056866494920444,1.842
0.05065855863844537,1.843
0.05025005373092887,1.844
0.04983191800383143,1.845
0.04940473528565536,1.846
0.04896907856453111,1.847
0.04852549881666135,1.848
0.04807453080986789,1.849
0.04761670123332253,1.85
0.04715252758807525,1.851
0.04668250861723519,1.852
0.046207116102537964,1.853
0.045726797284642885,1.854
0.0452419861523457,1.855
0.044753113809791654,1.856
0.044260611056330904,1.857
0.04376490194200142,1.858
0.043266392171846225,1.859
0.04276546246380964,1.86
0.04226247504074015,1.861
0.041757789367969075,1.862
0.04125177707680452,1.863
0.04074483016696989,1.864
0.04023736123662751,1.865
0.039729796731541096,1.866
0.03922256567939732,1.867
0.038716087043000454,1.868
0.038210758403112804,1.869
0.03770694792312018,1.87
0.03720499140057107,1.871
0.03670519534548955,1.872
0.03620784489797805,1.873
0.03571321420442923,1.874
0.03522157680082926,1.875
0.03473321345976533,1.876
0.03424841533836635,1.877
0.033767481358611254,1.878
0.03329071001489515,1.879
0.03281838832106944,1.88
0.03235078444191647,1.881
0.03188814928100134,1.882
0.031430724290661356,1.883
0.030978748425073213,1.884
0.030532460285595687,1.885
0.03009209532029497,1.886
0.029657879425724332,1.887
0.02923002146509179,1.888
0.02880870864960688,1.889
0.028394107299575803,1.89
0.02798636714874855,1.891
0.02758562561907422,1.892
0.027192010288016436,1.893
0.026805639218800418,1.894
0.026426619080850915,1.895
0.02605504141114903,1.896
0.025690978767090124,1.897
0.025334483414333392,1.898
0.024985588853393498,1.899
0.02464431119360504,1.9
0.024310648368633735,1.901
0.023984579188635453,1.902
0.023666064878987904,1.903
0.023355052092123,1.904
0.023051473985502738,1.905
0.02275524857505419,1.906
0.022466278552631724,1.907
0.022184456659761542,1.908
0.02190967469252154,1.909
0.021641831089953448,1.91
0.021380834160344753,1.911
0.021126600470809588,1.912
0.020879049326116266,1.913
0.02063809523949952,1.914
0.02040364146940147,1.915
0.02017557818455281,1.916
0.019953786125960587,1.917
0.01973814290115966,1.918
0.01952852871995208,1.919
0.01932483001555462,1.92
0.01912694011052105,1.921
0.0189347565373607,1.922
0.018748175548043707,1.923
0.01856708551133227,1.924
0.018391361604901714,1.925
0.0182208632706754,1.926
0.018055434358350074,1.927
0.017894905801145573,1.928
0.01773910056579173,1.929
0.017587839098434904,1.93
0.017440942438648795,1.931
0.01729823099327315,1.932
0.017159520977187728,1.933
0.01702462560475079,1.934
0.016893365357269305,1.935
0.016765582160126344,1.936
0.016641148764884123,1.937
0.016519968476166377,1.938
0.016401965168648416,1.939
0.016287069674396436,1.94
0.016175213091607972,1.941
0.016066330574342206,1.942
0.0159603670926008,1.943
0.015857276450869474,1.944
0.01575701411670638,1.945
0.015659530814737473,1.946
0.015564771986505535,1.947
0.01547268082947565,1.948
0.015383199375865235,1.949
0.015296265907958842,1.95
0.01521181217441234,1.951
0.015129765205280404,1.952
0.015050054405937858,1.953
0.014972619919507778,1.954
0.014897417988445178,1.955
0.014824421226676642,1.956
0.0147536134979039,1.957
0.014684981485165423,1.958
0.014618508209969565,1.959
0.014554172824545674,1.96
0.014491954824316434,1.961
0.01443183743643091,1.962
0.014373807499445312,1.963
0.014317852262226894,1.964
0.014263954592425706,1.965
0.014212088421309794,1.966
0.014162216009471986,1.967
0.014114287213105323,1.968
0.0140682401939396,1.969
0.014024003894071518,1.97
0.01398150250558462,1.971
0.013940660833816829,1.972
0.013901409022126004,1.973
0.01386368552053066,1.974
0.013827437589980078,1.975
0.013792618995437048,1.976
0.013759185084549591,1.977
0.013727087261170414,1.978
0.013696271136125792,1.979
0.013666680642681481,1.98
0.013638265092489466,1.981
0.013610984735256064,1.982
0.013584812840112419,1.983
0.013559734203723956,1.984
0.013535740986034927,1.985
0.013512827454026625,1.986
0.013490985254035592,1.987
0.013470200267944701,1.988
0.013450451260063128,1.989
0.013431709765363797,1.99
0.013413940260917712,1.991
0.01339709967202788,1.992
0.013381136043211226,1.993
0.01336598779304396,1.994
0.013351585375415692,1.995
0.013337855240423985,1.996
0.013324724264159609,1.997
0.01331212294938635,1.998
0.013299986437719034,1.999
0.0132882529481896,2.0
0.013276859848589909,2.001
0.013265738838908822,2.002
0.013254813296203953,2.003
0.013243999499546433,2.004
0.01323320977836559,2.005
0.013222354815846278,2.006
0.013211344205958042,2.007
0.013200085336521755,2.008
0.013188480870887106,2.009
0.013176426236139606,2.01
0.01316381001110566,2.011
0.013150518942572428,2.012
0.013136445995861739,2.013
0.013121498401011119,2.014
0.01310560318389102,2.015
0.013088708122908627,2.016
0.013070776693921341,2.017
0.01305177901883158,2.018
0.01303168680209613,2.019
0.013010478877448302,2.02
0.012988153588891329,2.021
0.012964739249947947,2.022
0.012940297957439447,2.023
0.012914922271174398,2.024
0.012888726239049417,2.025
0.012861833673833126,2.026
0.012834368143075706,2.027
0.012806449012514936,2.028
0.012778193640616548,2.029
0.012749721553849711,2.03
0.012721157309765061,2.031
0.012692631670745785,2.032
0.012664281648863704,2.033
0.012636249793847988,2.034
0.012608682912145444,2.035
0.012581730252120067,2.036
0.012555541103782108,2.037
0.012530261771349333,2.038
0.012506032294240495,2.039
0.012482984234543346,2.04
0.012461240873674423,2.041
0.012440919405123721,2.042
0.012422133310347885,2.043
0.012404993516941878,2.044
0.01238960789433531,2.045
0.012376079222156708,2.046
0.012364502477170736,2.047
0.012354963020230201,2.048
0.012347536426788902,2.049
0.012342288756914496,2.05
0.012339276173058402,2.051
0.012338544769977125,2.052
0.012340131631392146,2.053
0.012344066394298421,2.054
0.012350372066971224,2.055
0.012359064776268087,2.056
0.012370152826794793,2.057
0.012383635627257483,2.058
0.012399502944004223,2.059
0.012417734648594683,2.06
0.012438300785162821,2.061
0.012461161567430538,2.062
0.012486267008061713,2.063
0.012513556423593107,2.064
0.012542958586555542,2.065
0.012574392954672152,2.066
0.012607771565515442,2.067
0.012643000940582882,2.068
0.0126799835563358,2.069
0.012718618526351639,2.07
0.012758801187076113,2.071
0.01280042144516699,2.072
0.01284336139815602,2.073
0.012887493858316673,2.074
0.012932683114042576,2.075
0.012978787123156291,2.076
0.013025659190215933,2.077
0.013073147934446933,2.078
0.01312109561430713,2.079
0.013169336524028819,2.08
0.013217698114184266,2.081
0.013266005685038464,2.082
0.013314088751002472,2.083
0.013361786502434135,2.084
0.013408950487279,2.085
0.01345544317348547,2.086
0.013501132482913876,2.087
0.01354588620353179,2.088
0.013589572624017138,2.089
0.013632069000731287,2.09
0.013673272406390585,2.091
0.013713106911970512,2.092
0.01375152476053322,2.093
0.013788501793542574,2.094
0.013824028644988096,2.095
0.013858100403588175,2.096
0.013890708967555163,2.097
0.01392184174948531,2.098
0.013951486113078702,2.099
0.01397963561820582,2.1
0.014006295130552173,2.101
0.014031483776608277,2.102
0.014055235191954292,2.103
0.014077594612362023,2.104
0.014098612855993694,2.105
0.014118338983186325,2.106
0.014136815935472766,2.107
0.014154081979996264,2.108
0.014170175392705401,2.109
0.014185138050814942,2.11
0.014199016266336026,2.111
0.014211859198622395,2.112
0.01422371565367545,2.113
0.014234630144784838,2.114
0.014244639078888026,2.115
0.014253768073760081,2.116
0.014262031302689706,2.117
0.0142694328760843,2.118
0.014275969495330951,2.119
0.01428163386505233,2.12
0.014286418787177372,2.121
0.014290321670630882,2.122
0.014293348655906401,2.123
0.014295517069174169,2.124
0.014296854748261993,2.125
0.014297395334682632,2.126
0.014297171588527025,2.127
0.014296212936482972,2.128
0.014294551087764382,2.129
0.014292229489262304,2.13
0.01428931006010314,2.131
0.01428587449584582,2.132
0.01428202034921106,2.133
0.014277853301352209,2.134
0.014273478377975954,2.135
0.014268994169774143,2.136
0.014264492400705367,2.137
0.014260060675530224,2.138
0.014255784601075346,2.139
0.014251747625442046,2.14
0.014248028844565826,2.141
0.014244699767538843,2.142
0.014241821618598766,2.143
0.014239444493347415,2.144
0.014237608033347613,2.145
0.014236342082248901,2.146
0.014235666345594694,2.147
0.014235589283699635,2.148
0.014236107280281683,2.149
0.014237204920186167,2.15
0.014238856003748896,2.151
0.014241024244599877,2.152
0.014243663076026095,2.153
0.01424671470507649,2.154
0.0142501089736053,2.155
0.014253762717749528,2.156
0.014257580170665508,2.157
0.014261454619463399,2.158
0.014265271165101595,2.159
0.014268910167755857,2.16
0.014272250842255765,2.161
0.014275174484752236,2.162
0.014277566905966998,2.163
0.01427931975840381,2.164
0.014280330543514613,2.165
0.014280501160319798,2.166
0.014279734892103683,2.167
0.014277932149672944,2.168
0.01427498705421585,2.169
0.01427078858673928,2.17
0.01426522800465218,2.171
0.014258210121276142,2.172
0.014249664652906996,2.173
0.014239554736794923,2.174
0.014227880520031454,2.175
0.01421467663486197,2.176
0.014200003748074877,2.177
0.014183936166333174,2.178
0.014166550316870906,2.179
0.014147920200087052,2.18
0.014128120830768367,2.181
0.014107234035382455,2.182
0.014085351505195274,2.183
0.014062574488732361,2.184
0.014039011505334518,2.185
0.014014775484743426,2.186
0.013989981399657231,2.187
0.0139647449433896,2.188
0.013939182258752571,2.189
0.013913410262783225,2.19
0.0138875468359051,2.191
0.013861710128459551,2.192
0.013836016511647424,2.193
0.013810577244029449,2.194
0.01378549489008366,2.195
0.013760861256738732,2.196
0.013736757362801087,2.197
0.01371325386415539,2.198
0.013690410573836903,2.199
0.013668275429100334,2.2
0.013646883998224234,2.201
0.013626260347128,2.202
0.013606419457628095,2.203
0.013587370711049327,2.204
0.013569121502071893,2.205
0.013551679958037492,2.206
0.013535055983568441,2.207
0.013519260300480722,2.208
0.013504301646284828,2.209
0.013490182975008575,2.21
0.013476898427948525,2.211
0.01346443266296628,2.212
0.01345276210891269,2.213
0.013441856237741879,2.214
0.013431677677611893,2.215
0.013422181295231704,2.216
0.013413312917006554,2.217
0.013405008407534455,2.218
0.013397193656426895,2.219
0.013389785673511201,2.22
0.01338269456217107,2.221
0.013375825774990425,2.222
0.013369081853755307,2.223
0.013362362843631076,2.224
0.013355564755176293,2.225
0.013348576727254978,2.226
0.013341279886461025,2.227
0.01333355039208562,2.228
0.013325265210739252,2.229
0.013316307384258794,2.23
0.013306568982514384,2.231
0.013295951249447437,2.232
0.013284362105859437,2.233
0.013271711707424642,2.234
0.013257907159572917,2.235
0.013242848049402657,2.236
0.013226424636870269,2.237
0.013208519020928969,2.238
0.013189007671624509,2.239
0.013167763895097868,2.24
0.013144660015837402,2.241
0.013119569411377116,2.242
0.013092368336455855,2.243
0.013062937328603206,2.244
0.01303116196624222,2.245
0.01299693284153387,2.246
0.012960144752510186,2.247
0.012920695269075676,2.248
0.012878482965222265,2.249
0.012833405697458024,2.25
0.012785359276501169,2.251
0.01273423665229596,2.252
0.012679927290048272,2.253
0.012622315877593828,2.254
0.012561280432308202,2.255
0.012496692973280633,2.256
0.012428426317274513,2.257
0.012356366114851913,2.258
0.012280424021576102,2.259
0.012200548179938943,2.26
0.01211672812881117,2.261
0.01202899242746331,2.262
0.011937399027559418,2.263
0.01184202152613962,2.264
0.011742938864181736,2.265
0.011640235313045621,2.266
0.011534008933819404,2.267
0.011424380676663301,2.268
0.011311498843767934,2.269
0.011195537993623664,2.27
0.011076693199684878,2.271
0.010955171224836283,2.272
0.010831181245146548,2.273
0.010704929002332593,2.274
0.010576616253000175,2.275
0.010446442709346053,2.276
0.010314606606400803,2.277
0.010181302909620903,2.278
0.010046720550240572,2.279
0.009911040636051138,2.28
0.009774436235884636,2.281
0.009637072552829048,2.282
0.009499106705573536,2.283
0.009360687688439234,2.284
0.009221956826648593,2.285
0.009083048084141657,2.286
0.008944087843834044,2.287
0.008805194850169123,2.288
0.008666481051742524,2.289
0.00852805305136805,2.29
0.008390013427688582,2.291
0.008252461572844018,2.292
0.008115493976411963,2.293
0.007979203926419199,2.294
0.007843680595957128,2.295
0.00770900784071567,2.296
0.007575263819281393,2.297
0.007442522342467348,2.298
0.0073108553892760825,2.299
0.0071803355165950145,2.3
0.007051037334179734,2.301
0.0069230376578188375,2.302
0.006796414255477076,2.303
0.006671243598497562,2.304
0.006547598762142759,2.305
0.00642554877282902,2.306
0.006305159452949699,2.307
0.00618649452845588,2.308
0.006069616015675793,2.309
0.0059545837867684605,2.31
0.005841454586351696,2.311
0.005730280964271807,2.312
0.0056211107758942485,2.313
0.0055139874834688055,2.314
0.005408950735457534,2.315
0.005306036647181868,2.316
0.005205277678797407,2.317
0.00510670225876589,2.318
0.005010334360377555,2.319
0.0049161932376083906,2.32
0.004824293406596727,2.321
0.0047346448723087995,2.322
0.004647253606272817,2.323
0.004562122192220691,2.324
0.004479250430116852,2.325
0.004398635684920585,2.326
0.004320272841990594,2.327
0.004244153910118216,2.328
0.004170267626987714,2.329
0.004098599520713898,2.33
0.0040291324846435895,2.331
0.003961847535456263,2.332
0.0038967245244426914,2.333
0.0038337428229623144,2.334
0.003772882038806842,2.335
0.0037141227039713255,2.336
0.003657446750637138,2.337
0.003602837549593287,2.338
0.0035502793585133158,2.339
0.0034997562064605753,2.34
0.003451250644674661,2.341
0.003404743197933435,2.342
0.0033602128969253617,2.343
0.0033176382870192677,2.344
0.003276998192446457,2.345
0.003238272086606444,2.346
0.0032014402092431153,2.347
0.0031664835668882133,2.348
0.003133383877515687,2.349
0.0031021234121260603,2.35
0.003072684606367865,2.351
0.003045049328599675,2.352
0.0030191979897858144,2.353
0.002995109141184042,2.354
0.002972759953479799,2.355
0.0029521270820745725,2.356
0.0029331871840092205,2.357
0.0029159167971802642,2.358
0.00290029168334008,2.359
0.0028862861009069057,2.36
0.002873872604507145,2.361
0.0028630223960658687,2.362
0.002853705584840973,2.363
0.002845890956650061,2.364
0.0028395457272953665,2.365
0.0028346359942493203,2.366
0.0028311278629610404,2.367
0.0028289886001517392,2.368
0.0028281872701330117,2.369
0.002828694639197848,2.37
0.002830482361187054,2.371
0.0028335217567728023,2.372
0.0028377829014213994,2.373
0.0028432346695951714,2.374
0.002849845606512233,2.375
0.0028575849277622262,2.376
0.0028664231169257355,2.377
0.002876331957561122,2.378
0.00288728402988517,2.379
0.002899251801580541,2.38
0.0029122065841063237,2.381
0.002926117807547966,2.382
0.0029409528827333406,2.383
0.0029566773325184646,2.384
0.002973254742895573,2.385
0.002990646692392256,2.386
0.0030088131590818657,2.387
0.00302771341804933,2.388
0.0030473069226769713,2.389
0.003067553715078083,2.39
0.0030884141893721827,2.391
0.0031098482847695865,2.392
0.0031318146044900957,2.393
0.0031542702746105355,2.394
0.0031771718577806207,2.395
0.0032004767613688914,2.396
0.003224144446861136,2.397
0.0032481371470383783,2.398
0.0032724200258365454,2.399
0.0032969607931575147,2.4
0.003321728861580639,2.401
0.0033466942029727804,2.402
0.0033718261289263102,2.403
0.0033970922522208683,2.404
0.0034224578371367022,2.405
0.0034478855962920807,2.406
0.003473335800361805,2.407
0.00349876643864316,2.408
0.0035241331655011354,2.409
0.0035493890229661234,2.41
0.003574484402588084,2.411
0.0035993677389441294,2.412
0.003623986869421217,2.413
0.00364829069182802,2.414
0.0036722308524798795,2.415
0.0036957632321437165,2.416
0.0037188489833590286,2.417
0.003741454952559627,2.418
0.00376355344121584,2.419
0.003785121347739127,2.42
0.0038061387597265,2.421
0.0038265870520952715,2.422
0.0038464469138886977,2.423
0.0038656975359768046,2.424
0.0038843178841705705,2.425
0.003902289372028708,2.426
0.00391959860889188,2.427
0.003936239488050549,2.428
0.003952214289973811,2.429
0.003967533612351748,2.43
0.003982215111909922,2.431
0.003996281218673075,2.432
0.004009756273292005,2.433
0.004022664134292667,2.434
0.004035027491769639,2.435
0.004046868905308189,2.436
0.004058212173062912,2.437
0.004069082812290884,2.438
0.004079507431768139,2.439
0.004089512322575894,2.44
0.004099121872949995,2.441
0.004108357595278915,2.442
0.004117238030265079,2.443
0.004125778882995779,2.444
0.004133992877232046,2.445
0.004141889807236387,2.446
0.004149477369646895,2.447
0.004156762484669454,2.448
0.004163752436327965,2.449
0.004170455465002803,2.45
0.00417688067462805,2.451
0.004183037189344424,2.452
0.0041889328415534175,2.453
0.004194573354283166,2.454
0.004199962901023656,2.455
0.004205105709635306,2.456
0.00421000762453543,2.457
0.004214676901049198,2.458
0.00421912401317973,2.459
0.004223360497482087,2.46
0.004227397246200425,2.461
0.004231243330435119,2.462
0.004234906311447958,2.463
0.004238393682843365,2.464
0.004241714261746204,2.465
0.004244878797136379,2.466
0.004247899721350269,2.467
0.004250790255443889,2.468
0.004253563153887782,2.469
0.004256229375328972,2.47
0.0042587970465604525,2.471
0.004261271160646127,2.472
0.004263654124137319,2.473
0.004265946770696893,2.474
0.004268149414961118,2.475
0.004270262753762843,2.476
0.00427228850890445,2.477
0.004274229717027559,2.478
0.004276090620800036,2.479
0.004277876176807271,2.48
0.004279591243525546,2.481
0.0042812395343530775,2.482
0.004282822519833579,2.483
0.004284338729508854,2.484
0.004285783938539429,2.485
0.004287152214526092,2.486
0.004288437332112598,2.487
0.004289634096209767,2.488
0.004290739305983366,2.489
0.004291752192775009,2.49
0.004292674268898864,2.491
0.004293508660987176,2.492
0.004294259109751309,2.493
0.004294928838524916,2.494
0.0042955194111108565,2.495
0.004296029731480586,2.496
0.004296455640644621,2.497
0.00429679057320838,2.498
0.004297027159787179,2.499
0.004297159266813748,2.5
0.004297184035909212,2.501
0.004297103564903837,2.502
0.0042969258736616795,2.503
0.004296664875142424,2.504
0.004296339261695588,2.505
0.0042959704768862055,2.506
0.004295580263100428,2.507
0.0042951886719168435,2.508
0.00429481345035701,2.509
0.004294470897163761,2.51
0.004294177450160962,2.511
0.004293951347539783,2.512
0.00429381409377334,2.513
0.004293791505695179,2.514
0.004293914058245266,2.515
0.004294216304499312,2.516
0.004294735303397603,2.517
0.0042955083981595435,2.518
0.004296571311764743,2.519
0.004297957416729176,2.52
0.004299697794367064,2.521
0.004301821081116052,2.522
0.00430435308424997,2.523
0.0043073168178339,2.524
0.004310732856555125,2.525
0.00431461932902987,2.526
0.004318991526954354,2.527
0.004323861905257228,2.528
0.004329240927084283,2.529
0.004335138291455471,2.53
0.004341563872634352,2.531
0.004348528089362374,2.532
0.004356041676847468,2.533
0.004364114930467648,2.534
0.0043727565791152135,2.535
0.004381972606118987,2.536
0.004391765463403354,2.537
0.0044021338151342525,2.538
0.004413072557052411,2.539
0.004424573068544072,2.54
0.004436623810623281,2.541
0.004449210996243424,2.542
0.004462318880457853,2.543
0.004475929457409054,2.544
0.004490021779330512,2.545
0.004504571619779954,2.546
0.00451955202088032,2.547
0.00453493438153528,2.548
0.004550689444441518,2.549
0.004566787947421252,2.55
0.0045832009835418625,2.551
0.004599900142542311,2.552
0.004616857462693116,2.553
0.004634045166020382,2.554
0.004651435135833909,2.555
0.00466899813331392,2.556
0.004686702795419087,2.557
0.004704514649554112,2.558
0.004722395769697685,2.559
0.004740305613429708,2.56
0.0047582028903190195,2.561
0.004776047962826777,2.562
0.004793805363281236,2.563
0.004811445958345133,2.564
0.004828948176230364,2.565
0.00484629775949531,2.566
0.004863485743538158,2.567
0.004880505246109233,2.568
0.004897349159758515,2.569
0.004914010603192685,2.57
0.004930485276721558,2.571
0.004946773332439219,2.572
0.004962879550512296,2.573
0.004978812113441772,2.574
0.004994580807036647,2.575
0.005010195427782711,2.576
0.005025664867486001,2.577
0.005040996964033648,2.578
0.005056198894966336,2.579
0.005071277717644916,2.58
0.005086240637563192,2.581
0.005101094686870747,2.582
0.005115845688531293,2.583
0.005130496928414315,2.584
0.005145048713242124,2.585
0.005159499608110054,2.586
0.005173848696293853,2.587
0.005188097691815908,2.588
0.0052022522766188095,2.589
0.005216322420330563,2.59
0.005230321619476589,2.591
0.005244265219037448,2.592
0.00525816819666201,2.593
0.005272043009175892,2.594
0.005285898170946474,2.595
0.005299737710203357,2.596
0.005313561013108191,2.597
0.0053273627693990735,2.598
0.0053411330406606845,2.599
0.005354857358045739,2.6
0.005368517153757657,2.601
0.0053820911186608575,2.602
0.005395557315757522,2.603
0.0054088952142308955,2.604
0.005422086952807726,2.605
0.005435117525808955,2.606
0.0054479739240528855,2.607
0.005460643512702898,2.608
0.005473112080451953,2.609
0.005485362238308313,2.61
0.005497372981608254,2.611
0.005509120642471366,2.612
0.00552058060991901,2.613
0.005531729092315501,2.614
0.005542544511020854,2.615
0.005553008192096227,2.616
0.005563104034807626,2.617
0.00557281698723817,2.618
0.005582130839512622,2.619
0.005591027003541965,2.62
0.0055994856303787964,2.621
0.005607488272930341,2.622
0.005615020230470915,2.623
0.0056220714478457,2.624
0.005628635661169301,2.625
0.0056347080442715166,2.626
0.005640282553255964,2.627
0.00564535089499943,2.628
0.005649903861630372,2.629
0.0056539336813626094,2.63
0.005657435858405607,2.631
0.005660410130131262,2.632
0.005662860711130323,2.633
0.005664795977010221,2.634
0.005666227647504519,2.635
0.005667169425026317,2.636
0.005667635036999996,2.637
0.005667636224935327,2.638
0.005667182245194321,2.639
0.005666281916628436,2.64
0.005664947176159943,2.641
0.005663196290063929,2.642
0.005661055604396587,2.643
0.005658559436992074,2.644
0.005655748270150661,2.645
0.0056526659064627316,2.646
0.005649356431075455,2.647
0.005645861645029301,2.648
0.005642219365644037,2.649
0.005638462821110937,2.65
0.00563462107857296,2.651
0.005630720097442238,2.652
0.0056267839892758615,2.653
0.005622836242920281,2.654
0.005618900737752664,2.655
0.005615002404400606,2.656
0.005611167470492894,2.657
0.00560742330322201,2.658
0.005603797909207357,2.659
0.005600319171421376,2.66
0.00559701390102758,2.661
0.005593906774642705,2.662
0.0055910192289894065,2.663
0.005588368479043382,2.664
0.005585966980088592,2.665
0.005583822496107447,2.666
0.005581938523952679,2.667
0.005580314762641868,2.668
0.005578947574859112,2.669
0.005577830501890158,2.67
0.005576954832993895,2.671
0.00557631013361873,2.672
0.005575884557100649,2.673
0.005575664738850998,2.674
0.005575635120284022,2.675
0.005575776901005245,2.676
0.005576067465819921,2.677
0.005576481022361957,2.678
0.00557699005738883,2.679
0.005577566592274026,2.68
0.0055781825548388946,2.681
0.005578809007308282,2.682
0.005579414666414005,2.683
0.005579965267695919,2.684
0.005580424998918438,2.685
0.005580759260482083,2.686
0.005580937174092047,2.687
0.005580932970415691,2.688
0.005580725978245832,2.689
0.005580299203717757,2.69
0.005579636814085002,2.691
0.005578721574746931,2.692
0.005577534047562471,2.693
0.005576054464311532,2.694
0.005574266186301595,2.695
0.005572159135383207,2.696
0.00556973226718076,2.697
0.005566994472194045,2.698
0.005563963433233047,2.699
0.005560662384010211,2.7
0.005557115909642648,2.701
0.005553347497032949,2.702
0.005549380439311066,2.703
0.0055452402826636285,2.704
0.0055409561520800244,2.705
0.005536560153016513,2.706
0.005532085310671107,2.707
0.005527563038980292,2.708
0.005523021582440973,2.709
0.0055184861899422325,2.71
0.0055139801793786455,2.711
0.0055095255909256525,2.712
0.00550514288840357,2.713
0.005500849945858448,2.714
0.00549666126060362,2.715
0.0054925883846917226,2.716
0.005488641484026065,2.717
0.00548483105467974,2.718
0.0054811690239385865,2.719
0.005477668966187214,2.72
0.0054743454279459645,2.721
0.005471212507210039,2.722
0.005468282107329342,2.723
0.005465562720968887,2.724
0.005463059472423111,2.725
0.00546077517076008,2.726
0.005458711489425771,2.727
0.005456869678045189,2.728
0.005455250653516268,2.729
0.0054538544915918655,2.73
