VaMe,time
-0.004375104856348141,0.001
-0.004074136446685264,0.002
-0.003774039046408181,0.003
-0.003475067064608003,0.004
-0.0031774672624638556,0.005
-0.0028814764733159958,0.006
-0.002587318706989557,0.007
-0.002295201907529655,0.008
-0.0020053149817619237,0.009
-0.0017178258827434518,0.01
-0.0014328813755956492,0.011
-0.001150608683902734,0.012
-0.0008711187349288369,0.013
-0.0005945104203366689,0.014
-0.0003208750151688423,0.015
-5.0299422677541744e-05,0.016
0.00021713284286862294,0.017
0.000481342401948661,0.018
0.000742254748895432,0.019
0.0009997998313668111,0.02
0.0012539105455506312,0.021
0.0015045210881915667,0.022
0.0017515661630169807,0.023
0.0019949809419099107,0.024
0.0022347008853392265,0.025
0.0024706615194527125,0.026
0.0027027993631261516,0.027
0.002931054438677404,0.028
0.003155373460993163,0.029
0.003375712561260521,0.03
0.0035920388222030327,0.031
0.003804330244209405,0.032
0.004012574033014714,0.033
0.004216763347294021,0.034
0.004416893462430543,0.035
0.004612959703622486,0.036
0.004804958778554089,0.037
0.0049928920616195,0.038
0.005176768130177751,0.039
0.005356603108857038,0.04
0.005532418576603665,0.041
0.00570423793147968,0.042
0.0058720835084549545,0.043
0.006035976127054202,0.044
0.0061959359088300464,0.045
0.006351982066632462,0.046
0.006504131460419228,0.047
0.006652397997103821,0.048
0.006796794276494705,0.049
0.006937334386376564,0.05
0.007074036074859668,0.051
0.007206921624284244,0.052
0.007336017479128182,0.053
0.007461352888909443,0.054
0.007582957890769631,0.055
0.0077008608789058694,0.056
0.007815086382513879,0.057
0.007925654607784799,0.058
0.008032583905964594,0.059
0.008135895349592226,0.06
0.008235617657754324,0.061
0.008331791188888816,0.062
0.008424470147661869,0.063
0.008513722456086427,0.064
0.008599627175580339,0.065
0.00868226980167228,0.066
0.008761736702295518,0.067
0.008838111405379054,0.068
0.008911474650055162,0.069
0.008981906712689822,0.07
0.009049489040656108,0.071
0.009114303926128657,0.072
0.009176432679528569,0.073
0.009235953255442561,0.074
0.009292938145893966,0.075
0.009347453004836338,0.076
0.009399556156266729,0.077
0.009449298982138157,0.078
0.009496727140450386,0.079
0.009541882519134843,0.08
0.0095848057071209,0.081
0.009625538560346954,0.082
0.009664126244385363,0.083
0.009700618068156277,0.084
0.009735066560169285,0.085
0.009767524626000567,0.086
0.009798041910891217,0.087
0.009826663163567131,0.088
0.009853430106270614,0.089
0.009878384586905105,0.09
0.009901569875009513,0.091
0.009923029019621528,0.092
0.009942801476395896,0.093
0.009960920929249679,0.094
0.009977415893142045,0.095
0.009992311031182722,0.096
0.010005626827257485,0.097
0.010017378683299738,0.098
0.010027578290687601,0.099
0.010036237946042446,0.1
0.010043375703903486,0.101
0.010049019118033983,0.102
0.01005320658818198,0.103
0.010055986131844425,0.104
0.01005741186881256,0.105
0.010057539014182488,0.106
0.01005641901547356,0.107
0.010054097034526312,0.108
0.01005061242533506,0.109
0.010046000482287583,0.11
0.01004029386105659,0.111
0.010033523645092165,0.112
0.010025720494415954,0.113
0.010016915980147416,0.114
0.010007143899513765,0.115
0.009996441214908306,0.116
0.009984848295123642,0.117
0.009972408316132534,0.118
0.009959165931253136,0.119
0.009945165564178812,0.12
0.009930449832266394,0.121
0.009915058610534775,0.122
0.009899029076880627,0.123
0.009882396750745403,0.124
0.00986519709227511,0.125
0.009847466765235067,0.126
0.009829243386752716,0.127
0.00981056341905811,0.128
0.009791460440543194,0.129
0.009771967267759554,0.13
0.009752122291147308,0.131
0.009731976776727843,0.132
0.009711599980774794,0.133
0.009691080834121698,0.134
0.009670526226537886,0.135
0.00965005663108023,0.136
0.00962980022122047,0.137
0.009609886682908622,0.138
0.009590442011277862,0.139
0.00957158574840804,0.14
0.009553431022667615,0.141
0.009536085910644759,0.142
0.009519654603628481,0.143
0.009504238135151418,0.144
0.009489935014581676,0.145
0.009476842034977645,0.146
0.00946505531491667,0.147
0.009454671421577321,0.148
0.009445788322768295,0.149
0.00943850594090149,0.15
0.009432926142210833,0.151
0.009429152031141077,0.152
0.009427286489280443,0.153
0.00942743008487435,0.154
0.009429678741992959,0.155
0.009434121711426057,0.156
0.009440840253282375,0.157
0.009449907040992049,0.158
0.009461386008076892,0.159
0.009475332611237324,0.16
0.009491794856499978,0.161
0.009510815176785934,0.162
0.009532432661738631,0.163
0.00955668492527068,0.164
0.009583609069193031,0.165
0.009613241504483656,0.166
0.009645616693631514,0.167
0.009680765115950415,0.168
0.009718711035589949,0.169
0.009759470875971343,0.17
0.009803052522375837,0.171
0.009849455121766016,0.172
0.009898669246718868,0.173
0.009950677708011488,0.174
0.010005456640408646,0.175
0.010062976022902261,0.176
0.010123199223620656,0.177
0.010186081909703104,0.178
0.010251571357431006,0.179
0.010319606925663874,0.18
0.010390121347421372,0.181
0.010463042192461462,0.182
0.010538293348093664,0.183
0.010615796502146741,0.184
0.010695472385641122,0.185
0.01077724143182995,0.186
0.010861023695835735,0.187
0.010946738216406843,0.188
0.01103430217372268,0.189
0.011123630031708756,0.19
0.01121463249579484,0.191
0.011307214902072791,0.192
0.011401275335906336,0.193
0.011496704266931909,0.194
0.011593387300083226,0.195
0.011691210375146826,0.196
0.011790065582078667,0.197
0.011889856183846385,0.198
0.011990499707738324,0.199
0.012091928135755698,0.2
0.012194084806765282,0.201
0.012296918491306628,0.202
0.012400376476370323,0.203
0.012504399895926006,0.204
0.01260892306742815,0.205
0.012713874756457334,0.206
0.012819178322999052,0.207
0.012924750047971667,0.208
0.013030496771361812,0.209
0.01313631429268196,0.21
0.013242087572535819,0.211
0.013347693042406314,0.212
0.013453002622253683,0.213
0.013557888606715899,0.214
0.01366222846416299,0.215
0.013765908728354079,0.216
0.013868827438792074,0.217
0.013970894879672329,0.218
0.01407203257135769,0.219
0.014172170550665842,0.22
0.014271243013584725,0.221
0.014369182744193302,0.222
0.014465916097344954,0.223
0.014561361452886987,0.224
0.014655432112664426,0.225
0.014748041302288453,0.226
0.01483910673042347,0.227
0.014928553941231455,0.228
0.015016318459605547,0.229
0.015102346735155942,0.23
0.015186595946106293,0.231
0.01526903285594,0.232
0.015349632043497399,0.233
0.015428373836697292,0.234
0.01550524213596999,0.235
0.01558022208701049,0.236
0.015653297350524342,0.237
0.015724446567385857,0.238
0.01579363960334506,0.239
0.015860836557039737,0.24
0.015925992287206953,0.241
0.01598906534016461,0.242
0.016050028087136296,0.243
0.016108875661534898,0.244
0.016165631841994543,0.245
0.016220350277573136,0.246
0.01627311019625492,0.247
0.016324006825919442,0.248
0.01637313950264231,0.249
0.016420604425275296,0.25
0.016466496949607737,0.251
0.016510919811612346,0.252
0.016553990364511616,0.253
0.016595843757608652,0.254
0.016636632222360538,0.255
0.016676521481797248,0.256
0.016715685456008426,0.257
0.01675430033121692,0.258
0.01679253882740952,0.259
0.016830565215818192,0.26
0.016868531540194968,0.261
0.016906575689847044,0.262
0.016944821694159014,0.263
0.016983381716978514,0.264
0.01702235892590987,0.265
0.01706185080833904,0.266
0.017101952694420514,0.267
0.01714276112575129,0.268
0.01718437656805109,0.269
0.017226904921537823,0.27
0.017270457409352062,0.271
0.01731514869816763,0.272
0.017361093364530646,0.273
0.01740840105379549,0.274
0.017457171746073138,0.275
0.017507494014619724,0.276
0.01755944765502126,0.277
0.017613108316279186,0.278
0.017668551042803054,0.279
0.017725851709008467,0.28
0.017785086690776344,0.281
0.01784633148613252,0.282
0.017909659002605428,0.283
0.017975137936020104,0.284
0.018042831282616863,0.285
0.018112794781024216,0.286
0.018185075084074548,0.287
0.018259707633648134,0.288
0.01833671438834738,0.289
0.01841610183650092,0.29
0.018497860057248596,0.291
0.01858196318763625,0.292
0.018668370737013405,0.293
0.018757029075967775,0.294
0.018847872905663688,0.295
0.018940826667351987,0.296
0.01903580581059644,0.297
0.019132717897257887,0.298
0.019231463632300185,0.299
0.0193319379610065,0.3
0.019434031249448373,0.301
0.019537630282869933,0.302
0.019642618527501286,0.303
0.019748874998111836,0.304
0.019856271249361266,0.305
0.019964667277174983,0.306
0.020073909408300655,0.307
0.020183832782907994,0.308
0.02029426712090926,0.309
0.02040504260189548,0.31
0.020515994073028912,0.311
0.02062696300682278,0.312
0.020737796918698235,0.313
0.020848346060339643,0.314
0.020958457562005928,0.315
0.021067969270486216,0.316
0.021176708367700685,0.317
0.021284497740715953,0.318
0.02139116688082742,0.319
0.021496562041194874,0.32
0.021600552503455907,0.321
0.02170303122861743,0.322
0.02180390891032455,0.323
0.021903102966801796,0.324
0.022000528320369882,0.325
0.022096098559527783,0.326
0.02218973808863803,0.327
0.022281397239882757,0.328
0.022371062897582155,0.329
0.02245876183848041,0.33
0.022544556515522694,0.331
0.022628534222864424,0.332
0.022710792169859745,0.333
0.022791424001916194,0.334
0.022870514734181446,0.335
0.022948145328070074,0.336
0.02302440071127383,0.337
0.023099375748063786,0.338
0.023173178599414535,0.339
0.02324593271196363,0.34
0.023317778076903706,0.341
0.023388871534166564,0.342
0.02345938531265327,0.343
0.02352950300242392,0.344
0.023599412667192916,0.345
0.02366929805252659,0.346
0.0237393313473344,0.347
0.02380967210813862,0.348
0.023880473121183392,0.349
0.023951889073702815,0.35
0.024024083836733195,0.351
0.02409723461560428,0.352
0.02417153240950791,0.353
0.02424717867207299,0.354
0.024324378624827007,0.355
0.024403332467231052,0.356
0.024484227363856217,0.357
0.02456723407410881,0.358
0.024652508975083757,0.359
0.024740197743394112,0.36
0.02483043709945077,0.361
0.024923353906316927,0.362
0.025019062233073597,0.363
0.02511765941912264,0.364
0.025219223032714573,0.365
0.02532381053034305,0.366
0.025431461382881767,0.367
0.025542199759565884,0.368
0.025656036331423954,0.369
0.025772968778457847,0.37
0.025892980852335618,0.371
0.026016039930303762,0.372
0.02614209424126367,0.373
0.026271072957301418,0.374
0.026402891485185324,0.375
0.026537460559504376,0.376
0.026674695957512977,0.377
0.02681452626793337,0.378
0.02695689659391421,0.379
0.0271017664961531,0.38
0.027249101567410807,0.381
0.02739886166674574,0.382
0.02755099431504627,0.383
0.02770543920060372,0.384
0.02786213900906782,0.385
0.028021048126149445,0.386
0.028182135919361462,0.387
0.028345385302194104,0.388
0.02851078833294243,0.389
0.028678340637924127,0.39
0.0288480358434185,0.391
0.02901986036542171,0.392
0.02919378827103105,0.393
0.029369776009075206,0.394
0.029547758187735834,0.395
0.029727646858856514,0.396
0.02990933513363163,0.397
0.030092702980367834,0.398
0.030277622735496754,0.399
0.030463963389653848,0.4
0.030651593631124217,0.401
0.03084038400335657,0.402
0.031030208685442758,0.403
0.0312209471005916,0.404
0.03141248483697855,0.405
0.0316047126040129,0.406
0.031797521648632004,0.407
0.03199079549324162,0.408
0.03218440225399534,0.409
0.032378194429709545,0.41
0.03257201732466852,0.411
0.032765719412075726,0.412
0.03295915814506701,0.413
0.033152199832133994,0.414
0.03334471549769071,0.415
0.03353657578549745,0.416
0.03372764777310523,0.417
0.03391779515747612,0.418
0.034106881227738854,0.419
0.034294772187861075,0.42
0.03448133745946661,0.421
0.03466644393900818,0.422
0.03484994603697301,0.423
0.035031682182679574,0.424
0.03521148657310261,0.425
0.035389210318488976,0.426
0.0355647395861464,0.427
0.03573800342247521,0.428
0.035908968657726685,0.429
0.03607762271212162,0.43
0.03624395255150044,0.431
0.036407935271538495,0.432
0.036569546930547724,0.433
0.036728777350231126,0.434
0.03688563565018992,0.435
0.037040141979733425,0.436
0.03719231133302462,0.437
0.037342143864059284,0.438
0.03748963119619636,0.439
0.03763477073756818,0.44
0.0377775744259008,0.441
0.03791806665121533,0.442
0.03805627283748871,0.443
0.03819220549831193,0.444
0.03832585953406881,0.445
0.03845722265652588,0.446
0.03858629369662854,0.447
0.0387130982727235,0.448
0.03883769656365082,0.449
0.03896018104389618,0.45
0.03908066331524135,0.451
0.039199254713304994,0.452
0.03931605495557579,0.453
0.039431160418689555,0.454
0.039544685587492974,0.455
0.03965678218795247,0.456
0.039767646985226245,0.457
0.03987751628411002,0.458
0.039986648616601186,0.459
0.04009530210120183,0.46
0.04020371930060857,0.461
0.04031212827099729,0.462
0.040420753575198004,0.463
0.04052982525672941,0.464
0.04063958088263217,0.465
0.04075026195872914,0.466
0.04086210740650349,0.467
0.04097534656400856,0.468
0.04109019351121754,0.469
0.04120684362144673,0.47
0.04132547221260093,0.471
0.041446234259822225,0.472
0.04156926367791445,0.473
0.04169467083848812,0.474
0.041822538117631584,0.475
0.04195291591185537,0.476
0.042085823343257237,0.477
0.04222125518918371,0.478
0.04235919237006488,0.479
0.04249961288281588,0.48
0.04264250180925055,0.481
0.04278785969019563,0.482
0.04293570840202181,0.483
0.043086093481437784,0.484
0.043239081715723014,0.485
0.04339475288811443,0.486
0.04355318560274923,0.487
0.0437144421957117,0.488
0.04387856409866303,0.489
0.0440455835035424,0.49
0.044215542911461694,0.491
0.044388510802017854,0.492
0.04456458850621661,0.493
0.04474390800250488,0.494
0.0449266221767957,0.495
0.045112890423931504,0.496
0.045302863022919096,0.497
0.04549666736013067,0.498
0.045694397914591005,0.499
0.04589611035483913,0.5
0.04610181867467584,0.501
0.04631149397131589,0.502
0.046525064832378456,0.503
0.04674242048382381,0.504
0.046963417026212775,0.505
0.04718788576279007,0.506
0.047415642326482675,0.507
0.04764649549666945,0.508
0.047880254747544204,0.509
0.04811673564394426,0.51
0.048355762202867504,0.511
0.048597165391678875,0.512
0.04884077714886585,0.513
0.04908641970251554,0.514
0.04933389247144122,0.515
0.04958296414696529,0.516
0.049833377393913594,0.517
0.05008486440052303,0.518
0.05033716524717864,0.519
0.05059004321464704,0.52
0.05084329437591605,0.521
0.05109674993367497,0.522
0.051350270512079736,0.523
0.051603732627192894,0.524
0.051857009221588084,0.525
0.05210995086530971,0.526
0.05236237911740731,0.527
0.05261409718808068,0.528
0.05286490979564855,0.529
0.05311464185484436,0.53
0.05336315190404874,0.531
0.05361033916412008,0.532
0.05385614335412005,0.533
0.054100536877660636,0.534
0.05434350983149136,0.535
0.05458504934695992,0.536
0.05482511848407689,0.537
0.05506364550837932,0.538
0.0553005300748192,0.539
0.055535659822551674,0.54
0.05576892778764481,0.541
0.056000247195133,0.542
0.056229562740847526,0.543
0.05645685659953264,0.544
0.05668214700822534,0.545
0.05690547796397154,0.546
0.057126900268263454,0.547
0.057346448608083814,0.548
0.057564125872506214,0.549
0.057779903171459014,0.55
0.05799373020739727,0.551
0.05820554422127725,0.552
0.05841527237075662,0.553
0.05862282943471274,0.554
0.05882811482638833,0.555
0.05903101239799704,0.556
0.059231394768936886,0.557
0.059429131588538416,0.558
0.05962409897715086,0.559
0.059816185974725516,0.56
0.060005293609288725,0.561
0.06019132339349401,0.562
0.06037415859013575,0.563
0.060553653406534215,0.564
0.060729643898037866,0.565
0.06090197480425407,0.566
0.061070525547532443,0.567
0.061235225081229784,0.568
0.06139605316031403,0.569
0.061553029294897164,0.57
0.06170619278506021,0.571
0.06185557830832695,0.572
0.06200119249028693,0.573
0.06214299790727983,0.574
0.062280907833220135,0.575
0.06241478766402013,0.576
0.06254445626079493,0.577
0.06266968483161361,0.578
0.06279019516493267,0.579
0.06290565995001612,0.58
0.06301570752422335,0.581
0.06311993276369095,0.582
0.06321791499040781,0.583
0.06330924249969962,0.584
0.06339354138761163,0.585
0.06347050389174701,0.586
0.06353990920975072,0.587
0.06360162900064081,0.588
0.06365561159637306,0.589
0.06370184652683805,0.59
0.06374032868558505,0.591
0.06377105294141637,0.592
0.06379404785824697,0.593
0.06380942362056059,0.594
0.06381740732665896,0.595
0.06381835675756414,0.596
0.06381275353359524,0.597
0.0638011791701161,0.598
0.06378427873523679,0.599
0.06376271863404108,0.6
0.06373715170422116,0.601
0.06370820684779682,0.602
0.0636765058711493,0.603
0.06364268975196455,0.604
0.06360743615302586,0.605
0.06357146176789094,0.606
0.0635355096744639,0.607
0.06350032490892603,0.608
0.06346662730178419,0.609
0.06343509597158131,0.61
0.06340637050656038,0.611
0.06338105610173775,0.612
0.06335972093323532,0.613
0.06334289126361753,0.614
0.06333105587716853,0.615
0.06332467974149758,0.616
0.0633242157621762,0.617
0.06333010546787017,0.618
0.06334276820637266,0.619
0.06336258786808718,0.62
0.06338991016526907,0.621
0.06342505348188136,0.622
0.06346832270797069,0.623
0.06352001527243946,0.624
0.06358041632807959,0.625
0.06364978565175634,0.626
0.06372834445084576,0.627
0.06381627273613656,0.628
0.06391371913111152,0.629
0.0640208137672742,0.63
0.06413767519947207,0.631
0.06426440907730457,0.632
0.06440110016459119,0.633
0.06454780052425729,0.634
0.0647045173140286,0.635
0.06487120399189004,0.636
0.06504775780063712,0.637
0.06523402362770024,0.638
0.06542980256494817,0.639
0.06563486414737905,0.64
0.06584896138969104,0.641
0.06607184606455958,0.642
0.06630328016171272,0.643
0.06654303963809963,0.644
0.06679090850466486,0.645
0.0670466642406253,0.646
0.06731005817319995,0.647
0.06758079690046455,0.648
0.06785853205716887,0.649
0.0681428608878172,0.65
0.06843333293040493,0.651
0.0687294586359877,0.652
0.06903072028861457,0.653
0.06933658603994243,0.654
0.06964652561997221,0.655
0.06996002431600509,0.656
0.07027659093398689,0.657
0.07059575622091098,0.658
0.0709170605552848,0.659
0.07124003269308514,0.66
0.07156416616416365,0.661
0.07188890525283978,0.662
0.07221364767023464,0.663
0.07253775783872937,0.664
0.07286058152997864,0.665
0.07318145925838788,0.666
0.07349973897456952,0.667
0.07381478711621585,0.668
0.07412599501466227,0.669
0.07443277652794095,0.67
0.07473455328607868,0.671
0.07503073065175718,0.672
0.0753206818287761,0.673
0.07560375931416187,0.674
0.0758793310807922,0.675
0.07614682153042437,0.676
0.07640574122751188,0.677
0.07665569847828871,0.678
0.07689638994980066,0.679
0.07712756982335092,0.68
0.07734900642580085,0.681
0.07756045438475076,0.682
0.07776166906110844,0.683
0.07795245525668576,0.684
0.07813271859378101,0.685
0.07830249728004278,0.686
0.07846196730537115,0.687
0.07861142181800138,0.688
0.07875123022876548,0.689
0.07888178681447332,0.69
0.07900346506655027,0.691
0.07911659727189141,0.692
0.07922148328722654,0.693
0.07931841078055177,0.694
0.07940766996643639,0.695
0.07948955960473404,0.696
0.07956438677985528,0.697
0.07963246319814593,0.698
0.07969410089071868,0.699
0.07974960998226896,0.7
0.07979930022053262,0.701
0.07984348623369932,0.702
0.07988249440537609,0.703
0.07991666746363414,0.704
0.07994636197694747,0.705
0.07997193439345304,0.706
0.07999371812397038,0.707
0.08001200908648129,0.708
0.08002707863252932,0.709
0.08003920978866667,0.71
0.08004873509679307,0.711
0.0800560591795227,0.712
0.0800616598496659,0.713
0.08006606820753258,0.714
0.08006983291655219,0.715
0.08007348057342954,0.716
0.08007749056187256,0.717
0.08008229304647504,0.718
0.08008827749328916,0.719
0.080095795747247,0.72
0.08010515736695317,0.721
0.0801166234741932,0.722
0.08013040553271188,0.723
0.08014667237594751,0.724
0.08016556439967681,0.725
0.08018720998984076,0.726
0.0802117376667935,0.727
0.08023927869266652,0.728
0.08026995815065624,0.729
0.08030387604437011,0.73
0.0803410855000414,0.731
0.08038158160907384,0.732
0.08042530875974152,0.733
0.08047217885517541,0.734
0.08052208944841753,0.735
0.08057493838977103,0.736
0.08063063514632524,0.737
0.08068910856382529,0.738
0.0807503103176806,0.739
0.08081421287119932,0.74
0.08088080061219159,0.741
0.08095005314751885,0.742
0.08102192281338488,0.743
0.08109631688906452,0.744
0.08117309913448482,0.745
0.08125211307383799,0.746
0.08133321431559982,0.747
0.08141629916960665,0.748
0.08150132413195617,0.749
0.08158831396521732,0.75
0.0816773565283365,0.751
0.08176858309890672,0.752
0.08186213546685618,0.753
0.08195813147206317,0.754
0.08205665247157196,0.755
0.0821577634374467,0.756
0.08226154741727933,0.757
0.08236813082362936,0.758
0.08247769094345458,0.759
0.08259044637766703,0.76
0.08270663439819874,0.761
0.0828264814302254,0.762
0.08295017410999808,0.763
0.08307783903597218,0.764
0.08320953611848106,0.765
0.08334526243031358,0.766
0.0834849591122721,0.767
0.08362851712340759,0.768
0.0837757812619816,0.769
0.08392655205580468,0.77
0.08408058453717986,0.771
0.08423758338237855,0.772
0.0843971952922083,0.773
0.08455900114942021,0.774
0.08472251151409543,0.775
0.08488716879086104,0.776
0.08505235791633602,0.777
0.08521742517198705,0.778
0.0853817023166293,0.779
0.085544531045903,0.78
0.08570528111308763,0.781
0.08586335476959221,0.782
0.08601817124216368,0.783
0.08616913677118573,0.784
0.08631562940013293,0.785
0.08645702610329534,0.786
0.08659276178045028,0.787
0.08672238729641968,0.788
0.08684560472779074,0.789
0.08696227216094518,0.79
0.08707237808033604,0.791
0.08717599128682521,0.792
0.08727320088249826,0.793
0.08736407333369943,0.794
0.08744864910395443,0.795
0.08752697134150285,0.796
0.08759911994878836,0.797
0.08766523477914018,0.798
0.08772552647016957,0.799
0.08778027749094447,0.8
0.08782983515611723,0.801
0.08787459706869691,0.802
0.08791498881724016,0.803
0.08795143439640564,0.804
0.08798432443947841,0.805
0.08801399552654851,0.806
0.08804073155882206,0.807
0.08806478181623353,0.808
0.08808638152547614,0.809
0.0881057671141844,0.81
0.08812318511582656,0.811
0.0881388952254342,0.812
0.08815316804771647,0.813
0.08816627802990111,0.814
0.08817849166979233,0.815
0.08819005043669619,0.816
0.08820115067587336,0.817
0.0882119312670876,0.818
0.08822248097761633,0.819
0.08823286300555101,0.82
0.08824314222379012,0.821
0.08825340307336231,0.822
0.08826375265521244,0.823
0.08827430754424022,0.824
0.08828516768847693,0.825
0.08829639058685079,0.826
0.08830798485402098,0.827
0.08831992806417745,0.828
0.08833219291567103,0.829
0.08834476494348979,0.83
0.08835764659006004,0.831
0.08837084853725317,0.832
0.08838437065181584,0.833
0.0883981773026545,0.834
0.08841217732089518,0.835
0.0884262202387201,0.836
0.08844010886750271,0.837
0.08845361590522058,0.838
0.08846649426002423,0.839
0.08847847950834277,0.84
0.08848928754869832,0.841
0.08849861167469893,0.842
0.0885061227820798,0.843
0.08851147445895492,0.844
0.0885143120628039,0.845
0.08851428239443047,0.846
0.08851103888860846,0.847
0.08850423687974526,0.848
0.0884935158166318,0.849
0.08847847656163972,0.85
0.08845867730006603,0.851
0.08843366322391756,0.852
0.08840301605621727,0.853
0.08836639960287487,0.854
0.0883235887273875,0.855
0.08827447773489125,0.856
0.08821906825300563,0.857
0.08815744037922546,0.858
0.0880897132169286,0.859
0.08801600155112652,0.86
0.08793637800964924,0.861
0.08785085452834043,0.862
0.08775938944131917,0.863
0.08766191032800282,0.864
0.08755834101906268,0.865
0.08744862983871629,0.866
0.08733277804750685,0.867
0.08721086454913683,0.868
0.08708306120323397,0.869
0.0869496335025149,0.87
0.08681092398888236,0.871
0.0866673197868258,0.872
0.08651921043248306,0.873
0.08636694937386943,0.874
0.08621083613528958,0.875
0.08605112251887732,0.876
0.08588802760991991,0.877
0.08572174819180872,0.878
0.08555246413054449,0.879
0.08538034295095837,0.88
0.08520554623872302,0.881
0.08502823823969245,0.882
0.08484859510832579,0.883
0.08466681231918244,0.884
0.08448310780019011,0.885
0.0842977190020907,0.886
0.08411089308538874,0.887
0.08392287050997084,0.888
0.08373386329172437,0.889
0.08354403312799133,0.89
0.08335348143604948,0.891
0.08316225954548992,0.892
0.0829703926997032,0.893
0.08277790688496288,0.894
0.08258485337244402,0.895
0.08239132837538905,0.896
0.08219748426969853,0.897
0.08200352865104196,0.898
0.08180970891258148,0.899
0.08161628297642806,0.9
0.08142348455567029,0.901
0.08123150159387621,0.902
0.08104047927014735,0.903
0.08085053523566664,0.904
0.08066176747603185,0.905
0.08047424810168369,0.906
0.0802880073361678,0.907
0.08010301596614577,0.908
0.07991917448057421,0.909
0.0797363141095517,0.91
0.07955421170310481,0.911
0.07937261668161223,0.912
0.07919128341747105,0.913
0.07900999962017886,0.914
0.07882860241934488,0.915
0.07864697729767313,0.916
0.07846503939451586,0.917
0.0782827022235737,0.918
0.0780998476522828,0.919
0.07791631566408307,0.92
0.07773191850178068,0.921
0.0775464643580152,0.922
0.07735977636259488,0.923
0.07717170473470314,0.924
0.0769821352194924,0.925
0.07679099635626985,0.926
0.07659826616177165,0.927
0.07640397624493525,0.928
0.0762082092221067,0.929
0.07601108459363702,0.93
0.07581273159927822,0.931
0.07561326084258829,0.932
0.07541275989199722,0.933
0.07521132403760869,0.934
0.07500910293785935,0.935
0.07480633770480462,0.936
0.07460337719919184,0.937
0.07440067184514476,0.938
0.07419874739509245,0.939
0.07399816434714872,0.94
0.07379947467015995,0.941
0.07360319548769499,0.942
0.07340981131525702,0.943
0.07321979306072701,0.944
0.0730336144552544,0.945
0.07285175823373333,0.946
0.07267471322228532,0.947
0.07250296518413782,0.948
0.07233698425884255,0.949
0.07217721171186825,0.95
0.07202404883092547,0.951
0.0718778508727937,0.952
0.07173892817005588,0.953
0.0716075542785912,0.954
0.07148397778056143,0.955
0.07136843146098186,0.956
0.07126113178011516,0.957
0.0711622675581852,0.958
0.07107199068657506,0.959
0.07099042522649028,0.96
0.07091769302206936,0.961
0.0708539380822981,0.962
0.07079933618909154,0.963
0.07075408722742375,0.964
0.07071839435063587,0.965
0.0706924375306739,0.966
0.07067635080118259,0.967
0.07067020978528421,0.968
0.07067402801036116,0.969
0.0706877565071075,0.97
0.07071128507701709,0.971
0.07074444441238595,0.972
0.07078700640270842,0.973
0.07083868520503776,0.974
0.07089914574657222,0.975
0.07096802005289153,0.976
0.07104492525170378,0.977
0.07112947790874394,0.978
0.07122130253499706,0.979
0.07132003400389206,0.98
0.07142531453940479,0.981
0.07153678609954468,0.982
0.07165407843438566,0.983
0.07177679334015692,0.984
0.07190449110973986,0.985
0.07203669260991634,0.986
0.07217290474699507,0.987
0.07231266084864202,0.988
0.07245556081940814,0.989
0.07260129955312124,0.99
0.07274967559257604,0.991
0.0729005754835739,0.992
0.07305393501685652,0.993
0.07320969305674754,0.994
0.0733677709928382,0.995
0.07352809541876783,0.996
0.07369064110565497,0.997
0.07385546204427489,0.998
0.07402269865085237,0.999
0.07419256285522113,1.0
0.07436530797333835,1.001
0.07454119341885115,1.002
0.07472045393921749,1.003
0.07490327922151445,1.004
0.07508980414404799,1.005
0.07528010515510358,1.006
0.07547419787673203,1.007
0.07567203728265551,1.008
0.07587352720143535,1.009
0.07607854130265357,1.01
0.0762869494026876,1.011
0.07649864094124079,1.012
0.0767135400637112,1.013
0.07693160939864593,1.014
0.07715284191113185,1.015
0.07737724226237318,1.016
0.07760480070445355,1.017
0.07783546659190331,1.018
0.07806913391092175,1.019
0.07830564463295653,1.02
0.07854480035116258,1.021
0.07878637064392799,1.022
0.07903009588762532,1.023
0.0792756869309977,1.024
0.07952282376806898,1.025
0.07977115402329565,1.026
0.08002029047143815,1.027
0.08026980590245554,1.028
0.0805192241063511,1.029
0.08076800860147737,1.03
0.08101555412015357,1.031
0.08126118372627923,1.032
0.08150415079880445,1.033
0.08174364873205024,1.034
0.08197883236363189,1.035
0.0822088462076876,1.036
0.08243284728084263,1.037
0.08265001078056806,1.038
0.08285951414398425,1.039
0.08306051414056301,1.04
0.08325214826305358,1.041
0.08343357349302404,1.042
0.08360401935161235,1.043
0.08376282550483559,1.044
0.08390945147226579,1.045
0.08404345835525694,1.046
0.08416446812517583,1.047
0.08427211305125297,1.048
0.08436599821450896,1.049
0.08444569786771984,1.05
0.08451078225093098,1.051
0.08456085319531352,1.052
0.08459557298533575,1.053
0.08461468250304623,1.054
0.08461800834351615,1.055
0.08460545947596282,1.056
0.08457701535776509,1.057
0.08453270806983888,1.058
0.08447260004843293,1.059
0.08439675663120028,1.06
0.08430521673920992,1.061
0.08419797960111691,1.062
0.08407502612766758,1.063
0.08393636873772924,1.064
0.08378210625202924,1.065
0.08361246576133465,1.066
0.08342782249201049,1.067
0.08322869436989791,1.068
0.08301571313721733,1.069
0.08278957806188023,1.07
0.08255100299086672,1.071
0.08230067536242826,1.072
0.08203924571330373,1.073
0.08176734651290159,1.074
0.0814856204450042,1.075
0.0811947421594992,1.076
0.08089542930748238,1.077
0.08058844258391154,1.078
0.08027457473208033,1.079
0.0799546294914317,1.08
0.07962939374401863,1.081
0.07929961156126705,1.082
0.07896597275749209,1.083
0.07862911884174018,1.084
0.0782896540766596,1.085
0.0779481493589908,1.086
0.07760513630397882,1.087
0.07726109592288667,1.088
0.07691645244749848,1.089
0.0765715819177863,1.09
0.07622683357597176,1.091
0.07588255433107173,1.092
0.07553910807264977,1.093
0.07519688427143072,1.094
0.07485629201368016,1.095
0.07451773908252148,1.096
0.07418160538911882,1.097
0.073848231200005,1.098
0.0735179309195065,1.099
0.07319101837343792,1.1
0.0728678245966029,1.101
0.07254870211865219,1.102
0.07223401755414019,1.103
0.07192413606867797,1.104
0.07161940202184365,1.105
0.0713201200014542,1.106
0.0710265399140243,1.107
0.07073884893902929,1.108
0.07045717179940601,1.109
0.07018157881004693,1.11
0.06991209897041373,1.111
0.06964873382745984,1.112
0.06939146758417156,1.113
0.0691402699889054,1.114
0.06889509044616171,1.115
0.06865584528061047,1.116
0.06842240625278016,1.117
0.06819460090824267,1.118
0.06797222670610825,1.119
0.06775507059051196,1.12
0.06754292597768856,1.121
0.06733560457243772,1.122
0.06713294300166323,1.123
0.06693480484557887,1.124
0.06674107892403328,1.125
0.06655167448306924,1.126
0.0663665130720154,1.127
0.06618551572691302,1.128
0.06600858537092225,1.129
0.06583559208560417,1.13
0.0656663752160961,1.131
0.06550076643214507,1.132
0.06533862142357434,1.133
0.0651798455719092,1.134
0.065024406509351,1.135
0.0648723317765231,1.136
0.06472369292027647,1.137
0.06457858002841631,1.138
0.06443707268044517,1.139
0.06429921600400479,1.14
0.06416501095176198,1.141
0.06403441946746206,1.142
0.06390737534330143,1.143
0.06378379302671508,1.144
0.06366357347847224,1.145
0.06354660850240995,1.146
0.06343278422390229,1.147
0.06332198343756003,1.148
0.06321408587377529,1.149
0.06310896550009909,1.15
0.06300648479076959,1.151
0.06290648692713789,1.152
0.06280878742728771,1.153
0.06271316636960708,1.154
0.06261936129680278,1.155
0.06252706098922642,1.156
0.06243590343981331,1.157
0.06234548302524098,1.158
0.0622553675496157,1.159
0.06216512073421768,1.16
0.0620743246802363,1.161
0.0619825976616889,1.162
0.06188960364480219,1.163
0.06179505154348091,1.164
0.06169868410283185,1.165
0.0616002578187295,1.166
0.0614995182988309,1.167
0.061396182053409784,1.168
0.061289937116774114,1.169
0.06118046246533332,1.17
0.06106745343991504,1.171
0.06095064128817975,1.172
0.060829801695555664,1.173
0.06070475136310635,1.174
0.060575334984763717,1.175
0.06044140818514452,1.176
0.06030282330482913,1.177
0.06015942320497687,1.178
0.06001104389872694,1.179
0.059857521700060895,1.18
0.05969869716813445,1.181
0.05953440813292422,1.182
0.059364473555407714,1.183
0.059188687427962176,1.184
0.05900683984146085,1.185
0.05881875638502896,1.186
0.05862433519146042,1.187
0.05842357047030376,1.188
0.05821655966339716,1.189
0.05800349456174245,1.19
0.05778463906698915,1.191
0.05756029773523819,1.192
0.05733078120391441,1.193
0.05709637918813402,1.194
0.05685735252003623,1.195
0.05661394400118843,1.196
0.056366395471936795,1.197
0.05611496086467205,1.198
0.05585991352549384,1.199
0.05560154926390215,1.2
0.055340186383592824,1.201
0.05507616345062766,1.202
0.054809835109501846,1.203
0.05454156609400512,1.204
0.05427172367864983,1.205
0.05400066892164902,1.206
0.05372874689263943,1.207
0.05345627583140291,1.208
0.0531835371508625,1.209
0.052910772101978656,1.21
0.05263818861985194,1.211
0.05236597331811657,1.212
0.05209430056290783,1.213
0.051823333976881734,1.214
0.05155321943530334,1.215
0.051284074609948174,1.216
0.05101598563836182,1.217
0.050749014644963966,1.218
0.050483208012878415,1.219
0.050218595140928995,1.22
0.049955182522571584,1.221
0.04969295837849512,1.222
0.04943191346545076,1.223
0.04917206654397993,1.224
0.04891348038071858,1.225
0.04865626263339075,1.226
0.04840055237545214,1.227
0.04814649689513605,1.228
0.04789422889365716,1.229
0.04764385740461025,1.23
0.04739547612244027,1.231
0.04714917832238754,1.232
0.046905067135256384,1.233
0.046663258559254156,1.234
0.04642387888849311,1.235
0.04618705889646322,1.236
0.04595292698269264,1.237
0.04572160236985898,1.238
0.04549318771373316,1.239
0.04526776086549396,1.24
0.04504537007588443,1.241
0.04482603873223913,1.242
0.04460977849331005,1.243
0.04439660224458596,1.244
0.04418652910456382,1.245
0.04397957848168587,1.246
0.04377575674298871,1.247
0.0435750482293691,1.248
0.04337742032204658,1.249
0.043182838039904636,1.25
0.04299127646671222,1.251
0.0428027245584756,1.252
0.04261717958111146,1.253
0.04243463413836071,1.254
0.04225506190249291,1.255
0.042078412016779705,1.256
0.041904616362584246,1.257
0.04173360254161263,1.258
0.04156530388218572,1.259
0.041399663971360606,1.26
0.041236636716341445,1.261
0.04107618347205958,1.262
0.040918268447863566,1.263
0.04076285275739404,1.264
0.04060988677679363,1.265
0.04045930114443579,1.266
0.04031099978762662,1.267
0.040164860265443865,1.268
0.040020742611835955,1.269
0.039878502245495925,1.27
0.03973800234375522,1.271
0.039599123677493436,1.272
0.039461770793430315,1.273
0.0393258731855101,1.274
0.039191380074186204,1.275
0.039058248137501785,1.276
0.03892642538285378,1.277
0.038795840622657195,1.278
0.03866640582444888,1.279
0.03853802665068732,1.28
0.03841061161444794,1.281
0.038284076234089214,1.282
0.038158343734473334,1.283
0.03803334438441551,1.284
0.037909014067114805,1.285
0.037785290863296524,1.286
0.037662107513823824,1.287
0.037539380997764424,1.288
0.03741700779807631,1.289
0.037294871993631865,1.29
0.037172860957041004,1.291
0.037050877949743544,1.292
0.03692884589644146,1.293
0.03680670122181485,1.294
0.03668438031827366,1.295
0.036561807689303304,1.296
0.03643889680007383,1.297
0.0363155643420275,1.298
0.03619174727047254,1.299
0.03606741267112545,1.3
0.03594255710552281,1.301
0.03581719622328635,1.302
0.035691348117010115,1.303
0.03556501758343889,1.304
0.03543819001370243,1.305
0.035310837055093844,1.306
0.03518292757110572,1.307
0.03505443792500356,1.308
0.03492536080047591,1.309
0.034795713273210724,1.31
0.03466554356282943,1.311
0.03453493425902466,1.312
0.03440399871673147,1.313
0.03427286807110574,1.314
0.03414167349740981,1.315
0.03401053904785215,1.316
0.0338795945354078,1.317
0.033748997298600904,1.318
0.03361894599542104,1.319
0.03348968012468883,1.32
0.03336146695118844,1.321
0.033234581364523896,1.322
0.03310928758656823,1.323
0.032985830300588256,1.324
0.032864433712522415,1.325
0.03274530099931637,1.326
0.032628612612256094,1.327
0.032514527755422185,1.328
0.032403188809012225,1.329
0.03229472309788243,1.33
0.03218923992668567,1.331
0.03208682913832807,1.332
0.03198756808893007,1.333
0.03189153475061837,1.334
0.03179881885847815,1.335
0.03170952539212833,1.336
0.03162376852978255,1.337
0.03154165912843037,1.338
0.031463295319397545,1.339
0.03138876399364903,1.34
0.031318149099107136,1.341
0.03125153689789593,1.342
0.031189013676268657,1.343
0.031130657517873743,1.344
0.031076529050412163,1.345
0.03102666693201439,1.346
0.030981089571623967,1.347
0.030939799080026895,1.348
0.030902783870530755,1.349
0.03087001987012442,1.35
0.030841471481845014,1.351
0.030817092850159808,1.352
0.030796829216951198,1.353
0.030780617555520497,1.354
0.030768385506118767,1.355
0.030760047998550182,1.356
0.03075550205126986,1.357
0.03075462221132432,1.358
0.030757259928946058,1.359
0.030763247667924154,1.36
0.03077240567124873,1.361
0.03078454956127056,1.362
0.0307994983113427,1.363
0.030817082120679812,1.364
0.03083714905842168,1.365
0.03085956894855415,1.366
0.030884233070430662,1.367
0.030911048924620082,1.368
0.030939930409402884,1.369
0.030970785457615446,1.37
0.031003505769318252,1.371
0.031037963691481978,1.372
0.031074016286620473,1.373
0.031111511581218578,1.374
0.03115029313440059,1.375
0.031190202680854692,1.376
0.031231081967047117,1.377
0.03127277477483469,1.378
0.03131512970944769,1.379
0.03135800375029006,1.38
0.03140126596903165,1.381
0.03144480036212847,1.382
0.031488506591313366,1.383
0.031532297721407844,1.384
0.031576094789978935,1.385
0.03161981898111221,1.386
0.03166338285912091,1.387
0.03170668216410751,1.388
0.031749589402609774,1.389
0.03179195064098548,1.39
0.031833586959351866,1.391
0.031874301107514595,1.392
0.03191388892141713,1.393
0.031952154418569245,1.394
0.031988926392204825,1.395
0.03202407312851695,1.396
0.03205751169301698,1.397
0.03208920934807603,1.398
0.03211917654645682,1.399
0.03214745279275176,1.4
0.03217408791082871,1.401
0.03219912392543289,1.402
0.03222258627263939,1.403
0.03224448830202662,1.404
0.03226484216050197,1.405
0.03228366738993699,1.406
0.032300994604115126,1.407
0.03231686489957626,1.408
0.03233132624316268,1.409
0.032344428384474544,1.41
0.032356217728015745,1.411
0.032366733017709606,1.412
0.03237600183174788,1.413
0.03238403720123261,1.414
0.03239083356019585,1.415
0.03239636213298251,1.416
0.03240056736507253,1.417
0.03240336562863508,1.418
0.032404645287707,1.419
0.032404267854739675,1.42
0.0324020724696048,1.421
0.03239788445840162,1.422
0.032391524623536526,1.423
0.032382814195193295,1.424
0.03237157197187257,1.425
0.032357606835527755,1.426
0.03234071735885639,1.427
0.03232070609667045,1.428
0.03229740121948806,1.429
0.03227067314073052,1.43
0.032240439888200155,1.431
0.03220665998387903,1.432
0.03216931451555951,1.433
0.032128386321369995,1.434
0.03208385122067713,1.435
0.032035688991502,1.436
0.031983904182638676,1.437
0.03192854283464756,1.438
0.03186969931639354,1.439
0.0318075121602371,1.44
0.03174214901691071,1.441
0.03167378590070756,1.442
0.03160259489765704,1.443
0.0315287515774769,1.444
0.03145245521470312,1.445
0.03137394578162271,1.446
0.03129350851300967,1.447
0.031211464812872482,1.448
0.03112815318015304,1.449
0.031043909427847943,1.45
0.030959057554115262,1.451
0.030873913176592545,1.452
0.030788789601388426,1.453
0.030703997944340224,1.454
0.030619841103413478,1.455
0.03053660536513663,1.456
0.030454553691180046,1.457
0.03037392256998282,1.458
0.030294921483543326,1.459
0.03021773459412414,1.46
0.03014252556129014,1.461
0.030069444584830674,1.462
0.02999863506916512,1.463
0.029930237872038554,1.464
0.02986439212233628,1.465
0.02980123244847518,1.466
0.02974088329670943,1.467
0.029683452051522268,1.468
0.0296290239123113,1.469
0.02957766091235024,1.47
0.029529404423690637,1.471
0.02948427873270492,1.472
0.029442294552457622,1.473
0.029403452781281154,1.474
0.029367748810393807,1.475
0.02933517707782929,1.476
0.029305735015635985,1.477
0.02927942521896614,1.478
0.0292562547248836,1.479
0.02923623078942248,1.48
0.029219353367620608,1.481
0.02920560657622809,1.482
0.02919495419257318,1.483
0.029187342225853143,1.484
0.02918270552246626,1.485
0.0291809740691905,1.486
0.029182077907678954,1.487
0.02918595113850224,1.488
0.029192535011890782,1.489
0.029201779321340528,1.49
0.02921364089328316,1.491
0.029228078320664114,1.492
0.029245043364142312,1.493
0.029264472123289108,1.494
0.029286281182941177,1.495
0.029310370658482347,1.496
0.029336630324803912,1.497
0.02936494480729979,1.498
0.029395197156945812,1.499
0.029427271339795124,1.5
0.02946105371133763,1.501
0.029496433103357023,1.502
0.02953329900749955,1.503
0.029571537559933993,1.504
0.02961102545066153,1.505
0.029651623004672174,1.506
0.029693169785118094,1.507
0.02973548608804508,1.508
0.02977837996330901,1.509
0.029821656459214762,1.51
0.029865126165577353,1.511
0.029908610943096367,1.512
0.029951944698446354,1.513
0.029994967413741185,1.514
0.030037514318757792,1.515
0.030079408989268707,1.516
0.03012046809913582,1.517
0.030160513411922857,1.518
0.030199379612972355,1.519
0.030236910912500494,1.52
0.030272949340091743,1.521
0.030307328692203185,1.522
0.030339884398274154,1.523
0.03037047083795833,1.524
0.0303989704192569,1.525
0.030425287148654296,1.526
0.0304493300267763,1.527
0.03047100417948639,1.528
0.030490222060865768,1.529
0.030506924356392417,1.53
0.030521093150366108,1.531
0.030532750874646027,1.532
0.030541946650205716,1.533
0.030548736395633956,1.534
0.030553168614459076,1.535
0.030555284760564842,1.536
0.030555130015078036,1.537
0.030552763563561673,1.538
0.030548262324764233,1.539
0.030541717570691553,1.54
0.030533225691694043,1.541
0.030522876112529195,1.542
0.03051074243339656,1.543
0.03049688221124979,1.544
0.03048134403993749,1.545
0.030464175919677892,1.546
0.030445430884677407,1.547
0.030425168922400332,1.548
0.03040345500723654,1.549
0.030380353059111256,1.55
0.030355917183511258,1.551
0.030330185519527122,1.552
0.030303182778403673,1.553
0.030274931016686307,1.554
0.030245462233651915,1.555
0.030214827202347368,1.556
0.030183098143548887,1.557
0.030150364858397265,1.558
0.030116725443426733,1.559
0.030082273940833276,1.56
0.030047088594437464,1.561
0.030011225189492046,1.562
0.02997471675805845,1.563
0.02993757599586853,1.564
0.02989979706323499,1.565
0.029861357013130047,1.566
0.02982221827997004,1.567
0.029782332914261234,1.568
0.02974164832095249,1.569
0.029700113532545553,1.57
0.029657684703928468,1.571
0.029614328538938955,1.572
0.02957002263842013,1.573
0.02952475222412094,1.574
0.029478503306331803,1.575
0.029431253446973067,1.576
0.029382963500821254,1.577
0.029333574874385985,1.578
0.029283013014401907,1.579
0.02923119273090544,1.58
0.029178021289361186,1.581
0.029123398581765426,1.582
0.02906721532958167,1.583
0.029009350559676992,1.584
0.028949669653452356,1.585
0.02888802406636218,1.586
0.028824253317894774,1.587
0.028758189209561462,1.588
0.028689661677826057,1.589
0.028618505287137296,1.59
0.02854456495953092,1.591
0.028467699064300068,1.592
0.028387777792195965,1.593
0.028304675372684534,1.594
0.028218258766570904,1.595
0.028128381957693908,1.596
0.02803489235999553,1.597
0.02793764441892193,1.598
0.027836512346574766,1.599
0.027731399706320093,1.6
0.02762224656299351,1.601
0.027509034030680758,1.602
0.027391784487211426,1.603
0.027270554866589754,1.604
0.02714542205728393,1.605
0.027016466489962625,1.606
0.02688376721673754,1.607
0.0267474141641479,1.608
0.02660752682289888,1.609
0.026464266062722293,1.61
0.02631783461969439,1.611
0.0261684674840622,1.612
0.026016415332613885,1.613
0.02586192689739419,1.614
0.02570523906300202,1.615
0.025546578717801038,1.616
0.02538617029853675,1.617
0.025224241412918263,1.618
0.025061024486077874,1.619
0.024896755163219986,1.62
0.02473166830416379,1.621
0.02456599245142844,1.622
0.024399943731460302,1.623
0.024233720530540136,1.624
0.024067500754950462,1.625
0.0239014423631078,1.626
0.023735685837291663,1.627
0.023570357327414204,1.628
0.023405572584238053,1.629
0.023241442031900508,1.63
0.023078076556683154,1.631
0.022915592770476213,1.632
0.02275411617055056,1.633
0.022593781020724304,1.634
0.022434726652640926,1.635
0.022277090673185403,1.636
0.022121001245501322,1.637
0.02196657328983668,1.638
0.021813911918490546,1.639
0.021663120385179712,1.64
0.021514307586829005,1.641
0.02136759266202702,1.642
0.02122310609273518,1.643
0.021080987210610063,1.644
0.020941378334167707,1.645
0.020804417029726404,1.646
0.02067023063012716,1.647
0.02053893679137965,1.648
0.020410648190095988,1.649
0.02028547532294618,1.65
0.02016352434755115,1.651
0.02004489390197606,1.652
0.01992967757284225,1.653
0.019817972550242285,1.654
0.019709887941242673,1.655
0.019605546723384257,1.656
0.019505079901333905,1.657
0.019408616513827602,1.658
0.019316277663388063,1.659
0.019228179137368587,1.66
0.01914443748063877,1.661
0.01906517265028358,1.662
0.01899050604930888,1.663
0.018920556081900332,1.664
0.018855433701535463,1.665
0.01879523985009978,1.666
0.01874006552862853,1.667
0.018689993965486658,1.668
0.018645103495812894,1.669
0.01860546965450877,1.67
0.018571165487866005,1.671
0.018542259796915588,1.672
0.01851881361000205,1.673
0.018500876078898006,1.674
0.018488482092532888,1.675
0.018481652877470705,1.676
0.018480398027717518,1.677
0.01848471673761356,1.678
0.018494597566728325,1.679
0.018510017122593463,1.68
0.018530938321024145,1.681
0.018557308918225768,1.682
0.018589060767056277,1.683
0.018626109790630205,1.684
0.01866835625940112,1.685
0.01871568491082079,1.686
0.01876796484170742,1.687
0.01882504965378756,1.688
0.018886778589705982,1.689
0.01895297911178511,1.69
0.019023470713058648,1.691
0.019098069136995473,1.692
0.019176589967236854,1.693
0.019258850753325073,1.694
0.019344671218371842,1.695
0.019433871432691256,1.696
0.019526268109702295,1.697
0.01962166966789058,1.698
0.019719871868906353,1.699
0.019820656555117496,1.7
0.01992379411882124,1.701
0.020029047612947565,1.702
0.0201361763206804,1.703
0.02024493801195192,1.704
0.020355089760577167,1.705
0.020466387456431506,1.706
0.020578584601722766,1.707
0.020691431417367363,1.708
0.02080467539267084,1.709
0.0209180639714418,1.71
0.02103134908261597,1.711
0.021144291975651548,1.712
0.02125666583042406,1.713
0.0213682533959646,1.714
0.02147883971378974,1.715
0.02158820688130532,1.716
0.02169613985757148,1.717
0.021802442847059064,1.718
0.021906956560897802,1.719
0.02200956756428542,1.72
0.022110206105286967,1.721
0.022208832656577995,1.722
0.022305418920997667,1.723
0.02239993603986073,1.724
0.0224923584572028,1.725
0.022582676704365135,1.726
0.02267090706660902,1.727
0.022757093027012443,1.728
0.022841298717250498,1.729
0.02292359671593917,1.73
0.023004056044889507,1.731
0.02308273812845243,1.732
0.023159702193483598,1.733
0.023235013015598188,1.734
0.023308744290081458,1.735
0.023380976544838557,1.736
0.023451791383789923,1.737
0.023521264160006425,1.738
0.02358945704690291,1.739
0.02365641453726913,1.74
0.023722162757896452,1.741
0.02378671195096407,1.742
0.023850060070980426,1.743
0.02391219587314464,1.744
0.023973100572479047,1.745
0.024032747329092895,1.746
0.024091098204669124,1.747
0.024148100169025202,1.748
0.024203684362304193,1.749
0.02425777124555351,1.75
0.024310278925852653,1.751
0.024361129849395848,1.752
0.024410252791467687,1.753
0.02445757871063284,1.754
0.024503032580128453,1.755
0.02454652945717015,1.756
0.02458798173035699,1.757
0.02462731405846242,1.758
0.02466447751256102,1.759
0.024699457870608302,1.76
0.024732276149583055,1.761
0.02476298072649355,1.762
0.024791632953624094,1.763
0.024818293880522743,1.764
0.02484302239326457,1.765
0.02486588614574012,1.766
0.024886975288416213,1.767
0.024906409360110973,1.768
0.024924334780981657,1.769
0.024940914743552266,1.77
0.024956315193013653,1.771
0.024970692078884922,1.772
0.024984184759276575,1.773
0.024996915759329563,1.774
0.025008992144744606,1.775
0.02502050485077909,1.776
0.02503152616466266,1.777
0.025042107120310825,1.778
0.025052276213158125,1.779
0.025062039577603945,1.78
0.02507138169318473,1.781
0.02508026574526836,1.782
0.02508863347984894,1.783
0.02509640583796115,1.784
0.025103486875824248,1.785
0.025109772111029455,1.786
0.025115159449884072,1.787
0.02511955907463903,1.788
0.025122898431877597,1.789
0.02512511918336333,1.79
0.025126167239901576,1.791
0.025125985431812898,1.792
0.025124519238259833,1.793
0.025121733351535475,1.794
0.025117627214489097,1.795
0.025112240991402045,1.796
0.02510565029803785,1.797
0.025097951835897296,1.798
0.025089245807205274,1.799
0.025079625401892482,1.8
0.025069179871405972,1.801
0.025058005861764116,1.802
0.02504621716155886,1.803
0.025033947964993912,1.804
0.02502134899942823,1.805
0.02500857751259187,1.806
0.024995784965664007,1.807
0.02498310980134538,1.808
0.02497067906759057,1.809
0.024958613416349515,1.81
0.02494702806231015,1.811
0.024936028571688168,1.812
0.02492570623274458,1.813
0.0249161378573579,1.814
0.02490738888015236,1.815
0.024899514294407094,1.816
0.02489255557068573,1.817
0.024886538340854768,1.818
0.02488147531698288,1.819
0.0248773717713241,1.82
0.02487422768932479,1.821
0.02487203470110512,1.822
0.024870771914159748,1.823
0.024870407076211066,1.824
0.024870904440560986,1.825
0.02487223416696568,1.826
0.024874377687692326,1.827
0.02487732647667616,1.828
0.02488107451959744,1.829
0.024885609612690957,1.83
0.024890912115061635,1.831
0.02489696376591691,1.832
0.024903759419435796,1.833
0.024911313832169053,1.834
0.024919661208036566,1.835
0.02492884870831922,1.836
0.024938926275815725,1.837
0.024949935850737227,1.838
0.024961903686243726,1.839
0.024974838078947566,1.84
0.024988730902620642,1.841
0.02500355922836369,1.842
0.025019285010759725,1.843
0.025035852972412485,1.844
0.025053187778965057,1.845
0.025071191996224443,1.846
0.02508974545758324,1.847
0.025108705619078613,1.848
0.025127909611836412,1.849
0.02514717960286695,1.85
0.02516633130163862,1.851
0.02518518357664212,1.852
0.02520356663529873,1.853
0.025221326103178877,1.854
0.025238320751713596,1.855
0.025254413716377107,1.856
0.025269461898228648,1.857
0.025283311386213675,1.858
0.02529580034638531,1.859
0.02530676131965002,1.86
0.02531601777668508,1.861
0.02532338124654843,1.862
0.025328655562395542,1.863
0.025331642894159408,1.864
0.025332143485394296,1.865
0.025329953566219882,1.866
0.025324873671148496,1.867
0.025316729541045885,1.868
0.025305394777648166,1.869
0.0252908041308382,1.87
0.02527295308602591,1.871
0.025251884445333824,1.872
0.02522766646984665,1.873
0.025200372744608856,1.874
0.025170076156417233,1.875
0.025136859303057736,1.876
0.025100830639833347,1.877
0.02506213574506814,1.878
0.02502096046163483,1.879
0.02497752637784932,1.88
0.0249320802842522,1.881
0.024884880285538712,1.882
0.024836181799578142,1.883
0.024786226416202647,1.884
0.024735235428871797,1.885
0.024683408081862507,1.886
0.024630922822382845,1.887
0.02457793882573498,1.888
0.024524596127074565,1.889
0.024471016105426086,1.89
0.024417305369492496,1.891
0.024363562584092818,1.892
0.02430988459857337,1.893
0.024256368969539286,1.894
0.024203112191710483,1.895
0.02415020466956797,1.896
0.024097724417423094,1.897
0.02404573154600337,1.898
0.02399426498788146,1.899
0.02394334211556974,1.9
0.023892961244918708,1.901
0.023843106452895644,1.902
0.02379375350290493,1.903
0.02374487504975361,1.904
0.023696443042778945,1.905
0.023648426607883247,1.906
0.023600786472675658,1.907
0.023553472367362348,1.908
0.023506429683621027,1.909
0.023459613309169642,1.91
0.02341300119276714,1.911
0.023366602048993886,1.912
0.023320454602936806,1.913
0.02327461793828832,1.914
0.023229156779971477,1.915
0.023184131503758674,1.916
0.023139600450551356,1.917
0.0230956304014362,1.918
0.02305230559985704,1.919
0.02300973072138282,1.92
0.022968028248153177,1.921
0.022927332146187418,1.922
0.022887779711590516,1.923
0.02284950290464118,1.924
0.022812620813626717,1.925
0.022777236356191725,1.926
0.02274343897414595,1.927
0.02271131081905187,1.928
0.02268093275895546,1.929
0.02265238851447791,1.93
0.02262576630446452,1.931
0.02260115746020814,1.932
0.02257865162165056,1.933
0.022558329920187862,1.934
0.02254026109909595,1.935
0.022524504615255254,1.936
0.022511118017906763,1.937
0.02250016246006032,1.938
0.022491702726343717,1.939
0.02248580183163523,1.94
0.022482514449401216,1.941
0.022481885702710182,1.942
0.02248395670005888,1.943
0.022488770775848828,1.944
0.02249637429388102,1.945
0.022506811286841587,1.946
0.022520116438928147,1.947
0.02253631229780773,1.948
0.022555411188557993,1.949
0.022577416200019317,1.95
0.022602318409933216,1.951
0.022630095302638827,1.952
0.022660715055975694,1.953
0.022694143322191322,1.954
0.0227303460687905,1.955
0.022769286295552846,1.956
0.022810918368927964,1.957
0.022855187096367316,1.958
0.022902034177985472,1.959
0.02295140664296586,1.96
0.023003260973533512,1.961
0.023057561177130773,1.962
0.023114272270198417,1.963
0.023173351929400458,1.964
0.023234743330748403,1.965
0.02329837135836892,1.966
0.023364142800091418,1.967
0.02343194952702608,1.968
0.02350167260413487,1.969
0.02357318508421165,1.97
0.02364635180171298,1.971
0.023721026136396182,1.972
0.023797046752074433,1.973
0.02387423866300203,1.974
0.0239524194852231,1.975
0.024031407491451596,1.976
0.02411102803377279,1.977
0.024191116888823284,1.978
0.02427152013753991,1.979
0.02435209066742303,1.98
0.024432681896970385,1.981
0.024513139875124594,1.982
0.024593295619554367,1.983
0.024672959973867564,1.984
0.024751922591336215,1.985
0.02482995568756529,1.986
0.024906822238624494,1.987
0.02498228616313762,1.988
0.025056119916927987,1.989
0.025128104754141758,1.99
0.02519802369080699,1.991
0.02526565751142982,1.992
0.025330795818906272,1.993
0.02539326083543177,1.994
0.025452930379657776,1.995
0.025509749089476917,1.996
0.02556372377941185,1.997
0.02561490394306412,1.998
0.025663355697517574,1.999
0.02570914536027404,2.0
0.025752341648096738,2.001
0.025793026162498664,2.002
0.025831297395860493,2.003
0.02586726458780877,2.004
0.02590103568093186,2.005
0.025932705497988637,2.006
0.02596234871979736,2.007
0.02599001855101362,2.008
0.026015750282270707,2.009
0.026039568770712864,2.01
0.02606149692529734,2.011
0.026081561178818106,2.012
0.026099791748510057,2.013
0.026116217898925372,2.014
0.026130860191661734,2.015
0.026143723360057203,2.016
0.02615479390063853,2.017
0.026164043533899367,2.018
0.026171436007321212,2.019
0.02617693468139778,2.02
0.02618050991162514,2.021
0.026182145191103057,2.022
0.026181840201583078,2.023
0.026179608627589286,2.024
0.026175469878353407,2.025
0.026169439270856097,2.026
0.026161526970912893,2.027
0.02615175038526349,2.028
0.026140151705593754,2.029
0.026126809180824016,2.03
0.026111836906437633,2.031
0.02609537318985102,2.032
0.026077562787699897,2.033
0.026058544046047932,2.034
0.026038447895161396,2.035
0.026017402505574168,2.036
0.025995533149641658,2.037
0.025972955729294547,2.038
0.025949771164650744,2.039
0.02592606553649111,2.04
0.02590191171568018,2.041
0.02587736810395281,2.042
0.025852479627014383,2.043
0.025827287346080176,2.044
0.02580184362604982,2.045
0.025776225134813605,2.046
0.02575053904447197,2.047
0.02572492108615083,2.048
0.025699526069355796,2.049
0.025674513818126635,2.05
0.025650036840325616,2.051
0.025626236647161748,2.052
0.025603248988894517,2.053
0.0255812112589816,2.054
0.025560266484784374,2.055
0.025540563086883922,2.056
0.02552225170198738,2.057
0.02550548067152101,2.058
0.025490391731001382,2.059
0.025477117017960373,2.06
0.025465777878508355,2.061
0.025456485317448742,2.062
0.025449341496565737,2.063
0.025444441500534053,2.064
0.025441874613600146,2.065
0.025441724518203625,2.066
0.025444068093676685,2.067
0.025448972807173068,2.068
0.02545649296048488,2.069
0.025466665549971606,2.07
0.025479507514306627,2.071
0.025495016353819996,2.072
0.025513174329017847,2.073
0.025533954704704723,2.074
0.025557328542189398,2.075
0.02558327107463998,2.076
0.025611766716166634,2.077
0.02564281170982588,2.078
0.025676413659337555,2.079
0.02571258769587717,2.08
0.025751349687917275,2.081
0.02579270772329584,2.082
0.02583665453920405,2.083
0.0258831644014228,2.084
0.025932195257323508,2.085
0.025983693187983638,2.086
0.026037596313357794,2.087
0.02609383756250202,2.088
0.026152346408986116,2.089
0.026213049319998398,2.09
0.026275868392849674,2.091
0.026340717588728326,2.092
0.026407497277198943,2.093
0.026476090835218874,2.094
0.02654636705818804,2.095
0.026618186861762105,2.096
0.02669140888461795,2.097
0.026765889856430507,2.098
0.026841479542354846,2.099
0.026918015466575896,2.1
0.026995324310014487,2.101
0.027073230019669322,2.102
0.027151561409881293,2.103
0.027230152957786115,2.104
0.027308838119870588,2.105
0.0273874405314871,2.106
0.02746577111167283,2.107
0.027543632706797935,2.108
0.027620824950806155,2.109
0.02769714262486056,2.11
0.027772369713795073,2.111
0.027846278271613574,2.112
0.027918636867347805,2.113
0.027989222437126936,2.114
0.028057826518411058,2.115
0.02812425196202621,2.116
0.028188302381152216,2.117
0.028249773524617473,2.118
0.028308456099627653,2.119
0.028364148846112866,2.12
0.02841667248863785,2.121
0.02846587774651111,2.122
0.02851164564109358,2.123
0.028553880421075147,2.124
0.02859249631867969,2.125
0.02862740295842328,2.126
0.02865849949280945,2.127
0.028685682908392438,2.128
0.028708862796001978,2.129
0.02872797099514995,2.13
0.02874296044549602,2.131
0.02875379411327518,2.132
0.0287604330781518,2.133
0.02876283644653866,2.134
0.028760974683564724,2.135
0.02875484450956574,2.136
0.02874447409027365,2.137
0.028729915442303706,2.138
0.02871122854012989,2.139
0.02868846933852033,2.14
0.02866169262001316,2.141
0.028630966469382756,2.142
0.028596386165324044,2.143
0.028558079738470615,2.144
0.02851620433783731,2.145
0.028470935809344268,2.146
0.02842245511036883,2.147
0.028370935093262096,2.148
0.0283165304175357,2.149
0.02825937251711367,2.15
0.02819956968712312,2.151
0.028137210243520214,2.152
0.028072366749491078,2.153
0.028005100215950988,2.154
0.02793546292373841,2.155
0.027863498118758677,2.156
0.027789236173380062,2.157
0.02771269029015271,2.158
0.027633856172043753,2.159
0.027552715180028862,2.16
0.027469235704060638,2.161
0.027383371800481962,2.162
0.027295066087808576,2.163
0.027204261677156224,2.164
0.02711091789254451,2.165
0.027015021063638026,2.166
0.02691658581647749,2.167
0.026815646547298587,2.168
0.026712242755951004,2.169
0.026606406644806457,2.17
0.02649816063987799,2.171
0.02638752335970483,2.172
0.026274516052661408,2.173
0.026159164829272514,2.174
0.02604149961807933,2.175
0.025921552650896292,2.176
0.025799358660901852,2.177
0.025674957383965438,2.178
0.025548397068479237,2.179
0.025419736309374132,2.18
0.025289041211183912,2.181
0.0251563776188702,2.182
0.025021804857439846,2.183
0.024885379704983907,2.184
0.024747170382445983,2.185
0.024607271176528858,2.186
0.0244658092727013,2.187
0.024322940841430968,2.188
0.024178837947155505,2.189
0.024033673666627325,2.19
0.023887616459043075,2.191
0.023740836847287897,2.192
0.02359351705985778,2.193
0.023445853876634254,2.194
0.023298052625734,2.195
0.023150316383060414,2.196
0.02300283862647838,2.197
0.02285580478972496,2.198
0.022709398614186825,2.199
0.022563805697021336,2.2
0.022419211150883977,2.201
0.02227579325579839,2.202
0.02213371850226736,2.203
0.02199314281509446,2.204
0.021854217967588095,2.205
0.02171709857432734,2.206
0.021581946795109684,2.207
0.02144893417770956,2.208
0.021318240505605338,2.209
0.021190049321955475,2.21
0.0210645409078518,2.211
0.02094188688729533,2.212
0.020822251655503,2.213
0.020705800302342845,2.214
0.020592707099169532,2.215
0.020483159352959007,2.216
0.020377354992745445,2.217
0.020275494881038452,2.218
0.020177773807066497,2.219
0.020084376109001257,2.22
0.0199954776629359,2.221
0.01991124908807311,2.222
0.01983185501946844,2.223
0.019757450505858802,2.224
0.019688180213010047,2.225
0.019624183580432164,2.226
0.01956560245428869,2.227
0.01951258588814528,2.228
0.01946528974229502,2.229
0.019423871221829474,2.23
0.01938848138582754,2.231
0.01935926165226454,2.232
0.019336347282298876,2.233
0.019319873728655013,2.234
0.019309980545531517,2.235
0.01930681149119405,2.236
0.019310511741650355,2.237
0.01932122344134512,2.238
0.019339080671025622,2.239
0.019364204837861058,2.24
0.01939670168206928,2.241
0.01943666044971137,2.242
0.01948415418193652,2.243
0.019539239600763782,2.244
0.019601956427042242,2.245
0.019672327233461,2.246
0.01975035846266011,2.247
0.019836041898965612,2.248
0.01992935557455702,2.249
0.020030263677423093,2.25
0.020138715427927625,2.251
0.020254643419312348,2.252
0.02037796277835399,2.253
0.020508572156222,2.254
0.020646355901869806,2.255
0.020791186143491465,2.256
0.020942924203386552,2.257
0.021101421302620715,2.258
0.021266518649718416,2.259
0.02143804707725699,2.26
0.0216158264322406,2.261
0.021799664891582825,2.262
0.021989358203656797,2.263
0.02218468862679252,2.264
0.022385423237824793,2.265
0.0225913117265135,2.266
0.0228020847760013,2.267
0.0230174541964786,2.268
0.023237114542605884,2.269
0.023460745061546443,2.27
0.023688011451552166,2.271
0.023918567639456715,2.272
0.024152057785863927,2.273
0.02438811829282004,2.274
0.024626379107582693,2.275
0.02486646341000065,2.276
0.02510798501550065,2.277
0.025350543911081096,2.278
0.02559372234998941,2.279
0.025837084403144573,2.28
0.02608017888892673,2.281
0.02632254282881718,2.282
0.026563703407561517,2.283
0.026803178586628288,2.284
0.027040477486198318,2.285
0.027275101563874943,2.286
0.02750654698158789,2.287
0.02773430764461734,2.288
0.027957877588833675,2.289
0.028176750963806244,2.29
0.028390417900555152,2.291
0.028598357454661563,2.292
0.028800035184283996,2.293
0.02899491294858414,2.294
0.029182468805134257,2.295
0.02936221863534731,2.296
0.029533732713537566,2.297
0.029696642727915997,2.298
0.02985063636544918,2.299
0.02999543904604808,2.3
0.030130789409270532,2.301
0.030256425490738904,2.302
0.030372093721832208,2.303
0.030477572473659946,2.304
0.030572694391841546,2.305
0.030657360488249213,2.306
0.030731545144394884,2.307
0.03079529213638517,2.308
0.030848702040467108,2.309
0.030891911784196015,2.31
0.030925070864229492,2.311
0.03094832656781622,2.312
0.03096182915324293,2.313
0.030965752509518236,2.314
0.030960316178024805,2.315
0.03094579918947511,2.316
0.03092254263768621,2.317
0.030890940867259672,2.318
0.03085142305878863,2.319
0.03080443027201032,2.32
0.030750397935831914,2.321
0.030689752247396278,2.322
0.030622917321870165,2.323
0.030550322347671778,2.324
0.030472402676392247,2.325
0.030389595753394005,2.326
0.030302335107273606,2.327
0.030211045206222576,2.328
0.030116138696657125,2.329
0.030018015973228628,2.33
0.029917065863373362,2.331
0.02981366586715602,2.332
0.029708180851569614,2.333
0.02960095996900736,2.334
0.02949233240664398,2.335
0.029382603344082155,2.336
0.029272051805252546,2.337
0.029160930794940344,2.338
0.029049468378222882,2.339
0.028937868671767758,2.34
0.028826313089472214,2.341
0.02871496259281198,2.342
0.028603961345651817,2.343
0.028493441656851484,2.344
0.028383529540679277,2.345
0.028274349798927487,2.346
0.028166029398749726,2.347
0.02805869815274917,2.348
0.027952486190471193,2.349
0.027847518235620383,2.35
0.02774390622200955,2.351
0.027641744625352245,2.352
0.02754111245071154,2.353
0.027442080219733964,2.354
0.027344716550518847,2.355
0.027249090368811523,2.356
0.027155267341916412,2.357
0.027063302534146072,2.358
0.02697323607176762,2.359
0.026885097001384087,2.36
0.026798911620363127,2.361
0.026714708693230196,2.362
0.026632517732682603,2.363
0.02655236191738758,2.364
0.02647425287962662,2.365
0.02639819468194148,2.366
0.026324195779150992,2.367
0.02625228156685423,2.368
0.0261825020730522,2.369
0.0261149331402807,2.37
0.026049671470242935,2.371
0.025986825118653554,2.372
0.025926501730384237,2.373
0.02586879754263597,2.374
0.02581379094155026,2.375
0.025761542242248567,2.376
0.02571209705429892,2.377
0.02566548968940577,2.378
0.02562174548468527,2.379
0.025580882442134405,2.38
0.025542912743324594,2.381
0.02550784455774958,2.382
0.02547568428545847,2.383
0.025446438997200182,2.384
0.025420118493467193,2.385
0.025396736269127446,2.386
0.02537630885047675,2.387
0.02535885343207762,2.388
0.025344384315870012,2.389
0.025332909132461324,2.39
0.025324425994153892,2.391
0.025318922391014523,2.392
0.025316375724281283,2.393
0.025316754149370107,2.394
0.025320015500674253,2.395
0.025326103948591767,2.396
0.02533494931879155,2.397
0.02534647465790553,2.398
0.02536061030819701,2.399
0.025377307754827445,2.4
0.025396548217521943,2.401
0.025418343984852095,2.402
0.02544273270035476,2.403
0.02546976653727337,2.404
0.025499499031654906,2.405
0.025531973048810958,2.406
0.02556721398328367,2.407
0.025605229579318635,2.408
0.02564601302296384,2.409
0.025689545603355797,2.41
0.025735798219995564,2.411
0.025784732291205332,2.412
0.025836300235045722,2.413
0.025890445213953565,2.414
0.02594709964701717,2.415
0.02600618220303636,2.416
0.026067593846301022,2.417
0.0261312148529786,2.418
0.026196904553392672,2.419
0.02626450314179233,2.42
0.026333833318950502,2.421
0.026404700384575996,2.422
0.026476890659771955,2.423
0.026550169287361224,2.424
0.026624280049368985,2.425
0.026698949496262683,2.426
0.026773894929760005,2.427
0.02684883414520222,2.428
0.02692349481196549,2.429
0.026997621099506937,2.43
0.027070975007168645,2.431
0.02714333060306662,2.432
0.02721446288027546,2.433
0.027284139606409213,2.434
0.02735212513580938,2.435
0.027418194744858307,2.436
0.0274821499140015,2.437
0.02754382736883728,2.438
0.02760309983587273,2.439
0.02765986910246655,2.44
0.027714053309538998,2.441
0.027765571705797132,2.442
0.02781433200308373,2.443
0.027860225432771772,2.444
0.027903129259290876,2.445
0.027942911158806327,2.446
0.027979431223648547,2.447
0.028012541454348432,2.448
0.02804208417811031,2.449
0.02806789074286949,2.45
0.028089781491658156,2.451
0.02810756757248362,2.452
0.028121054681248484,2.453
0.02813004839873248,2.454
0.028134360395753445,2.455
0.028133814490530658,2.456
0.02812825133714198,2.457
0.02811753031963422,2.458
0.02810152702849539,2.459
0.028080124750468154,2.46
0.0280532025360848,2.461
0.028020630846562127,2.462
0.027982283738202773,2.463
0.027938061800368588,2.464
0.02788791364096178,2.465
0.027831849050822758,2.466
0.02776994158950663,2.467
0.027702320606896973,2.468
0.027629154756121252,2.469
0.027550630637124478,2.47
0.027466933153756236,2.471
0.02737823669902943,2.472
0.027284710047352955,2.473
0.027186527140817752,2.474
0.02708387530580822,2.475
0.026976958755444456,2.476
0.026865998211980466,2.477
0.02675122775253351,2.478
0.026632890108440173,2.479
0.026511231598732542,2.48
0.026386497599893085,2.481
0.026258928968876848,2.482
0.02612875927752215,2.483
0.0259962122663026,2.484
0.025861498727858895,2.485
0.025724812761436518,2.486
0.02558632937555347,2.487
0.025446206082485046,2.488
0.025304588338171077,2.489
0.02516161595413824,2.49
0.025017427947411082,2.491
0.024872164812208622,2.492
0.024725968144262308,2.493
0.024578978084483484,2.494
0.02443132928792743,2.495
0.024283146042665585,2.496
0.02413453736441468,2.497
0.023985593855610075,2.498
0.023836388124240483,2.499
0.023686978307143426,2.5
0.023537412347766254,2.501
0.023387731086185234,2.502
0.023237969282479717,2.503
0.023088154229545074,2.504
0.022938302108993436,2.505
0.022788413561025136,2.506
0.022638471314730065,2.507
0.022488440907966593,2.508
0.022338271785301633,2.509
0.02218789697320608,2.51
0.022037234286124842,2.511
0.021886192125798475,2.512
0.021734677780279432,2.513
0.021582603276422807,2.514
0.021429885025713757,2.515
0.021276437940009905,2.516
0.021122172255694058,2.517
0.020967001593392005,2.518
0.020810859558955893,2.519
0.02065371470236829,2.52
0.020495576632479393,2.521
0.020336491182590604,2.522
0.02017652624580571,2.523
0.020015755158542307,2.524
0.019854248759678797,2.525
0.01969208058920657,2.526
0.019529337237637476,2.527
0.019366124691443835,2.528
0.019202568680514703,2.529
0.019038810625922966,2.53
0.01887500105506586,2.531
0.018711292196895334,2.532
0.018547831119685387,2.533
0.01838475434215748,2.534
0.0182221843686397,2.535
0.018060228130455092,2.536
0.017898976959518507,2.537
0.017738507530369145,2.538
0.01757888313820295,2.539
0.01742015463699188,2.54
0.0172623603812813,2.541
0.01710552547252976,2.542
0.01694966257130058,2.543
0.01679477643635994,2.544
0.016640871437443527,2.545
0.016487959504718402,2.546
0.016336066383231786,2.547
0.016185234699343763,2.548
0.016035523010580876,2.549
0.015887001014268827,2.55
0.015739742070224952,2.551
0.015593815338185891,2.552
0.015449280910458222,2.553
0.015306189896828248,2.554
0.015164587900360233,2.555
0.015024519290468564,2.556
0.014886031341240499,2.557
0.014749178206148978,2.558
0.014614024349139804,2.559
0.014480646586779266,2.56
0.014349133782395409,2.561
0.014219583587207022,2.562
0.014092096427583571,2.563
0.013966768825582223,2.564
0.013843690114231803,2.565
0.013722944363392192,2.566
0.013604614359924074,2.567
0.013488783894033327,2.568
0.013375537612365554,2.569
0.013264959346092708,2.57
0.013157129923423432,2.571
0.013052125127939806,2.572
0.012950013919381739,2.573
0.012850856711856377,2.574
0.012754703885797974,2.575
0.012661595392743743,2.576
0.012571561801496088,2.577
0.012484625735130192,2.578
0.012400802404482639,2.579
0.01232009887431077,2.58
0.012242512734016595,2.581
0.012168031426764331,2.582
0.012096632651234736,2.583
0.012028284766488075,2.584
0.011962946527924432,2.585
0.011900567264637054,2.586
0.011841088556690534,2.587
0.011784446559921922,2.588
0.01173057335857337,2.589
0.0116793965501513,2.59
0.011630837441688354,2.591
0.011584809527384303,2.592
0.01154121897905287,2.593
0.01149996687675954,2.594
0.011460951306847569,2.595
0.011424067944934613,2.596
0.011389208977532485,2.597
0.011356261066016874,2.598
0.011325103489713573,2.599
0.01129560754788795,2.6
0.011267637721311119,2.601
0.011241054236945913,2.602
0.011215715911918403,2.603
0.011191481784230649,2.604
0.011168210218970853,2.605
0.011145756009257697,2.606
0.011123969207812468,2.607
0.01110269878890375,2.608
0.01108179904472165,2.609
0.011061134329955292,2.61
0.011040579869700418,2.611
0.011020018469211525,2.612
0.010999334617942442,2.613
0.010978409254225682,2.614
0.010957117857795526,2.615
0.010935330740664696,2.616
0.010912912752109092,2.617
0.010889722990792768,2.618
0.01086561713459111,2.619
0.010840451895252361,2.62
0.010814088318650363,2.621
0.0107863914711316,2.622
0.010757226950910739,2.623
0.010726458386320257,2.624
0.01069395047006019,2.625
0.010659577031471083,2.626
0.01062322961805227,2.627
0.010584822900264522,2.628
0.010544295464403605,2.629
0.010501606041059887,2.63
0.01045672631704195,2.631
0.0104096324670832,2.632
0.0103602985254197,2.633
0.010308694352076117,2.634
0.010254788053526,2.635
0.010198550254763562,2.636
0.010139958318696178,2.637
0.010079000186366925,2.638
0.010015677774132821,2.639
0.009950009505652868,2.64
0.009882031299643603,2.641
0.00981179526570045,2.642
0.009739365544119652,2.643
0.009664811951626835,2.644
0.009588204923880742,2.645
0.009509616100123873,2.646
0.009429124497640825,2.647
0.009346823670072004,2.648
0.009262825776247065,2.649
0.009177261252001075,2.65
0.009090274454831852,2.651
0.009002016671467727,2.652
0.008912639222267345,2.653
0.008822290067880652,2.654
0.00873111475761265,2.655
0.008639258902106838,2.656
0.008546869478699466,2.657
0.008454094624941434,2.658
0.008361082524884962,2.659
0.008267979904926183,2.66
0.008174930507607524,2.661
0.008082073759971168,2.662
0.007989543722086026,2.663
0.007897468297256962,2.664
0.00780596864357308,2.665
0.007715158804339992,2.666
0.007625145643695911,2.667
0.007536029001372144,2.668
0.007447901815508157,2.669
0.007360850217980482,2.67
0.007274953898480958,2.671
0.0071902868245673525,2.672
0.007106918045026181,2.673
0.007024912271265113,2.674
0.006944330092016523,2.675
0.006865227800818222,2.676
0.006787656886509814,2.677
0.006711663393950243,2.678
0.0066372876441033145,2.679
0.006564564738827586,2.68
0.006493525755276182,2.681
0.006424199248118583,2.682
0.006356612755839872,2.683
0.006290794038586476,2.684
0.006226771777066651,2.685
0.006164575579179887,2.686
0.006104235305429606,2.687
0.006045779839584232,2.688
0.005989235528561912,2.689
0.005934624773523663,2.69
0.005881965436526971,2.691
0.005831271166784663,2.692
0.005782551923638058,2.693
0.005735814023183119,2.694
0.005691059687570211,2.695
0.005648286541766844,2.696
0.005607487536287418,2.697
0.0055686512943957135,2.698
0.005531762386346169,2.699
0.005496801217717554,2.7
0.005463743919342513,2.701
0.005432562910008205,2.702
0.005403228220148448,2.703
0.005375709018090334,2.704
0.00534997476588737,2.705
0.005325995705810036,2.706
0.005303742571377272,2.707
0.005283185564646273,2.708
0.005264292877125733,2.709
0.005247029411427071,2.71
0.005231356401399896,2.711
0.005217231881987021,2.712
0.005204611256275713,2.713
0.005193447401391328,2.714
0.005183690274824613,2.715
0.005175286245218729,2.716
0.005168177552585759,2.717
0.005162302299961769,2.718
0.0051575949727166856,2.719
0.005153987108559672,2.72
0.005151407782261319,2.721
0.005149783744641874,2.722
0.005149039119863817,2.723
0.005149094760347597,2.724
0.005149867838894837,2.725
0.005151272363901922,2.726
0.005153220609876496,2.727
0.005155624849343281,2.728
0.005158398853925282,2.729
0.005161458903629639,2.73
0.005164724169898768,2.731
0.00516811641683096,2.732
0.005171559054525436,2.733
0.005174975666281644,2.734
0.005178288266761882,2.735
0.005181415875238875,2.736
0.005184274206145557,2.737
0.005186776754356524,2.738
0.005188836792794579,2.739
0.00519036979895746,2.74
0.005191296175226701,2.741
0.005191544082641161,2.742
0.005191051899590758,2.743
0.005189769558859707,2.744
0.005187657975712593,2.745
0.005184686062309798,2.746
0.005180826281119507,2.747
0.005176052108438594,2.748
0.00517034005720928,2.749
0.005163674563639242,2.75
0.005156052173899686,2.751
0.005147483271051682,2.752
0.005137991218646816,2.753
0.005127609408184219,2.754
0.005116377031469566,2.755
0.005104334705962684,2.756
0.005091521346698104,2.757
0.005077973053352933,2.758
0.005063723253457418,2.759
0.005048802764750248,2.76
0.005033239348389578,2.761
0.005017057152852738,2.762
0.005000276457276185,2.763
0.0049829137868464485,2.764
0.0049649821859769055,2.765
0.004946491334276514,2.766
0.004927447323383981,2.767
0.004907852238883118,2.768
0.004887703878029042,2.769
0.004866995723635147,2.77
0.004845717216103811,2.771
0.004823854625161338,2.772
0.00480139269596363,2.773
0.004778316779098792,2.774
0.004754615011357287,2.775
0.004730280213604049,2.776
0.004705311212605854,2.777
0.004679713292796362,2.778
0.004653497520758232,2.779
0.00462667879588749,2.78
0.004599273126581795,2.781
0.00457129591048779,2.782
0.004542762898902846,2.783
0.004513693258318697,2.784
0.004484112663534439,2.785
0.004454055028978504,2.786
0.004423562538190309,2.787
0.004392684183786228,2.788
0.004361473332461611,2.789
0.0043299849402414995,2.79
0.004298273038581875,2.791
0.004266389100586844,2.792
0.004234381612789334,2.793
0.004202296572877069,2.794
0.004170178385125343,2.795
0.0041380709012581824,2.796
0.004106018503625274,2.797
0.004074066972260953,2.798
0.004042263792193605,2.799
0.004010657703584078,2.8
0.0039792975363177685,2.801
0.0039482307475562205,2.802
0.003917502566838762,2.803
0.0038871563935502593,2.804
0.0038572350007656177,2.805
0.0038277816085244077,2.806
0.003798840305042079,2.807
0.0037704556965904813,2.808
0.0037426718876629656,2.809
0.0037155313172301386,2.81
0.0036890743464817635,2.811
0.003663339932779872,2.812
0.003638366679295195,2.813
0.003614193422586559,2.814
0.0035908590866207324,2.815
0.0035684018813830704,2.816
0.0035468582473465425,2.817
0.003526262320629303,2.818
0.0035066463039035247,2.819
0.0034880412097022255,2.82
0.003470477327459768,2.821
0.003453984318662775,2.822
0.003438591113154291,2.823
0.003424325733098412,2.824
0.003411215066408875,2.825
0.003399284530730096,2.826
0.0033885575876700475,2.827
0.0033790552702454174,2.828
0.003370796110942243,2.829
0.0033637966600073735,2.83
0.003358072309935577,2.831
0.003353638011991298,2.832
0.0033505086329854014,2.833
0.0033486988010393054,2.834
0.0033482222288408153,2.835
0.0033490909050613088,2.836
0.003351314851994803,2.837
0.003354902655982449,2.838
0.0033598621622346644,2.839
0.003366200691741662,2.84
0.003373924638830408,2.841
0.003383038709645711,2.842
0.003393545381176878,2.843
0.0034054450749312786,2.844
0.0034187369094748773,2.845
0.0034334194936014423,2.846
0.003449491384493297,2.847
0.0034669511111944905,2.848
0.0034857968253623555,2.849
0.0035060257240021116,2.85
0.0035276333788306535,2.851
0.003550613078883456,2.852
0.0035749553807381735,2.853
0.003600648099216378,2.854
0.003627676716463743,2.855
0.0036560249124693526,2.856
0.0036856749628523763,2.857
0.003716607940195755,2.858
0.003748803770310262,2.859
0.0037822412381701013,2.86
0.003816898032868176,2.861
0.003852750874221387,2.862
0.003889775700222252,2.863
0.003927947838527647,2.864
0.003967242056676615,2.865
0.00400763239162972,2.866
0.0040490916862076275,2.867
0.004091590848150934,2.868
0.0041350981428022295,2.869
0.0041795791173083454,2.87
0.0042249974240526796,2.871
0.004271316129472418,2.872
0.004318498936017722,2.873
0.004366510994180472,2.874
0.004415319123172134,2.875
0.004464891329955407,2.876
0.004515195628878881,2.877
0.004566198496845745,2.878
0.004617863861593787,2.879
0.004670153387787378,2.88
0.004723027741466871,2.881
0.004776447888414799,2.882
0.004830375794522997,2.883
0.004884774258478553,2.884
0.004939605787383248,2.885
0.004994831043105648,2.886
0.00505040827761256,2.887
0.005106294632117906,2.888
0.005162448337513694,2.889
0.005218830220855869,2.89
0.005275403657688239,2.891
0.0053321329672974095,2.892
0.005388981476101502,2.893
0.0054459112471675975,2.894
0.0055028849276441485,2.895
0.005559867873798182,2.896
0.0056168286637761095,2.897
0.005673737554653814,2.898
0.005730563847345316,2.899
0.005787274237583952,2.9
0.0058438333795988,2.901
0.005900205443560703,2.902
0.005956354830855981,2.903
0.006012245469237723,2.904
0.0060678391859324355,2.905
0.00612309442275634,2.906
0.006177966507203125,2.907
0.0062324093868155765,2.908
0.0062863777323655425,2.909
0.006339828474746573,2.91
0.006392721247776789,2.911
0.006445017424949846,2.912
0.006496677970175894,2.913
0.0065476614584540835,2.914
0.006597924106419767,2.915
0.006647422130948908,2.916
0.006696114937967867,2.917
0.0067439676729420155,2.918
0.006790952544512339,2.919
0.006837048694859704,2.92
0.006882240479518107,2.921
0.006926514320231348,2.922
0.0069698553343452265,2.923
0.007012246047938174,2.924
0.007053668192609723,2.925
0.007094105782090978,2.926
0.007133547250145018,2.927
0.007171986007154139,2.928
0.007209419740052258,2.929
0.007245848999753865,2.93
0.007281275586128159,2.931
0.007315701006401985,2.932
0.007349124990738289,2.933
0.007381543916000253,2.934
0.007412949400221755,2.935
0.007443328020543799,2.936
0.007472662739713333,2.937
0.007500935355419414,2.938
0.007528128883554356,2.939
0.007554229227489583,2.94
0.007579225707367759,2.941
0.007603110077368599,2.942
0.007625874103464749,2.943
0.007647507031776922,2.944
0.007667995116588844,2.945
0.0076873236642072676,2.946
0.007705479465056772,2.947
0.007722451382768168,2.948
0.007738228646696393,2.949
0.007752798452581975,2.95
0.007766145702096034,2.951
0.007778255885321726,2.952
0.007789118799382129,2.953
0.007798730221878189,2.954
0.007807090316524748,2.955
0.00781419986265631,2.956
0.00782005809377612,2.957
0.007824665008298192,2.958
0.007828026189103986,2.959
0.007830156268263236,2.96
0.007831079273523727,2.961
0.007830825883811426,2.962
0.007829428853152912,2.963
0.007826919575399244,2.964
0.007823328448798544,2.965
0.007818688239724543,2.966
0.007813037269626871,2.967
0.007806420265355456,2.968
0.007798886486778665,2.969
0.007790486053139036,2.97
0.007781266837620503,2.971
0.007771274177832597,2.972
0.007760552857219576,2.973
0.0077491487065894215,2.974
0.007737108083314424,2.975
0.007724475603639852,2.976
0.00771129209195072,2.977
0.007697594480370814,2.978
0.007683417156968327,2.979
0.007668792795424443,2.98
0.007653751610616246,2.981
0.00763831991477173,2.982
0.007622519957970549,2.983
0.007606371904488688,2.984
0.007589896665372606,2.985
0.007573117898525474,2.986
0.007556062406655186,2.987
0.007538758777601757,2.988
0.007521234743167865,2.989
0.007503514881703658,2.99
0.007485620481741373,2.991
0.007467571452015712,2.992
0.007449388363402152,2.993
0.007431093154342215,2.994
0.007412708402513516,2.995
0.007394255856753783,2.996
0.007375755151120499,2.997
0.0073572234424910884,2.998
0.007338676203966293,2.999
0.00732012880296208,3.0
0.007301598024552103,3.001
0.007283102510232988,3.002
0.007264661448885216,3.003
0.007246292504704841,3.004
0.007228011856856171,3.005
0.0072098379094025925,3.006
0.007191796594192464,3.007
0.007173925159555197,3.008
0.007156272931715474,3.009
0.007138898839343872,3.01
0.0071218666224064295,3.011
0.007105240468687925,3.012
0.007089084212551046,3.013
0.007073464085908001,3.014
0.007058451826290235,3.015
0.007044125576802166,3.016
0.007030568275240558,3.017
0.007017864342409247,3.018
0.007006096042539702,3.019
0.00699534129986393,3.02
0.006985673608846645,3.021
0.006977162697546796,3.022
0.006969874529766474,3.023
0.006963870551492157,3.024
0.006959206723493695,3.025
0.006955932833009861,3.026
0.0069540923581267,3.027
0.00695372286280989,3.028
0.006954856651390435,3.029
0.006957521312172842,3.03
0.006961739860824117,3.031
0.006967530409138378,3.032
0.006974905527461814,3.033
0.00698387161348555,3.034
0.006994428528167501,3.035
0.0070065695467559095,3.036
0.007020281528275782,3.037
0.007035545212039769,3.038
0.007052335491295063,3.039
0.007070621464340784,3.04
0.007090366428620545,3.041
0.007111528450482362,3.042
0.007134061800953833,3.043
0.00715791865350953,3.044
0.007183050109896827,3.045
0.007209405970194266,3.046
0.0072369333454323295,3.047
0.007265575178154398,3.048
0.0072952700589138855,3.049
0.007325953503863017,3.05
0.007357559521370428,3.051
0.007390021430022811,3.052
0.007423271671067203,3.053
0.007457240730739134,3.054
0.0074918554913634494,3.055
0.007527037716569564,3.056
0.007562703453466469,3.057
0.007598763243536658,3.058
0.007635122250851204,3.059
0.007671680289065896,3.06
0.0077083329166933905,3.061
0.0077449740670207335,3.062
0.00778149905701174,3.063
0.007817806350984412,3.064
0.007853797038566514,3.065
0.007889372277397352,3.066
0.007924430993141161,3.067
0.007958870418562478,3.068
0.007992589105778073,3.069
0.008025489727414351,3.07
0.008057479938856837,3.071
0.00808847143261472,3.072
0.008118378136771374,3.073
0.008147114565640287,3.074
0.008174595003479041,3.075
0.0082007336363806,3.076
0.008225445138584218,3.077
0.008248644804651555,3.078
0.008270247310282263,3.079
0.00829016443931207,3.08
0.0083083044282171,3.081
0.008324575237452295,3.082
0.008338890554213297,3.083
0.008351175696192493,3.084
0.008361371607061952,3.085
0.008369435913151925,3.086
0.008375340357308698,3.087
0.00837906506562881,3.088
0.008380592861687231,3.089
0.00837990853574272,3.09
0.008377004169644398,3.091
0.008371886055786053,3.092
0.008364578510211319,3.093
0.008355123129616972,3.094
0.008343574156711298,3.095
0.008329991683035883,3.096
0.00831443559289806,3.097
0.008296963252569829,3.098
0.008277631178203114,3.099
0.008256497894573384,3.1
0.008233625636029387,3.101
0.00820908058123275,3.102
0.008182932138797729,3.103
0.008155251796725677,3.104
0.008126111917062393,3.105
0.00809558463213891,3.106
0.00806374074547291,3.107
0.008030648353102137,3.108
0.007996371226199414,3.109
0.00796096800526527,3.11
0.007924493408606442,3.111
0.007887001118928637,3.112
0.007848546809423389,3.113
0.007809190064311697,3.114
0.0077689946630954574,3.115
0.0077280272013645285,3.116
0.0076863543801197875,3.117
0.007644039939620117,3.118
0.007601143082844589,3.119
0.007557719468947711,3.12
0.0075138236218834,3.121
0.007469510956964005,3.122
0.007424838638824845,3.123
0.007379865114286591,3.124
0.007334648322078149,3.125
0.00728924326658102,3.126
0.00724370077788556,3.127
0.007198068625273184,3.128
0.007152393698683881,3.129
0.007106723206836326,3.13
0.007061104125342275,3.131
0.007015581346877771,3.132
0.006970195814329814,3.133
0.006924983955652442,3.134
0.006879978430323518,3.135
0.00683520904526127,3.136
0.00679070303583722,3.137
0.006746484727001026,3.138
0.006702574843890245,3.139
0.006658989655275066,3.14
0.006615740214246261,3.141
0.006572832287645462,3.142
0.0065302674380587275,3.143
0.0064880449884753685,3.144
0.006446164181886302,3.145
0.006404625915193326,3.146
0.006363433519210433,3.147
0.006322592197418743,3.148
0.006282107172234245,3.149
0.006241981643238338,3.15
0.006202216508689811,3.151
0.00616281253781396,3.152
0.006123773384862701,3.153
0.006085107479203655,3.154
0.006046827992780712,3.155
0.006008950924851675,3.156
0.005971492136229519,3.157
0.005934465181106135,3.158
0.005897881257540182,3.159
0.005861750295278601,3.16
0.00582608113809046,3.161
0.005790880380867966,3.162
0.005756151536503112,3.163
0.005721895824718886,3.164
0.005688113470316988,3.165
0.005654803709309758,3.166
0.005621963580503963,3.167
0.005589587361106192,3.168
0.005557667738207683,3.169
0.005526197511715615,3.17
0.005495170132403309,3.171
0.005464578667922541,3.172
0.005434414074922561,3.173
0.0054046644483567614,3.174
0.005375316089898801,3.175
0.0053463553090042455,3.176
0.005317769419206945,3.177
0.0052895462917046665,3.178
0.005261672840701459,3.179
0.005234134028467766,3.18
0.005206914009124538,3.181
0.005179999063518362,3.182
0.005153380526301266,3.183
0.005127056332596565,3.184
0.005101030726516224,3.185
0.005075312254482783,3.186
0.005049910765480675,3.187
0.005024834964592526,3.188
0.005000092060749391,3.189
0.00497568940897724,3.19
0.004951636603809253,3.191
0.004927946815698896,3.192
0.00490463706901242,3.193
0.004881727507352251,3.194
0.004859239773602168,3.195
0.0048371949034263445,3.196
0.004815611647684113,3.197
0.004794506078134494,3.198
0.004773892198869754,3.199
0.00475378245283695,3.2
0.004734187474308942,3.201
0.004715115251275728,3.202
0.0046965702153392,3.203
0.004678552696095873,3.204
0.004661058771501701,3.205
0.004644080293407672,3.206
0.004627605039771617,3.207
0.004611616980928895,3.208
0.004596096431302001,3.209
0.0045810200641291515,3.21
0.004566361334066173,3.211
0.004552091798928108,3.212
0.004538183077857566,3.213
0.0045246087235383,3.214
0.0045113453572537465,3.215
0.004498372583636979,3.216
0.0044856715589468256,3.217
0.004473223182596561,3.218
0.004461007978802867,3.219
0.00444900862344442,3.22
0.004437213562164595,3.221
0.0044256195680460264,3.222
0.004414232272060101,3.223
0.004403064672262858,3.224
0.004392134138438427,3.225
0.004381458983828491,3.226
0.004371056218683252,3.227
0.004360941427095314,3.228
0.0043511298954071916,3.229
0.004341637462727458,3.23
0.0043324804377540115,3.231
0.004323674703987444,3.232
0.004315234421869601,3.233
0.004307170928926692,3.234
0.00429949234315854,3.235
0.0042922037858610426,3.236
0.004285307681140485,3.237
0.0042788037709531705,3.238
0.0042726888497452604,3.239
0.004266956366122041,3.24
0.004261596106416161,3.241
0.004256594226106599,3.242
0.004251933812618312,3.243
0.004247596025441834,3.244
0.0042435617828055034,3.245
0.004239813831041827,3.246
0.004236338809224416,3.247
0.0042331287982760825,3.248
0.004230181935298773,3.249
0.004227501923760546,3.25
0.004225096551424287,3.251
0.004222975517399762,3.252
