VaMe,time
-0.00255847692243153,0.001
-0.0023580771277444384,0.002
-0.002158360751995647,0.003
-0.001959489537287114,0.004
-0.0017616225863517597,0.005
-0.0015649156116932317,0.006
-0.0013695193870093395,0.007
-0.0011755775774435673,0.008
-0.0009832243550613197,0.009
-0.0007925823681414467,0.01
-0.0006037616801339666,0.011
-0.00041686014097951844,0.012
-0.0002319653098378096,0.013
-4.9157541814824123e-05,0.014
0.0001314868689870055,0.015
0.0003098938909336616,0.016
0.0004859914359208634,0.017
0.0006597092509388763,0.018
0.000830978618258989,0.019
0.0009997328043090297,0.02
0.0011659083953329142,0.021
0.0013294462707598188,0.022
0.0014902911241785504,0.023
0.0016483900431214726,0.024
0.0018036922588805537,0.025
0.001956151440889786,0.026
0.002105729397776792,0.027
0.002252399211220595,0.028
0.002396146779705184,0.029
0.002536970434947836,0.03
0.0026748785642042817,0.031
0.002809885813029453,0.032
0.0029420098031948403,0.033
0.003071270711657148,0.034
0.003197693762044307,0.035
0.0033213122458478415,0.036
0.0034421690592635838,0.037
0.0035603163347260993,0.038
0.0036758135006967146,0.039
0.00378872424570927,0.04
0.0038991132597042677,0.041
0.004007044281685395,0.042
0.00411258028093576,0.043
0.0042157846637293625,0.044
0.0043167219353329065,0.045
0.004415457381909606,0.046
0.0045120561546859814,0.047
0.004606582329854594,0.048
0.004699098456052855,0.049
0.0047896658352502034,0.05
0.004878345391225668,0.051
0.004965198620742495,0.052
0.005050287957793418,0.053
0.0051336759947363895,0.054
0.005215423898678003,0.055
0.00529559085116714,0.056
0.005374235956072283,0.057
0.005451421596225846,0.058
0.005527216186104995,0.059
0.0056016952224621,0.06
0.005674940435399349,0.061
0.005747037348400835,0.062
0.005818072037983979,0.063
0.005888128397876972,0.064
0.005957287157686957,0.065
0.0060256266421010495,0.066
0.006093224068348658,0.067
0.006160156467298819,0.068
0.006226501144619121,0.069
0.006292335885192589,0.07
0.006357739071482494,0.071
0.006422789820768397,0.072
0.0064875681544039115,0.073
0.006552155110254396,0.074
0.006616632623407018,0.075
0.006681082966326343,0.076
0.006745587592587732,0.077
0.006810225450488967,0.078
0.0068750713776313255,0.079
0.006940195583664779,0.08
0.0070056645050744866,0.081
0.00707154212906509,0.082
0.0071378908045015765,0.083
0.007204771270871782,0.084
0.007272242123714992,0.085
0.0073403591690605055,0.086
0.0074091752094926164,0.087
0.0074787406502732365,0.088
0.007549104918413622,0.089
0.007620318219994116,0.09
0.007692432886584275,0.091
0.007765503635722337,0.092
0.007839586414567133,0.093
0.007914736024454054,0.094
0.007991003644788795,0.095
0.00806843605494369,0.096
0.008147077203646892,0.097
0.008226970768755058,0.098
0.00830816211580828,0.099
0.008390699119131515,0.1
0.008474631927689038,0.101
0.00856001193661589,0.102
0.008646890284151587,0.103
0.00873531612301362,0.104
0.008825334782470681,0.105
0.008916985985610552,0.106
0.009010302667851834,0.107
0.009105311019775552,0.108
0.00920203164217377,0.109
0.00930048104729427,0.11
0.009400672889747934,0.111
0.009502618695752236,0.112
0.009606328005648555,0.113
0.009711807864936795,0.114
0.009819061613275311,0.115
0.009928087124118756,0.116
0.010038875241070501,0.117
0.010151409408080438,0.118
0.010265666485051662,0.119
0.010381617577409782,0.12
0.01049922789971203,0.121
0.010618455657567926,0.122
0.010739250651769599,0.123
0.010861553372629472,0.124
0.010985294740256264,0.125
0.011110396528092564,0.126
0.01123677316312214,0.127
0.01136433540536089,0.128
0.011492995261891362,0.129
0.011622670697691023,0.13
0.01175328849237252,0.131
0.011884783757031283,0.132
0.012017095816366011,0.133
0.012150163422956365,0.134
0.01228392484819775,0.135
0.012418324892673192,0.136
0.012553324544373103,0.137
0.012688907966679522,0.138
0.012825084499009504,0.139
0.01296188551231813,0.14
0.013099357057181158,0.141
0.013237550409699927,0.142
0.013376514189684576,0.143
0.013516291642686954,0.144
0.013656922876404236,0.145
0.013798448352979784,0.146
0.013940910978665596,0.147
0.014084356753014393,0.148
0.014228834799643913,0.149
0.014374397351756454,0.15
0.014521099839275834,0.151
0.014669000789969118,0.152
0.01481816098792716,0.153
0.014968641355878203,0.154
0.015120499354139305,0.155
0.015273784709186153,0.156
0.015428536726200703,0.157
0.015584784781760563,0.158
0.01574255074636267,0.159
0.015901851003747705,0.16
0.016062697055474,0.161
0.016225094810313777,0.162
0.016389042983165944,0.163
0.016554531149094037,0.164
0.01672153802768364,0.165
0.016890030493158664,0.166
0.01705996359580722,0.167
0.017231281553322864,0.168
0.017403919295973725,0.169
0.01757780382494328,0.17
0.017752854453260195,0.171
0.01792898132417249,0.172
0.01810608342011305,0.173
0.018284049454489876,0.174
0.018462763655637978,0.175
0.01864211433131678,0.176
0.018822001519885362,0.177
0.01900234119081437,0.178
0.01918306454078908,0.179
0.019364111790451964,0.18
0.01954542275651707,0.181
0.019726931199730686,0.182
0.019908568618934783,0.183
0.020090274434334233,0.184
0.02027200534127796,0.185
0.020453739991168177,0.186
0.020635478546132638,0.187
0.020817237909389427,0.188
0.02099904393631449,0.189
0.02118092198924978,0.19
0.02136288806487592,0.191
0.02154494444309784,0.192
0.02172708196497993,0.193
0.021909286052454412,0.194
0.022091542431598454,0.195
0.022273840907573044,0.196
0.022456176741214178,0.197
0.022638549351015395,0.198
0.02282095843749798,0.199
0.023003398099242133,0.2
0.02318585034315378,0.201
0.023368280489877068,0.202
0.023550636265276145,0.203
0.023732849459668217,0.204
0.023914837579657258,0.205
0.024096504164740618,0.206
0.024277737696645218,0.207
0.02445840945680859,0.208
0.024638371725525278,0.209
0.024817458721257412,0.21
0.024995491200812618,0.211
0.025172282731642865,0.212
0.025347644546740773,0.213
0.025521386466150216,0.214
0.025693313008869467,0.215
0.025863218376526134,0.216
0.026030888006536895,0.217
0.026196109748816185,0.218
0.02635868855541034,0.219
0.026518456564979,0.22
0.026675274609301566,0.221
0.02682902471992527,0.222
0.026979596252100183,0.223
0.027126872731346847,0.224
0.027270728053461275,0.225
0.027411033232171634,0.226
0.0275476660507416,0.227
0.027680516743722686,0.228
0.027809488517005175,0.229
0.027934494443087477,0.23
0.028055452592785655,0.231
0.02817228089837084,0.232
0.028284892470089015,0.233
0.028393191303704976,0.234
0.02849706780115454,0.235
0.028596394068153053,0.236
0.02869102099530663,0.237
0.028780779800652002,0.238
0.02886548779369682,0.239
0.028944955390256783,0.24
0.029018991976833636,0.241
0.02908740995271663,0.242
0.02915002718871213,0.243
0.02920666832618089,0.244
0.029257165033865586,0.245
0.029301354819786452,0.246
0.02933907772628917,0.247
0.02937017047144983,0.248
0.029394458665821577,0.249
0.029411750177279455,0.25
0.02942183428925962,0.251
0.029424488223229784,0.252
0.02941948804025,0.253
0.02940662071007359,0.254
0.029385696137784065,0.255
0.029356558218679576,0.256
0.029319093178086918,0.257
0.029273232881647283,0.258
0.029218950857958417,0.259
0.029156249632820652,0.26
0.02908514241906458,0.261
0.029005640930145078,0.262
0.02891776113459962,0.263
0.028821544071659575,0.264
0.028717078300638275,0.265
0.028604514356996267,0.266
0.028484068446576735,0.267
0.02835601594814275,0.268
0.028220676884769612,0.269
0.028078396266837502,0.27
0.02792952377685145,0.271
0.027774400435182842,0.272
0.027613358015568145,0.273
0.027446727726339416,0.274
0.0272748494026312,0.275
0.027098076103803,0.276
0.026916773726043435,0.277
0.02673131700808922,0.278
0.026542083737060927,0.279
0.026349448918759736,0.28
0.026153780260841093,0.281
0.025955435668594984,0.282
0.025754762687726352,0.283
0.025552099099955684,0.284
0.025347773418799797,0.285
0.02514210405244529,0.286
0.024935396394717875,0.287
0.024727938794186822,0.288
0.024520000865011653,0.289
0.024311836674527597,0.29
0.024103690883562345,0.291
0.023895804244665572,0.292
0.023688416538433697,0.293
0.02348176620896644,0.294
0.02327608646355235,0.295
0.023071599364841336,0.296
0.02286851228938573,0.297
0.022667020064278377,0.298
0.022467310419458694,0.299
0.022269567784420654,0.3
0.02207397288365364,0.301
0.021880698538957858,0.302
0.021689904532941524,0.303
0.02150173550206784,0.304
0.021316323000519558,0.305
0.021133788980453955,0.306
0.02095424803281703,0.307
0.020777807989480142,0.308
0.020604569341957413,0.309
0.02043462385502034,0.31
0.020268052738231436,0.311
0.020104924801330245,0.312
0.019945295066512474,0.313
0.01978920423777245,0.314
0.01963667920358028,0.315
0.019487734431932403,0.316
0.01934237381075265,0.317
0.0192005922899104,0.318
0.019062376654756796,0.319
0.018927704912320233,0.32
0.018796544203593512,0.321
0.018668848427604894,0.322
0.01854455820354881,0.323
0.018423604720504753,0.324
0.018305916080189256,0.325
0.018191423824051842,0.326
0.01808006836735729,0.327
0.017971802723401115,0.328
0.017866594131395807,0.329
0.01776442345082496,0.33
0.017665282383940318,0.331
0.017569168746256116,0.332
0.017476080198657196,0.333
0.017386007687320702,0.334
0.01729893126086971,0.335
0.01721482025643654,0.336
0.01713363661018596,0.337
0.01705533860249327,0.338
0.01697988385956607,0.339
0.016907231791668892,0.34
0.016837345756275136,0.341
0.016770194900225993,0.342
0.01670575532619919,0.343
0.016644010136434535,0.344
0.016584948087980802,0.345
0.016528560948102775,0.346
0.016474839993372972,0.347
0.01642377231442204,0.348
0.01637533761752259,0.349
0.01632950606659245,0.35
0.01628623741525963,0.351
0.016245481266704227,0.352
0.01620717782563536,0.353
0.016171258092399842,0.354
0.016137642966415667,0.355
0.016106243033746047,0.356
0.016076962363260165,0.357
0.01604970738525501,0.358
0.016024398507884202,0.359
0.01600098107584537,0.36
0.015979432699005383,0.361
0.015959764554321566,0.362
0.01594201532421045,0.363
0.0159262392175699,0.364
0.01591249482294693,0.365
0.015900843495566835,0.366
0.015891358057918505,0.367
0.015884133531011552,0.368
0.01587929249209285,0.369
0.01587698337078927,0.37
0.015877373033721196,0.371
0.015880636002199418,0.372
0.015886943900656283,0.373
0.015896459613763656,0.374
0.015909337390216105,0.375
0.015925724997266542,0.376
0.015945764170477682,0.377
0.015969589202074582,0.378
0.01599732502510304,0.379
0.016029085851183254,0.38
0.01606497484920813,0.381
0.016105084824491172,0.382
0.016149499569671516,0.383
0.01619829550804539,0.384
0.016251543314758355,0.385
0.016309309263751463,0.386
0.016371656062074625,0.387
0.01643864292125376,0.388
0.01651032463234794,0.389
0.016586749487651094,0.39
0.01666795637104617,0.391
0.016753972574275463,0.392
0.01684481442886264,0.393
0.016940491041299164,0.394
0.017041009246783465,0.395
0.017146377721344485,0.396
0.017256608998926146,0.397
0.017371718668946386,0.398
0.01749172159082636,0.399
0.01761662631824403,0.4
0.017746430797899348,0.401
0.01788112182674164,0.402
0.0180206771456206,0.403
0.01816506726119458,0.404
0.018314255824727777,0.405
0.01846819917304146,0.406
0.018626845757355466,0.407
0.01879013547346496,0.408
0.018957998167706568,0.409
0.019130351279640228,0.41
0.019307099117373605,0.411
0.019488136546084146,0.412
0.01967335620150477,0.413
0.019862655867287395,0.414
0.020055943360887094,0.415
0.020253137391915997,0.416
0.02045416361147704,0.417
0.02065894701057061,0.418
0.020867405711522402,0.419
0.021079452247685645,0.42
0.02129500249039033,0.421
0.0215139863306521,0.422
0.021736354745996105,0.423
0.021962081170604296,0.424
0.022191156980221033,0.425
0.022423581928728748,0.426
0.02265935262550932,0.427
0.022898455389790556,0.428
0.023140867665249382,0.429
0.023386564403416417,0.43
0.023635522924414017,0.431
0.023887723443193433,0.432
0.024143145666858934,0.433
0.024401762938524623,0.434
0.024663535745742485,0.435
0.02492840631291152,0.436
0.025196295528239595,0.437
0.0254671027378719,0.438
0.02574070810168128,0.439
0.02601697638171683,0.44
0.02629576040180306,0.441
0.026576902189616575,0.442
0.026860230825550394,0.443
0.027145559545862206,0.444
0.027432687785511906,0.445
0.027721410716733848,0.446
0.028011532250786467,0.447
0.02830287545854252,0.448
0.02859528641383987,0.449
0.028888629379405274,0.45
0.02918277473301179,0.451
0.029477588287712207,0.452
0.02977293321818154,0.453
0.030068685292929633,0.454
0.0303647504056549,0.455
0.03066107388971284,0.456
0.030957637641193626,0.457
0.03125444546746887,0.458
0.03155150311897418,0.459
0.03184880728841983,0.46
0.03214635224190759,0.461
0.03244414533598286,0.462
0.03274221795638369,0.463
0.03304062696769404,0.464
0.03333944742182972,0.465
0.03363875872295684,0.466
0.03393862921513191,0.467
0.03423910791876318,0.468
0.034540228088153456,0.469
0.03484201678311259,0.47
0.03514450233199293,0.471
0.0354477168746085,0.472
0.035751694123459125,0.473
0.03605646290100427,0.474
0.03636203781678192,0.475
0.03666841056169926,0.476
0.03697554647100942,0.477
0.037283387050000366,0.478
0.03759185378272535,0.479
0.03790084890235023,0.48
0.038210252566060296,0.481
0.03851991796746007,0.482
0.038829666553874646,0.483
0.039139285731173694,0.484
0.039448531082197674,0.485
0.03975713403978805,0.486
0.04006481422192132,0.487
0.04037129368362709,0.488
0.04067630881257796,0.489
0.04097961512318652,0.49
0.041280981172935445,0.491
0.04158017381510533,0.492
0.041876948543545636,0.493
0.04217105923259823,0.494
0.042462283958648164,0.495
0.04275045102970602,0.496
0.04303545354016075,0.497
0.04331724853972463,0.498
0.04359584137570575,0.499
0.043871259220102966,0.5
0.04414352354066161,0.501
0.044412635991775376,0.502
0.044678582722590114,0.503
0.04494134532883452,0.504
0.04520090575181123,0.505
0.04545724275236796,0.506
0.04571032259423692,0.507
0.045960087424838265,0.508
0.04620644598670992,0.509
0.046449270266154884,0.51
0.046688396745923594,0.511
0.04692362711328374,0.512
0.04715472626581138,0.513
0.04738142235324836,0.514
0.04760341487330177,0.515
0.04782039071183105,0.516
0.048032043597408425,0.517
0.048238092775329866,0.518
0.04843829747904317,0.519
0.048632464220675006,0.52
0.048820444994224804,0.521
0.0490021257945099,0.522
0.049177405988757104,0.523
0.04934617493120315,0.524
0.04950830275213242,0.525
0.04966365723230122,0.526
0.049812137109096113,0.527
0.04995370411208947,0.528
0.05008840405063079,0.529
0.050216373039805806,0.53
0.05033782755344145,0.531
0.050453040142817034,0.532
0.05056230608771521,0.533
0.050665912077183684,0.534
0.05076412175747365,0.535
0.05085718173568955,0.536
0.05094533453965091,0.537
0.051028825195461314,0.538
0.05110789916943978,0.539
0.05118279467181721,0.54
0.05125373278080862,0.541
0.05132090861672858,0.542
0.05138448598958909,0.543
0.05144459664344853,0.544
0.0515013436257371,0.545
0.051554806834809314,0.546
0.0516050479135731,0.547
0.05165211162644704,0.548
0.05169602165583718,0.549
0.05173677211033201,0.55
0.0517743221477768,0.551
0.05180860122049648,0.552
0.051839523096721865,0.553
0.05186700049684611,0.554
0.05189095460781385,0.555
0.05191131756270705,0.556
0.051928027720158906,0.557
0.05194101850806399,0.558
0.05195020366260223,0.559
0.051955466321112684,0.56
0.051956660662988485,0.561
0.05195362683457026,0.562
0.05194621159048544,0.563
0.051934287327130825,0.564
0.05191776572746855,0.565
0.05189660377555691,0.566
0.05187080076611694,0.567
0.05184038611886417,0.568
0.05180539886187104,0.569
0.05176586455957865,0.57
0.05172178447492898,0.571
0.0516731476676895,0.572
0.05161995783678699,0.573
0.0515622588929393,0.574
0.051500149989946,0.575
0.05143378617865954,0.576
0.05136336356260882,0.577
0.05128909270929706,0.578
0.05121117234250616,0.579
0.051129777949050784,0.58
0.05104506536726071,0.581
0.05095717324791303,0.582
0.05086621648514154,0.583
0.05077228353422716,0.584
0.05067544900888144,0.585
0.05057579205185518,0.586
0.050473404058517315,0.587
0.05036837989141513,0.588
0.05026080050124751,0.589
0.05015072544274212,0.59
0.05003820578007728,0.591
0.04992330649422054,0.592
0.04980612252305828,0.593
0.04968678285671545,0.594
0.04956544356026575,0.595
0.04944227239639252,0.596
0.049317428944804044,0.597
0.049191045786165205,0.598
0.04906321703382528,0.599
0.04893399520275413,0.6
0.0488033920362446,0.601
0.04867138256300027,0.602
0.04853791384479282,0.603
0.04840291367287689,0.604
0.04826629155551333,0.605
0.04812793253232194,0.606
0.047987696502239316,0.607
0.047845432536689735,0.608
0.04770099927124661,0.609
0.0475542750629654,0.61
0.0474051504525369,0.611
0.04725351082050102,0.612
0.047099230741870085,0.613
0.046942191471288884,0.614
0.04678230541724352,0.615
0.046619524440418114,0.616
0.046453825954635396,0.617
0.04628519339141744,0.618
0.04611361842101503,0.619
0.04593913272769308,0.62
0.04576184782399878,0.621
0.04558197907814385,0.622
0.045399845471973024,0.623
0.045215846714857566,0.624
0.04503042552107579,0.625
0.04484403223306724,0.626
0.04465711281961947,0.627
0.04447012404399118,0.628
0.04428355736786165,0.629
0.04409795397430528,0.63
0.04391390676742648,0.631
0.04373205143606162,0.632
0.043553049528956805,0.633
0.04337756683742329,0.634
0.0432062526050926,0.635
0.043039728236962206,0.636
0.04287858845997543,0.637
0.042723406177719525,0.638
0.042574731779926815,0.639
0.04243308811668623,0.64
0.04229896919989484,0.641
0.04217284618182014,0.642
0.04205517478556476,0.643
0.04194639688908561,0.644
0.041846935072481745,0.645
0.04175718518902483,0.646
0.04167751381916651,0.647
0.04160826143888214,0.648
0.041549744880761574,0.649
0.04150225485341409,0.65
0.04146605261676581,0.651
0.04144137168012504,0.652
0.041428423038431986,0.653
0.04142739705764296,0.654
0.04143845970665336,0.655
0.04146175012835635,0.656
0.041497387156878694,0.657
0.04154548222720642,0.658
0.041606149729004976,0.659
0.0416795087376662,0.66
0.04176567482680016,0.661
0.04186474685380947,0.662
0.0419768002613893,0.663
0.0421018931412753,0.664
0.04224007689364145,0.665
0.04239140011049089,0.666
0.042555902492492116,0.667
0.0427336045236354,0.668
0.04292450464285409,0.669
0.04312859003839861,0.67
0.043345853715074364,0.671
0.043576307065865336,0.672
0.043819982917789886,0.673
0.044076927891838605,0.674
0.04434718657159878,0.675
0.044630787300212464,0.676
0.044927741598805644,0.677
0.04523805782144626,0.678
0.04556175791306326,0.679
0.04589888787752509,0.68
0.04624951970587866,0.681
0.04661374568914473,0.682
0.04699166674974154,0.683
0.04738337673947298,0.684
0.047788946538643386,0.685
0.048208415492215224,0.686
0.048641795210849485,0.687
0.04908908118265499,0.688
0.04955026361512167,0.689
0.050025332566670126,0.69
0.0505142756883102,0.691
0.05101706835302377,0.692
0.0515336600972408,0.693
0.05206396811389206,0.694
0.052607885751506676,0.695
0.05316530051094,0.696
0.05373611004480191,0.697
0.05432022860727649,0.698
0.05491757967030283,0.699
0.055528078000222476,0.7
0.056151619576041804,0.701
0.056788096419463904,0.702
0.05743742876165806,0.703
0.05809959299885673,0.704
0.05877463215893936,0.705
0.059462646233338745,0.706
0.06016376561612624,0.707
0.060878117500252876,0.708
0.061605802187685715,0.709
0.06234689076310724,0.71
0.06310143738578472,0.711
0.06386949218237742,0.712
0.06465110905297876,0.713
0.06544634944428715,0.714
0.0662552832471357,0.715
0.06707798642774591,0.716
0.06791453416418236,0.717
0.06876498848523331,0.718
0.06962938157962524,0.719
0.07050770114986432,0.72
0.07139988679474411,0.721
0.07230583861232556,0.722
0.07322542914405072,0.723
0.07415851009014475,0.724
0.07510491122647696,0.725
0.0760644322962114,0.726
0.07703683002452394,0.727
0.0780218041704984,0.728
0.07901898760318639,0.729
0.08002794210344483,0.73
0.08104815752312926,0.731
0.08207905344969878,0.732
0.08311998327703078,0.733
0.08417023628143228,0.734
0.08522903536396922,0.735
0.08629553958805951,0.736
0.08736886269707231,0.737
0.08844810557336191,0.738
0.08953239162365617,0.739
0.09062089547510986,0.74
0.09171285765523371,0.741
0.0928075798840973,0.742
0.09390439934617674,0.743
0.09500264888699424,0.744
0.09610162478631874,0.745
0.0972005858920438,0.746
0.09829878386989695,0.747
0.09939550282995065,0.748
0.10049009139375442,0.749
0.10158198309333259,0.75
0.10267070549167803,0.751
0.10375587866374454,0.752
0.10483720381455836,0.753
0.10591444312332764,0.754
0.10698739240937184,0.755
0.10805584868497842,0.756
0.10911957492851099,0.757
0.1101782686078942,0.758
0.11123154818331552,0.759
0.11227896632011782,0.76
0.11332004086820437,0.761
0.11435429001831657,0.762
0.11538126552874015,0.763
0.11640058087224585,0.764
0.1174119304129328,0.765
0.11841509585919457,0.766
0.11940993719251668,0.767
0.12039636689215165,0.768
0.12137430843415818,0.769
0.12234364848387577,0.77
0.123304207185874,0.771
0.12425574596596149,0.772
0.12519800128574984,0.773
0.12613071689674452,0.774
0.12705365901984791,0.775
0.12796661225381592,0.776
0.12886935955661147,0.777
0.12976165198952713,0.778
0.13064317523885596,0.779
0.1315135235724185,0.78
0.13237219421512855,0.781
0.13321860545104014,0.782
0.13405212746437642,0.783
0.13487211313003047,0.784
0.13567792213778077,0.785
0.136468934947361,0.786
0.137244553865147,0.787
0.13800418896053288,0.788
0.1387472266857726,0.789
0.13947299011135578,0.79
0.14018072298031026,0.791
0.14086962343975656,0.792
0.14153891109246045,0.793
0.14218789305403856,0.794
0.1428160101767692,0.795
0.14342285683764114,0.796
0.144008172219082,0.797
0.144571804963909,0.798
0.14511365580510052,0.799
0.14563361044701884,0.8
0.14613149250302984,0.801
0.1466070676265259,0.802
0.14706009564464145,0.803
0.14749039764028937,0.804
0.14789791067733382,0.805
0.1482827190192085,0.806
0.14864505744977827,0.807
0.14898528585035292,0.808
0.14930383869535807,0.809
0.1496011574067588,0.81
0.14987762424730594,0.811
0.15013353040471675,0.812
0.15036909433753468,0.813
0.15058450704562795,0.814
0.15077997415942063,0.815
0.1509557452692381,0.816
0.15111213028527945,0.817
0.1512495019323305,0.818
0.15136828292771665,0.819
0.1514689168598962,0.82
0.15155182368198405,0.821
0.1516173508867096,0.822
0.1516657482445073,0.823
0.15169718520827868,0.824
0.15171179501458273,0.825
0.15170971735288502,0.826
0.15169112643078858,0.827
0.15165624140048514,0.828
0.15160531864157495,0.829
0.1515386279844295,0.83
0.1514564173792808,0.831
0.15135887162497036,0.832
0.15124607460907072,0.833
0.15111799097869477,0.834
0.1509744745940779,0.835
0.15081528983072348,0.836
0.15064012691291492,0.837
0.15044860325949508,0.838
0.1502402506085378,0.839
0.15001449353323662,0.84
0.14977063001263854,0.841
0.14950782233032225,0.842
0.14922510239174375,0.843
0.14892139623025763,0.844
0.14859556853851075,0.845
0.1482464779028778,0.846
0.14787302813974296,0.847
0.14747420281028575,0.848
0.14704907482289012,0.849
0.14659678894882403,0.85
0.14611651992165947,0.851
0.14560741709415206,0.852
0.14506856458781447,0.853
0.14449899119429865,0.854
0.14389773417055546,0.855
0.14326392898603532,0.856
0.14259689706288609,0.857
0.14189621534919009,0.858
0.14116175500745237,0.859
0.1403936777964232,0.86
0.1395923835380059,0.861
0.13875841278852646,0.862
0.13789234161811925,0.863
0.13699474236551884,0.864
0.1360662453344104,0.865
0.13510764522044402,0.866
0.13411997794549374,0.867
0.13310454090643342,0.868
0.13206286141772888,0.869
0.13099663010825843,0.87
0.12990762206287138,0.871
0.1287976264227242,0.872
0.12766839629192944,0.873
0.12652161928462394,0.874
0.1253588998984106,0.875
0.12418174686654972,0.876
0.12299157345655444,0.877
0.12178972256127311,0.878
0.12057751071319278,0.879
0.11935627303107789,0.88
0.11812739557566111,0.881
0.1168923288139145,0.882
0.11565258149657302,0.883
0.11440969902298002,0.884
0.11316523282739356,0.885
0.11192070733393596,0.886
0.11067758960671621,0.887
0.10943726541949203,0.888
0.10820102418569619,0.889
0.10697005309593363,0.89
0.10574543934720987,0.891
0.10452817901603502,0.892
0.10331918961704117,0.893
0.10211932159224686,0.894
0.10092936382452952,0.895
0.09975004046152569,0.896
0.0985820048419614,0.897
0.09742584640124993,0.898
0.09628212015791303,0.899
0.09515138922396513,0.9
0.09403426296684013,0.901
0.09293141866739998,0.902
0.09184360048927064,0.903
0.09077159508775616,0.904
0.08971619155444197,0.905
0.08867814543133093,0.906
0.08765816876021802,0.907
0.08665694642939233,0.908
0.08567515639446038,0.909
0.08471347500194162,0.91
0.08377256416735789,0.911
0.08285304865020576,0.912
0.08195550103719124,0.913
0.08108044664215067,0.914
0.08022837961924507,0.915
0.07939977346966247,0.916
0.07859507934059168,0.917
0.077814715030984,0.918
0.0770590505160528,0.919
0.07632839535382165,0.92
0.07562299093521133,0.921
0.07494300745033881,0.922
0.07428854360291524,0.923
0.07365962815428467,0.924
0.07305622452889553,0.925
0.07247823934728406,0.926
0.07192553352267615,0.927
0.07139793363212556,0.928
0.0708952419740336,0.929
0.07041724484443534,0.93
0.06996371961962114,0.931
0.06953444185534811,0.932
0.06912919331563266,0.933
0.06874777041964338,0.934
0.06838999046029481,0.935
0.0680556912833967,0.936
0.06774472039663634,0.937
0.06745691416838101,0.938
0.0671920777006779,0.939
0.06694997971294195,0.94
0.06673036278739998,0.941
0.06653295384549794,0.942
0.06635746268474751,0.943
0.06620356949426462,0.944
0.06607091175194091,0.945
0.06595907994612414,0.946
0.06586761902100259,0.947
0.06579602794121528,0.948
0.06574376477146704,0.949
0.06571027007491095,0.95
0.06569500338984827,0.951
0.06569747523874443,0.952
0.065717262052884,0.953
0.06575399991854551,0.954
0.06580736042865831,0.955
0.06587701760633796,0.956
0.06596261675116542,0.957
0.06606375339237155,0.958
0.06617996381457278,0.959
0.06631072306317082,0.96
0.0664554460625503,0.961
0.0666134888056661,0.962
0.06678414781708597,0.963
0.06696665909079412,0.964
0.06716019889311577,0.965
0.06736388599657069,0.966
0.06757678299600604,0.967
0.06779789598265556,0.968
0.06802617436785613,0.969
0.06826051414505642,0.97
0.0684997681306839,0.971
0.06874276555390656,0.972
0.06898834090447052,0.973
0.0692353689280649,0.974
0.06948280008506377,0.975
0.0697296893988313,0.976
0.06997521169035971,0.977
0.07021865774388429,0.978
0.0704594087147059,0.979
0.070696892562588,0.98
0.07093054291567304,0.981
0.07115979357355076,0.982
0.07138411961881197,0.983
0.07160309782469022,0.984
0.07181645282203018,0.985
0.07202407307065102,0.986
0.07222599299635891,0.987
0.07242234537379315,0.988
0.07261329952238854,0.989
0.07279901292237298,0.99
0.07297961492728225,0.991
0.07315520981939262,0.992
0.0733258737331193,0.993
0.0734916412441165,0.994
0.0736524957536933,0.995
0.07380836822580132,0.996
0.07395913720338997,0.997
0.07410463423962835,0.998
0.07424466442259203,0.999
0.07437903430154809,1.0
0.0745075699149242,1.001
0.07463011556538003,1.002
0.07474651416398664,1.003
0.07485658234687116,1.004
0.0749601029443955,1.005
0.07505684318291395,1.006
0.07514658042881506,1.007
0.07522911248402518,1.008
0.07530424436019344,1.009
0.07537176371779165,1.01
0.07543143384950478,1.011
0.07548301879835652,1.012
0.07552631975738047,1.013
0.07556119393785397,1.014
0.07558754504994736,1.015
0.07560529157437196,1.016
0.07561433525817228,1.017
0.07561455551507995,1.018
0.07560582940699126,1.019
0.075588051011731,1.02
0.07556112895369903,1.021
0.07552496395770714,1.022
0.07547942945359738,1.023
0.07542437815404957,1.024
0.07535967025513378,1.025
0.07528519877693109,1.026
0.07520089486877897,1.027
0.0751067098451624,1.028
0.07500258460609754,1.029
0.07488843571971483,1.03
0.07476418252770638,1.031
0.07462980443045517,1.032
0.0744853979836319,1.033
0.07433121178749835,1.034
0.07416764767829072,1.035
0.07399522473784408,1.036
0.0738145187484747,1.037
0.07362611236208352,1.038
0.07343058717131935,1.039
0.07322854645445011,1.04
0.07302063105310416,1.041
0.07280750930235311,1.042
0.07258984832379839,1.043
0.07236828343805521,1.044
0.0721434006300608,1.045
0.07191574001908357,1.046
0.07168581925074606,1.047
0.07145416810332124,1.048
0.07122136182799048,1.049
0.07098804147070023,1.05
0.07075491370909943,1.051
0.07052272881966053,1.052
0.07029224472527737,1.053
0.07006419736300615,1.054
0.06983929594691651,1.055
0.06961823813519859,1.056
0.06940172347266323,1.057
0.06919045223792286,1.058
0.06898511198849513,1.059
0.06878636052338716,1.06
0.06859481389329727,1.061
0.0684110444393946,1.062
0.06823558828546557,1.063
0.06806895681682625,1.064
0.06791164466600468,1.065
0.0677641283277011,1.066
0.06762685510854176,1.067
0.06750023101139437,1.068
0.06738461938794825,1.069
0.06728035132417254,1.07
0.06718773603718088,1.071
0.06710706033782114,1.072
0.06703857774842108,1.073
0.06698250049194185,1.074
0.0669390062998659,1.075
0.06690825471679505,1.076
0.06689039796667888,1.077
0.0668855781731442,1.078
0.06689391300464621,1.079
0.06691548016665516,1.08
0.06695031179350007,1.081
0.06699839767621694,1.082
0.06705968608259447,1.083
0.06713407807661896,1.084
0.06722142424996716,1.085
0.06732153036280303,1.086
0.06743416548205532,1.087
0.06755906368839595,1.088
0.06769591795417369,1.089
0.06784437164149948,1.09
0.06800401672230315,1.091
0.06817440382609373,1.092
0.06835505996217017,1.093
0.0685455062306348,1.094
0.06874526959070097,1.095
0.06895388411276451,1.096
0.06917087935378216,1.097
0.06939575988049049,1.098
0.06962798829528333,1.099
0.06986698176215488,1.1
0.07011211713138935,1.101
0.07036273251592493,1.102
0.0706181210337952,1.103
0.07087752239997062,1.104
0.07114012112208713,1.105
0.07140505452804893,1.106
0.0716714258789414,1.107
0.07193831595036229,1.108
0.07220478850031725,1.109
0.07246988623632175,1.11
0.07273261839595029,1.111
0.07299195160495771,1.112
0.07324681865346454,1.113
0.07349614578004493,1.114
0.07373888570656925,1.115
0.07397404470292973,1.116
0.07420069787770626,1.117
0.07441799022707858,1.118
0.0746251234453469,1.119
0.07482133089421616,1.12
0.07500584508255279,1.121
0.07517786731889894,1.122
0.07533655606238328,1.123
0.07548104261363571,1.124
0.07561046403768264,1.125
0.07572399923747912,1.126
0.07582090208750207,1.127
0.07590052819594563,1.128
0.07596235050344613,1.129
0.07600595875067163,1.13
0.07603103928938708,1.131
0.07603733459014744,1.132
0.07602459429557397,1.133
0.07599255041571133,1.134
0.07594093970530248,1.135
0.07586955452883905,1.136
0.0757782882490103,1.137
0.07566715917363691,1.138
0.07553631103638246,1.139
0.07538599277286556,1.14
0.0752165233192825,1.141
0.07502824817962857,1.142
0.0748214978053671,1.143
0.0745965646578439,1.144
0.07435371030426642,1.145
0.07409319444837414,1.146
0.07381531016629728,1.147
0.07352041680721652,1.148
0.0732089658016397,1.149
0.07288151309853363,1.15
0.07253871174642844,1.151
0.07218128129878548,1.152
0.07180996258277338,1.153
0.07142548554882841,1.154
0.07102857474474258,1.155
0.07061998290060052,1.156
0.07020052343343725,1.157
0.06977108552744246,1.158
0.06933263131823976,1.159
0.06888617977857754,1.16
0.06843278237704228,1.161
0.06797349494228226,1.162
0.06750935037686477,1.163
0.0670413393850967,1.164
0.066570405675243,1.165
0.06609745329422506,1.166
0.06562335655303053,1.167
0.06514896606808462,1.168
0.06467511057168107,1.169
0.06420259640765599,1.17
0.06373220647458294,1.171
0.06326469954906491,1.172
0.06280080979778284,1.173
0.062341245425538754,1.174
0.06188668523753637,1.175
0.06143777245868308,1.176
0.060995106749596746,1.177
0.0605592378933504,1.178
0.060130664712572265,1.179
0.05970983822486073,1.18
0.05929716415160214,1.181
0.05889300198520211,1.182
0.05849766389845374,1.183
0.05811141983512182,1.184
0.05773451025819448,1.185
0.057367160600147876,1.186
0.05700958951235392,1.187
0.05666200591825534,1.188
0.05632459677018336,1.189
0.05599751734685602,1.19
0.055680895433763894,1.191
0.055374845918340784,1.192
0.055079483708047806,1.193
0.0547949285996836,1.194
0.05452130282819735,1.195
0.05425872423699928,1.196
0.054007297694163604,1.197
0.053767106235350234,1.198
0.053538202392108665,1.199
0.05332060006484617,1.2
0.0531142683212595,1.201
0.052919128928734356,1.202
0.05273505753152915,1.203
0.05256188680254093,1.204
0.05239941142556924,1.205
0.05224739663799755,1.206
0.05210559123991119,1.207
0.051973743211437724,1.208
0.051851613250731406,1.209
0.05173898024974357,1.21
0.05163563400260376,1.211
0.0515413577309587,1.212
0.051455915499348893,1.213
0.05137905912297931,1.214
0.051310549841746884,1.215
0.05125017815888665,1.216
0.05119777204548971,1.217
0.051153192842366434,1.218
0.05111632157476474,1.219
0.051087039058832155,1.22
0.05106520537292309,1.221
0.05105064815713838,1.222
0.05104316493774568,1.223
0.0510425328476722,1.224
0.05104851607664531,1.225
0.051060867844556185,1.226
0.05107932807239995,1.227
0.0511036185763698,1.228
0.051133437165936345,1.229
0.05116845118869009,1.23
0.05120829091105794,1.231
0.051252544530372715,1.232
0.05130075722191953,1.233
0.051352433488908555,1.234
0.051407038468970094,1.235
0.05146399635262789,1.236
0.0515226913971262,1.237
0.05158247798504863,1.238
0.05164269859161279,1.239
0.0517027041786809,1.24
0.051761873235152384,1.241
0.0518196267701477,1.242
0.05187543582965775,1.243
0.05192881743318402,1.244
0.05197931578104755,1.245
0.05202647615486891,1.246
0.05206983675631156,1.247
0.05210895668465885,1.248
0.05214346548985011,1.249
0.052173107105661594,1.25
0.05219776323701341,1.251
0.052217451267646986,1.252
0.05223229694826611,1.253
0.05224248836293769,1.254
0.05224822888103969,1.255
0.05224971527145181,1.256
0.052247148683474354,1.257
0.05224075511695052,1.258
0.05223079070123437,1.259
0.052217527245002025,1.26
0.052201227746072894,1.261
0.052182128055577315,1.262
0.05216043287021848,1.263
0.05213631701686716,1.264
0.0521099248209524,1.265
0.05208137639645144,1.266
0.05205078812158432,1.267
0.05201829860860468,1.268
0.05198408643408651,1.269
0.05194837226592341,1.27
0.05191140404305265,1.271
0.05187343166697733,1.272
0.05183468877420387,1.273
0.05179539609583975,1.274
0.05175577957373784,1.275
0.05171608464256695,1.276
0.051676576198505506,1.277
0.05163752404318644,1.278
0.05159918176867819,1.279
0.05156177510644166,1.28
0.051525508684326156,1.281
0.05149058080624536,1.282
0.05145719159524261,1.283
0.05142554018769299,1.284
0.051395813183856075,1.285
0.0513681698850427,1.286
0.051342733458444145,1.287
0.05131959285801026,1.288
0.05129880945018582,1.289
0.05128041953700755,1.29
0.0512644301014262,1.291
0.05125081079380665,1.292
0.05123948738955402,1.293
0.051230339712057586,1.294
0.05122320492786753,1.295
0.05121788816641991,1.296
0.05121418016396616,1.297
0.05121187675014249,1.298
0.05121079380981579,1.299
0.051210773178377696,1.3
0.05121167734231501,1.301
0.051213373253257276,1.302
0.05121571172039077,1.303
0.051218518174285674,1.304
0.051221605442491554,1.305
0.05122479965925272,1.306
0.05122796370183706,1.307
0.05123101021048208,1.308
0.051233901414765796,1.309
0.051236635062041375,1.31
0.05123921980932706,1.311
0.05124165128190169,1.312
0.0512439036353956,1.313
0.051245938362673105,1.314
0.05124771510582196,1.315
0.05124919038437584,1.316
0.05125030500482808,1.317
0.05125097402039793,1.318
0.05125109055006369,1.319
0.051250536915347804,1.32
0.051249187212728066,1.321
0.05124689801741297,1.322
0.05124350379417418,1.323
0.05123883255261125,1.324
0.051232734286004035,1.325
0.051225103515113654,1.326
0.05121588566063348,1.327
0.05120506576795775,1.328
0.05119264383355833,1.329
0.05117860937787953,1.33
0.05116293208398788,1.331
0.05114557201592358,1.332
0.05112649476413554,1.333
0.05110567761080748,1.334
0.051083104681968194,1.335
0.051058754880257115,1.336
0.05103258677987244,1.337
0.05100452486441621,1.338
0.05097445174849996,1.339
0.05094220674246712,1.34
0.05090758652731867,1.341
0.05087034910044608,1.342
0.050830227484662295,1.343
0.05078695288186027,1.344
0.050740278532977176,1.345
0.05068999407818422,1.346
0.050635922464280794,1.347
0.050577900410723194,1.348
0.050515760939557515,1.349
0.05044934042400672,1.35
0.050378508661944627,1.351
0.050303199212260105,1.352
0.05022342228805972,1.353
0.050139256403495945,1.354
0.050050822233219695,1.355
0.04995824905147693,1.356
0.04986165352317209,1.357
0.049761144847447356,1.358
0.04965684736361806,1.359
0.04954892126718406,1.36
0.049437570849629055,1.361
0.04932303825954968,1.362
0.0492055839218766,1.363
0.04908546133876599,1.364
0.04896290408869515,1.365
0.04883813639949429,1.366
0.04871139655519744,1.367
0.04858295580677984,1.368
0.048453125850639954,1.369
0.04832225496153205,1.37
0.048190714825397316,1.371
0.048058881288731065,1.372
0.04792711415259664,1.373
0.04779574408601501,1.374
0.047665072075762656,1.375
0.04753537751262378,1.376
0.04740692682127734,1.377
0.047279978762544896,1.378
0.04715478666989313,1.379
0.04703159880065846,1.38
0.046910657782579614,1.381
0.04679219978839925,1.382
0.04667645373140435,1.383
0.04656364052850156,1.384
0.04645397233806141,1.385
0.04634765159596311,1.386
0.046244869553114784,1.387
0.046145803803434436,1.388
0.04605061405629597,1.389
0.0459594354986794,1.39
0.04587237139829688,1.391
0.04578949044806073,1.392
0.04571083227835616,1.393
0.045636416861762695,1.394
0.045566251230778086,1.395
0.04550033086551922,1.396
0.045438636509707794,1.397
0.0453811290135183,1.398
0.04532774566504841,1.399
0.04527840074361444,1.4
0.04523299087324134,1.401
0.04519140320122584,1.402
0.04515352278974523,1.403
0.04511923566319975,1.404
0.04508842552721838,1.405
0.045060964388980274,1.406
0.04503670044381515,1.407
0.0450154498471203,1.408
0.04499699648712027,1.409
0.04498109607084323,1.41
0.04496747827513906,1.411
0.04495584502849153,1.412
0.04494586673910773,1.413
0.04493717923309237,1.414
0.044929383803898146,1.415
0.044922051873808995,1.416
0.044914734812563646,1.417
0.044906978594757854,1.418
0.04489834192515339,1.419
0.04488841489728797,1.42
0.04487683331680108,1.421
0.04486328236044748,1.422
0.044847483581484326,1.423
0.04482917003789007,1.424
0.04480807488440537,1.425
0.044783954153773176,1.426
0.044756629463550884,1.427
0.04472602127186869,1.428
0.044692158090529774,1.429
0.04465516116260669,1.43
0.0446152105027599,1.431
0.044572504986028605,1.432
0.0445272364413619,1.433
0.044479590273974745,1.434
0.04442976322478705,1.435
0.04437798039528674,1.436
0.04432450334100717,1.437
0.04426962918285814,1.438
0.04421368235096395,1.439
0.0441570008355038,1.44
0.04409991927909161,1.441
0.04404275246258248,1.442
0.04398578418893815,1.443
0.043929264497479976,1.444
0.043873412642134735,1.445
0.04381842129713252,1.446
0.04376446034080114,1.447
0.04371168072659517,1.448
0.04366021859934747,1.449
0.04361019883359858,1.45
0.04356173658476666,1.451
0.04351493538410005,1.452
0.043469880862103134,1.453
0.04342663259509246,1.454
0.04338522214218814,1.455
0.043345663145316064,1.456
0.043307969013282974,1.457
0.043272169336482216,1.458
0.04323831948764291,1.459
0.043206500808292386,1.46
0.04317681067560918,1.461
0.04314934540720266,1.462
0.04312418549183431,1.463
0.043101394738651155,1.464
0.04308103462647059,1.465
0.0430631835918015,1.466
0.04304795170697334,1.467
0.04303548752417021,1.468
0.043025976860920224,1.469
0.043019634198080706,1.47
0.043016688149133474,1.471
0.04301736340024094,1.472
0.043021864225301056,1.473
0.043030367261627754,1.474
0.043043026049910664,1.475
0.04305998051137498,1.476
0.0430813638243233,1.477
0.04310730468744894,1.478
0.043137925796341785,1.479
0.0431733398498203,1.48
0.04321364462480074,1.481
0.04325891857430849,1.482
0.04330921799851556,1.483
0.04336457614866758,1.484
0.043425003793920176,1.485
0.04349049006366314,1.486
0.043561002061056064,1.487
0.04363648204683427,1.488
0.04371684235360735,1.489
0.04380196057147417,1.49
0.04389167813104715,1.491
0.043985802067060834,1.492
0.04408410673776105,1.493
0.04418633361863774,1.494
0.04429219006871682,1.495
0.04440134886193345,1.496
0.044513449659531155,1.497
0.04462810255762003,1.498
0.044744892987826475,1.499
0.04486338689565227,1.5
0.0449831352187055,1.501
0.045103677027742727,1.502
0.04522454108560337,1.503
0.04534524584328455,1.504
0.04546529785118057,1.505
0.045584188155221896,1.506
0.04570138592534046,1.507
0.04581633132669343,1.508
0.045928435459594116,1.509
0.04603709401118586,1.51
0.046141711477219266,1.511
0.04624172763598474,1.512
0.04633663971227954,1.513
0.0464260152525108,1.514
0.04650949175993216,1.515
0.046586761002664095,1.516
0.046657541303524244,1.517
0.04672155367065596,1.518
0.0467785234612776,1.519
0.04682821057122771,1.52
0.04687044769638615,1.521
0.046905165973484826,1.522
0.04693239992379513,1.523
0.04695227157410141,1.524
0.04696495768843593,1.525
0.04697065095684555,1.526
0.046969534744348396,1.527
0.0469617833659675,1.528
0.04694757615841151,1.529
0.0469271054942384,1.53
0.04690057130357285,1.531
0.04686816577834451,1.532
0.0468300566077132,1.533
0.046786377299697965,1.534
0.04673722522106474,1.535
0.04668266135964234,1.536
0.046622712541098586,1.537
0.04655738259864175,1.538
0.04648667171326667,1.539
0.046410596618018565,1.54
0.04632920544639205,1.541
0.0462425831172088,1.542
0.04615084472430994,1.543
0.04605411754796937,1.544
0.04595252041437029,1.545
0.04584615721700034,1.546
0.045735132390429395,1.547
0.04561957642351232,1.548
0.045499665708398876,1.549
0.045375630643192735,1.55
0.04524775189555699,1.551
0.045116346750275226,1.552
0.04498174889577461,1.553
0.044844286298820236,1.554
0.044704263979878894,1.555
0.0445619582533442,1.556
0.044417622100703325,1.557
0.04427149465581644,1.558
0.04412380948234159,1.559
0.04397480110677521,1.56
0.04382471073568305,1.561
0.043673791612630145,1.562
0.043522313810371964,1.563
0.043370567491888154,1.564
0.0432188630377253,1.565
0.043067526267548686,1.566
0.042916887496534745,1.567
0.04276726661468111,1.568
0.04261896336501043,1.569
0.04247226216408078,1.57
0.04232744906505478,1.571
0.04218482979889249,1.572
0.04204474067063772,1.573
0.04190754969016612,1.574
0.04177364852030032,1.575
0.0416434379841888,1.576
0.04151731127753093,1.577
0.04139563909534786,1.578
0.04127875957640315,1.579
0.041166973907346555,1.58
0.04106054643743597,1.581
0.040959706797656995,1.582
0.040864651132726026,1.583
0.04077554168270625,1.584
0.040692508439399366,1.585
0.0406156570283753,1.586
0.04054508140266956,1.587
0.04048087631754421,1.588
0.040423145541369374,1.589
0.04037200349272108,1.59
0.04032756958986881,1.591
0.04028995647445568,1.592
0.04025925662861637,1.593
0.04023553537902818,1.594
0.04021883396201334,1.595
0.04020917679394903,1.596
0.04020657578133565,1.597
0.04021102993705259,1.598
0.04022252127651876,1.599
0.040241008443815646,1.6
0.040266421359788376,1.601
0.04029866172035986,1.602
0.04033761092782062,1.603
0.040383141390423136,1.604
0.04043512555344536,1.605
0.04049343878769662,1.606
0.04055795403435918,1.607
0.040628530544468515,1.608
0.0407050065380071,1.609
0.040787204532481414,1.61
0.04087494584160784,1.611
0.04096806428828014,1.612
0.04106641370688714,1.613
0.04116986867863526,1.614
0.041278319564420816,1.615
0.041391663529815256,1.616
0.04150979358424368,1.617
0.04163258757108441,1.618
0.04175989846050947,1.619
0.04189154697114702,1.62
0.042027318124836094,1.621
0.042166963084281237,1.622
0.042310205861391004,1.623
0.04245675374376206,1.624
0.04260631080810125,1.625
0.04275859367061946,1.626
0.04291334762496625,1.627
0.04307036039263997,1.628
0.043229470156908215,1.629
0.04339056453825467,1.63
0.043553567937623494,1.631
0.043718419334575175,1.632
0.04388505364910041,1.633
0.04405340370582051,1.634
0.04422342327780979,1.635
0.044395113613973004,1.636
0.04456853749655842,1.637
0.044743815793010594,1.638
0.04492110815584744,1.639
0.0451005849333319,1.64
0.045282403919119474,1.641
0.0454667030651955,1.642
0.04565360473460984,1.643
0.04584321720411276,1.644
0.04603562778373183,1.645
0.046230895917273425,1.646
0.046429055393642074,1.647
0.04663012304717783,1.648
0.04683410462752901,1.649
0.04704099274283174,1.65
0.04725075830049846,1.651
0.047463342090531394,1.652
0.047678654214488615,1.653
0.04789658226879571,1.654
0.048117002053082815,1.655
0.04833978524369329,1.656
0.04856480252785652,1.657
0.04879192265919109,1.658
0.049021008520272864,1.659
0.04925191168353922,1.66
0.04948446704137498,1.661
0.049718488721736225,1.662
0.04995376771375792,1.663
0.05019007061654711,1.664
0.05042713811009789,1.665
0.050664681507851216,1.666
0.05090237723463795,1.667
0.05113986289148947,1.668
0.05137674014374036,1.669
0.05161258522551815,1.67
0.051846963235527156,1.671
0.05207944272811047,1.672
0.05230960889545251,1.673
0.052537073880402324,1.674
0.0527614824428799,1.675
0.0529825112891818,1.676
0.05319986100548842,1.677
0.05341324063800455,1.678
0.053622347871835487,1.679
0.05382685364974401,1.68
0.05402640169222726,1.681
0.054220623812146276,1.682
0.05440916212520791,1.683
0.05459169036141402,1.684
0.05476793131547692,1.685
0.05493766855140007,1.686
0.05510074974267951,1.687
0.055257078796813776,1.688
0.05540659469454417,1.689
0.05554924208137162,1.69
0.05568495270499431,1.691
0.055813654892390485,1.692
0.05593530285638228,1.693
0.05604990256848999,1.694
0.056157519999048416,1.695
0.05625827018435299,1.696
0.05635229230729387,1.697
0.05643971962409598,1.698
0.05652065431948352,1.699
0.05659515364075976,1.7
0.05666322554172189,1.701
0.056724829021000574,1.702
0.05677987774426364,1.703
0.05682824534120726,1.704
0.056869768050590276,1.705
0.05690424232493268,1.706
0.05693142040724469,1.707
0.05695101024208978,1.708
0.056962682622163,1.709
0.05696608216736498,1.71
0.05696083784817966,1.711
0.056946571692055414,1.712
0.05692290593099588,1.713
0.05688946931908491,1.714
0.056845903634073526,1.715
0.05679187106592701,1.716
0.056727061956866984,1.717
0.056651200499570974,1.718
0.05656404446956769,1.719
0.05646537480624869,1.72
0.05635497548964775,1.721
0.05623261702880793,1.722
0.05609806371617522,1.723
0.055951108564920984,1.724
0.05579161865018278,1.725
0.055619572100319266,1.726
0.05543507738726825,1.727
0.055238371622641926,1.728
0.0550297983303876,1.729
0.05480976878939285,1.73
0.05457871722958013,1.731
0.0543370692788075,1.732
0.05408523912315602,1.733
0.053823648659328614,1.734
0.05355274884679176,1.735
0.053273031772722336,1.736
0.05298503263626384,1.737
0.052689324052482084,1.738
0.05238650534762102,1.739
0.05207718951110813,1.74
0.05176199025107464,1.741
0.05144151108337121,1.742
0.051116337442083166,1.743
0.05078703150919287,1.744
0.05045412822450935,1.745
0.05011813044037796,1.746
0.04977950363324643,1.747
0.0494386754433511,1.748
0.049096044369113724,1.749
0.048751994234095854,1.75
0.04840690753598985,1.751
0.048061173365332784,1.752
0.047715188116620864,1.753
0.04736934883797671,1.754
0.047024040650707845,1.755
0.04667962282453752,1.756
0.04633642198479529,1.757
0.04599473682477343,1.758
0.04565484837768601,1.759
0.04531702778606877,1.76
0.04498153882451057,1.761
0.044648635419548645,1.762
0.044318554892109424,1.763
0.04399150909200143,1.764
0.04366767868309898,1.765
0.0433472156276946,1.766
0.04303025269579236,1.767
0.042716914084162005,1.768
0.04240732240736662,1.769
0.0421016000020693,1.77
0.041799864051968075,1.771
0.04150221686279795,1.772
0.04120873612991463,1.773
0.04091947217842281,1.774
0.04063445403621456,1.775
0.040353698468703764,1.776
0.04007721553877665,1.777
0.039805008268352995,1.778
0.03953706637375376,1.779
0.03927335735284865,1.78
0.03901382267513082,1.781
0.0387583833444999,1.782
0.038506949031404634,1.783
0.03825942239030814,1.784
0.038015695353336335,1.785
0.03777564062431374,1.786
0.03753910800350546,1.787
0.03730593240871851,1.788
0.0370759486576823,1.789
0.036849003906162775,1.79
0.036624963344550544,1.791
0.036403707970455626,1.792
0.03618512423068315,1.793
0.0359690895959079,1.794
0.03575546561566927,1.795
0.035544106952109675,1.796
0.03533488012746768,1.797
0.035127679935120164,1.798
0.03492243756874717,1.799
0.03471911951553468,1.8
0.034517718078532614,1.801
0.034318235489123196,1.802
0.03412066655819422,1.803
0.033924989708862686,1.804
0.033731172523456206,1.805
0.03353918557422009,1.806
0.03334901407570736,1.807
0.03316066231402367,1.808
0.03297415011630372,1.809
0.03278950262402533,1.81
0.032606736830525396,1.811
0.03242585020215181,1.812
0.03224681484420632,1.813
0.03206957609845218,1.814
0.03189405479485999,1.815
0.031720154949092805,1.816
0.03154777534681729,1.817
0.0313768192697153,1.818
0.0312071973810988,1.819
0.03103882198186371,1.82
0.03087159715552608,1.821
0.03070541648528727,1.822
0.030540175439431723,1.823
0.030375791673445913,1.824
0.030212222339143526,1.825
0.03004947321787711,1.826
0.02988759855203108,1.827
0.02972669202292524,1.828
0.02956687061516836,1.829
0.02940825565915167,1.83
0.0292509595939169,1.831
0.029095085472372606,1.832
0.028940736175915305,1.833
0.02878802419147149,1.834
0.02863707653068531,1.835
0.02848803447823515,1.836
0.02834104970301364,1.837
0.028196278573721357,1.838
0.028053876226891823,1.839
0.027913991147794793,1.84
0.027776760172867083,1.841
0.02764230353265446,1.842
0.027510720512328755,1.843
0.02738208747286521,1.844
0.027256458507208575,1.845
0.0271338661943107,1.846
0.027014320815969443,1.847
0.026897810011984005,1.848
0.026784300721467563,1.849
0.02667374145322168,1.85
0.026566062295996402,1.851
0.02646117418187761,1.852
0.02635897143584289,1.853
0.026259338433259928,1.854
0.02616215674314664,1.855
0.026067308816164737,1.856
0.025974676520089446,1.857
0.02588413520969099,1.858
0.025795547405337866,1.859
0.025708762074811133,1.86
0.0256236210669725,1.861
0.02553996764001251,1.862
0.02545765126578554,1.863
0.0253765260593593,1.864
0.025296443711762696,1.865
0.0252172468809826,1.866
0.025138770621342732,1.867
0.025060852052280525,1.868
0.024983340613544257,1.869
0.024906101941009805,1.87
0.0248290131306531,1.871
0.024751952108723,1.872
0.024674789673692746,1.873
0.024597392022470185,1.874
0.024519631290821242,1.875
0.024441395062979893,1.876
0.02436258904527766,1.877
0.024283131997532282,1.878
0.024202945287822984,1.879
0.024121943609656037,1.88
0.02404003460694911,1.881
0.023957128232266436,1.882
0.023873148929390065,1.883
0.023788043973940645,1.884
0.023701785329885344,1.885
0.023614364528936935,1.886
0.02352578170893388,1.887
0.023436034150501956,1.888
0.0233451134133961,1.889
0.023253014628057244,1.89
0.02315975078665409,1.891
0.023065362870514,1.892
0.022969921703212277,1.893
0.022873520915238307,1.894
0.022776263607781098,1.895
0.022678250538620607,1.896
0.022579578139860553,1.897
0.022480345407891796,1.898
0.02238066050412841,1.899
0.022280640378631263,1.9
0.022180403592924648,1.901
0.02208006169905729,1.902
0.02197971616202106,1.903
0.021879462342994226,1.904
0.021779394657049356,1.905
0.021679606936159803,1.906
0.021580187748554244,1.907
0.021481216166979265,1.908
0.021382763861090975,1.909
0.021284902624494416,1.91
0.02118771111167618,1.911
0.021091276341918548,1.912
0.02099568943396029,1.913
0.020901037833546694,1.914
0.020807398799907725,1.915
0.020714838490791455,1.916
0.020623415961029727,1.917
0.0205331875788068,1.918
0.02044420869838365,1.919
0.020356532137853302,1.92
0.020270204156465424,1.921
0.02018525947371334,1.922
0.02010171800784487,1.923
0.020019585045680608,1.924
0.019938853405066854,1.925
0.01985950490667249,1.926
0.019781509913409736,1.927
0.019704825363949047,1.928
0.01962939316228481,1.929
0.019555141123284825,1.93
0.019481986688566467,1.931
0.019409841439708638,1.932
0.019338614198093088,1.933
0.019268211198223494,1.934
0.019198533046578363,1.935
0.019129471186151326,1.936
0.019060908750537967,1.937
0.018992727219437358,1.938
0.018924814630671936,1.939
0.018857070309623063,1.94
0.018789403812902932,1.941
0.018721728533798783,1.942
0.018653954401112866,1.943
0.018585986892247764,1.944
0.018517734693085073,1.945
0.01844912017300405,1.946
0.018380085747675474,1.947
0.018310593340306817,1.948
0.01824061707616203,1.949
0.01817013254686005,1.95
0.018099110249958805,1.951
0.018027518494399927,1.952
0.017955332059038612,1.953
0.0178825395053635,1.954
0.017809146035048504,1.955
0.017735172038104347,1.956
0.01766064835248971,1.957
0.0175856094911343,1.958
0.01751008623561182,1.959
0.017434099644940432,1.96
0.01735765882656177,1.961
0.017280762720502444,1.962
0.01720340345600862,1.963
0.017125569067851537,1.964
0.017047245128656772,1.965
0.01696841558139603,1.966
0.016889063082699177,1.967
0.016809169151639047,1.968
0.016728714347936522,1.969
0.01664767857276277,1.97
0.016566041399780393,1.971
0.016483782127465752,1.972
0.016400879055708424,1.973
0.016317307426679084,1.974
0.01623303603451904,1.975
0.01614802432278182,1.976
0.016062223037057313,1.977
0.01597557935752317,1.978
0.015888044138036794,1.979
0.015799578445704784,1.98
0.01571015794386215,1.981
0.0156197744554815,1.982
0.015528434469777447,1.983
0.015436154820518135,1.984
0.01534295612689628,1.985
0.015248855649538396,1.986
0.015153863142449205,1.987
0.015057982479520365,1.988
0.014961217552884145,1.989
0.014863578840954825,1.99
0.014765088568761981,1.991
0.014665783779318079,1.992
0.014565716946098633,1.993
0.014464954004933136,1.994
0.014363570097083925,1.995
0.01426164369850534,1.996
0.014159250331370169,1.997
0.014056458051290492,1.998
0.01395332694525267,1.999
0.013849912527348577,2.0
0.01374627068364829,2.001
0.013642462165553211,2.002
0.013538555860684427,2.003
0.01343463048236015,2.004
0.013330774389252245,2.005
0.013227083444499186,2.006
0.013123657122231857,2.007
0.013020593424309742,2.008
0.012917984031316424,2.009
0.012815912064289227,2.01
0.01271445345881816,2.011
0.012613680098647958,2.012
0.012513662544987699,2.013
0.012414471813248376,2.014
0.012316180330416232,2.015
0.01221886208479454,2.016
0.012122591864674587,2.017
0.012027443488691794,2.018
0.011933487089706209,2.019
0.011840786077134333,2.02
0.011749395231155054,2.021
0.01165936095621388,2.022
0.011570722944860744,2.023
0.011483515806058938,2.024
0.011397770039681752,2.025
0.011313512402886314,2.026
0.011230765798337846,2.027
0.01114954876742213,2.028
0.011069874642513943,2.029
0.010991750416918163,2.03
0.010915175436983282,2.031
0.010840140145910183,2.032
0.010766625231201702,2.033
0.01069460131956034,2.034
0.010624028964590105,2.035
0.010554858729952252,2.036
0.010487031467272185,2.037
0.010420478766832292,2.038
0.010355123291562298,2.039
0.010290878770086845,2.04
0.010227649839058406,2.041
0.010165332400764884,2.042
0.010103815067050806,2.043
0.010042981636087368,2.044
0.009982714226198716,2.045
0.009922896725512883,2.046
0.009863418138046323,2.047
0.009804175218975362,2.048
0.00974507366080428,2.049
0.009686027112992691,2.05
0.009626953587849346,2.051
0.009567770486260986,2.052
0.009508392259619478,2.053
0.009448733421190602,2.054
0.009388714222723275,2.055
0.00932826463144612,2.056
0.009267324922755567,2.057
0.009205843305152618,2.058
0.009143771849573705,2.059
0.009081062338725385,2.06
0.009017663404479124,2.061
0.008953519682078767,2.062
0.0088885729577983,2.063
0.008822764613654561,2.064
0.008756038192968964,2.065
0.008688340719922229,2.066
0.00861962157701463,2.067
0.008549829489113044,2.068
0.008478911487429531,2.069
0.008406817334757517,2.07
0.00833350756584234,2.071
0.008258960392634525,2.072
0.008183174261634412,2.073
0.008106164868731565,2.074
0.008027957966276087,2.075
0.007948583028761688,2.076
0.007868072918096918,2.077
0.007786468679381337,2.078
0.007703824086706993,2.079
0.007620206501298863,2.08
0.007535694121507025,2.081
0.007450371009760724,2.082
0.007364321762725065,2.083
0.007277628363643942,2.084
0.007190370693143775,2.085
0.007102629324697813,2.086
0.0070144881751775506,2.087
0.006926035848908185,2.088
0.006837365593195629,2.089
0.00674857412739315,2.09
0.006659759785569539,2.091
0.006571020487062805,2.092
0.006482451948947042,2.093
0.00639414630251664,2.094
0.0063061910827954615,2.095
0.006218668685858395,2.096
0.006131656582717107,2.097
0.006045228286930932,2.098
0.005959454556333398,2.099
0.005874404245284439,2.1
0.005790144547583972,2.101
0.00570674071065186,2.102
0.0056242555431848095,2.103
0.005542749095548776,2.104
0.00546227872217907,2.105
0.005382899453112375,2.106
0.005304664383144469,2.107
0.005227624746179054,2.108
0.005151829482934973,2.109
0.005077324419885063,2.11
0.005004151562182772,2.111
0.004932349010571941,2.112
0.004861951451597667,2.113
0.00479299074977748,2.114
0.004725496341678189,2.115
0.004659495428909923,2.116
0.004595013039366282,2.117
0.004532071974573492,2.118
0.004470692592952964,2.119
0.00441089238629256,2.12
0.0043526855505803975,2.121
0.004296083037795991,2.122
0.004241093317320371,2.123
0.004187723467665351,2.124
0.004135980073046298,2.125
0.004085869662828654,2.126
0.0040373986228122915,2.127
0.003990572606719922,2.128
0.003945395604074293,2.129
0.003901869056487407,2.13
0.0038599915505578087,2.131
0.0038197592073936824,2.132
0.003781166313603432,2.133
0.003744205776870515,2.134
0.0037088693850719453,2.135
0.003675148018115536,2.136
0.0036430319287752725,2.137
0.003612511126047412,2.138
0.0035835758043634624,2.139
0.003556216695148379,2.14
0.0035304251892210566,2.141
0.003506193094575893,2.142
0.003483511950780902,2.143
0.003462372050701175,2.144
0.00344276178185618,2.145
0.003424667961870648,2.146
0.0034080771017741818,2.147
0.003392976870729039,2.148
0.003379357095332998,2.149
0.003367209954206713,2.15
0.003356529294775897,2.151
0.00334730925455152,2.152
0.0033395427262678705,2.153
0.003333220484792907,2.154
0.0033283312912394014,2.155
0.0033248623673858575,2.156
0.0033227995786712524,2.157
0.003322127224870082,2.158
0.0033228275834544948,2.159
0.0033248803989567293,2.16
0.003328262588432762,2.161
0.003332948273548595,2.162
0.003338908900772041,2.163
0.00334611321791772,2.164
0.0033545272968504756,2.165
0.003364114966481153,2.166
0.0033748386555314727,2.167
0.003386660257051812,2.168
0.003399541598128972,2.169
0.0034134442585019137,2.17
0.003428328811901014,2.171
0.0034441541448759043,2.172
0.0034608776654910427,2.173
0.0034784564116429498,2.174
0.003496848271654661,2.175
0.00351601263035186,2.176
0.0035359102437869648,2.177
0.003556502456805763,2.178
0.003577750016348525,2.179
0.0035996118603441097,2.18
0.0036220444105726324,2.181
0.0036450016945444863,2.182
0.00366843606634897,2.183
0.0036922990672274805,2.184
0.0037165421347160363,2.185
0.0037411169885212202,2.186
0.0037659755650134687,2.187
0.003791069458993118,2.188
0.0038163489796292148,2.189
0.00384176223901273,2.19
0.003867254940120125,2.191
0.0038927711126889933,2.192
0.003918254286300338,2.193
0.003943648445182531,2.194
0.003968898444223497,2.195
0.003993949791844034,2.196
0.004018747812718986,2.197
0.004043236452644597,2.198
0.004067357477976736,2.199
0.004091050885539335,2.2
0.004114256530022632,2.201
0.0041369162790129786,2.202
0.004158976080394586,2.203
0.00418038756532745,2.204
0.004201108841947293,2.205
0.004221104166477459,2.206
0.004240342333475496,2.207
0.004258794118543895,2.208
0.004276430143788848,2.209
0.004293220972930056,2.21
0.004309139771880766,2.211
0.004324166092826165,2.212
0.0043382892513264175,2.213
0.004351510443421039,2.214
0.00436384304000366,2.215
0.004375310725544943,2.216
0.004385943703015827,2.217
0.004395774536917612,2.218
0.0044048365115149065,2.219
0.004413165736315715,2.22
0.004420804793252485,2.221
0.004427805160157553,2.222
0.004434227458550542,2.223
0.004440139695819048,2.224
0.004445614045210152,2.225
0.004450723298190606,2.226
0.004455538774618525,2.227
0.0044601305847473014,2.228
0.004464569083492528,2.229
0.0044689259473741335,2.23
0.004473274400705608,2.231
0.004477688723503604,2.232
0.004482243216607787,2.233
0.0044870108271718055,2.234
0.004492061828565424,2.235
0.0044974631654154445,2.236
0.004503278677594098,2.237
0.00450956964568864,2.238
0.004516395015148457,2.239
0.0045238111224040365,2.24
0.004531871100816109,2.241
0.004540624343404914,2.242
0.00455011625606345,2.243
0.0045603882022656386,2.244
0.0045714776564536085,2.245
0.004583418763973489,2.246
0.004596243183454523,2.247
0.004609980822629212,2.248
0.004624660191651243,2.249
0.004640308261618594,2.25
0.004656949839128912,2.251
0.004674606700260474,2.252
0.004693297022704894,2.253
0.0047130355015742075,2.254
0.004733833925271605,2.255
0.0047557017489258495,2.256
0.004778646455669279,2.257
0.004802673681292498,2.258
0.0048277870934954475,2.259
0.0048539880223790275,2.26
0.004881274871396017,2.261
0.004909642438612467,2.262
0.004939081434239813,2.263
0.0049695784100662445,2.264
0.005001115937573794,2.265
0.0050336726651402566,2.266
0.005067223095969198,2.267
0.005101737234524251,2.268
0.0051371803779812365,2.269
0.005173513272433822,2.27
0.0052106926773144765,2.271
0.005248672168964493,2.272
0.0052874028814772125,2.273
0.005326833891708554,2.274
0.005366912074841985,2.275
0.005407581438542016,2.276
0.005448782200553799,2.277
0.00549045010434548,2.278
0.005532516317644353,2.279
0.005574907852853252,2.28
0.005617548388120506,2.281
0.005660359540558654,2.282
0.005703262534386388,2.283
0.005746179886974096,2.284
0.005789036539799795,2.285
0.005831759920839501,2.286
0.005874278679194087,2.287
0.005916520542996242,2.288
0.005958410971991085,2.289
0.005999874290544519,2.29
0.006040837012680307,2.291
0.006081231577623792,2.292
0.006120999000283255,2.293
0.006160089671954759,2.294
0.006198462065407808,2.295
0.006236079602209253,2.296
0.006272906688516929,2.297
0.006308905888959856,2.298
0.006344037907762654,2.299
0.0063782639883142875,2.3
0.006411549048827625,2.301
0.006443864472733518,2.302
0.006475190215602978,2.303
0.0065055159219006165,2.304
0.006534840614359834,2.305
0.006563170607003301,2.306
0.006590515791247823,2.307
0.006616885743764063,2.308
0.006642288181677788,2.309
0.006666730609531853,2.31
0.00669022299005657,2.311
0.006712779061900499,2.312
0.006734415790530154,2.313
0.006755151562122599,2.314
0.006775004026419835,2.315
0.006793988461767429,2.316
0.006812117190210167,2.317
0.006829400071988499,2.318
0.006845845675007229,2.319
0.0068614624947736114,2.32
0.006876259610503406,2.321
0.006890246326550053,2.322
0.006903430694780769,2.323
0.006915817739773247,2.324
0.006927409192194058,2.325
0.006938205635675465,2.326
0.00694820976125903,2.327
0.006957428801831481,2.328
0.0069658751243037035,2.329
0.006973564687025933,2.33
0.006980513959929405,2.331
0.0069867373678204215,2.332
0.006992247295956324,2.333
0.006997056168181531,2.334
0.007001178256987911,2.335
0.007004629687296297,2.336
0.0070074266150756265,2.337
0.007009582851328863,2.338
0.007011109165337238,2.339
0.007012015298320415,2.34
0.007012313071693323,2.341
0.007012018355504036,2.342
0.0070111509479202005,2.343
0.007009732403540904,2.344
0.007007782873522228,2.345
0.0070053193342402755,2.346
0.007002356711217285,2.347
0.006998910498976525,2.348
0.006994998557356473,2.349
0.006990641150458717,2.35
0.006985859359532739,2.351
0.006980672579361933,2.352
0.0069750965000293305,2.353
0.006969142806751341,2.354
0.00696282027522803,2.355
0.006956135783821964,2.356
0.006949094208670972,2.357
0.0069416972830900255,2.358
0.006933942541290629,2.359
0.006925823663622265,2.36
0.006917332276161841,2.361
0.0069084599736525965,2.362
0.006899199396964705,2.363
0.0068895438550209765,2.364
0.006879485626734705,2.365
0.006869014157602641,2.366
0.006858116085637053,2.367
0.00684677771436719,2.368
0.006834988416213139,2.369
0.006822743067996207,2.37
0.006810042520995327,2.371
0.006796891824256348,2.372
0.006783296927151263,2.373
0.0067692622027363675,2.374
0.006754791090885086,2.375
0.006739889424016064,2.376
0.006724568957721776,2.377
0.006708849235830817,2.378
0.006692757164234438,2.379
0.0066763243116225585,2.38
0.006659583002296025,2.381
0.0066425638571897365,2.382
0.006625296714168333,2.383
0.006607813538246547,2.384
0.006590150563276004,2.385
0.006572348485275594,2.386
0.006554451052638847,2.387
0.006536502905906771,2.388
0.006518547482234414,2.389
0.0065006254149393245,2.39
0.0064827733746940135,2.391
0.006465023204940968,2.392
0.006447401698911032,2.393
0.006429931524234575,2.394
0.006412633083270939,2.395
0.006395526516087486,2.396
0.0063786331204043764,2.397
0.006361975677150478,2.398
0.006345577377048817,2.399
0.006329459787088683,2.4
0.00631364156626294,2.401
0.006298139363350484,2.402
0.006282970013853956,2.403
0.006268151928943426,2.404
0.0062537045099404455,2.405
0.00623964608181879,2.406
0.006225992408464322,2.407
0.006212757512325536,2.408
0.006199956056419841,2.409
0.006187605309782266,2.41
0.006175725646364828,2.411
0.006164339538399057,2.412
0.0061534694188376945,2.413
0.006143135214570513,2.414
0.0061333527445153815,2.415
0.006124133486171223,2.416
0.0061154848107419805,2.417
0.006107409749916216,2.418
0.006099906570758636,2.419
0.006092968756835127,2.42
0.006086585183651289,2.421
0.006080740201706242,2.422
0.0060754143244972515,2.423
0.006070586263531115,2.424
0.006066235842551634,2.425
0.00606234667732468,2.426
0.006058907800411379,2.427
0.006055913840302514,2.428
0.0060533637541456365,2.429
0.006051258453607397,2.43
0.006049597996780246,2.431
0.006048379485623234,2.432
0.0060475967229032335,2.433
0.006047241487412007,2.434
0.006047305287894063,2.435
0.0060477807400226916,2.436
0.006048662365914146,2.437
0.006049946841802679,2.438
0.00605163274178985,2.439
0.006053719843150658,2.44
0.006056208059275874,2.441
0.006059096053184607,2.442
0.006062379683506376,2.443
0.006066050801538163,2.444
0.006070097092440386,2.445
0.006074502993274871,2.446
0.00607925090039673,2.447
0.006084321898497798,2.448
0.006089695712692853,2.449
0.006095349856334035,2.45
0.006101258347510463,2.451
0.0061073910301123234,2.452
0.006113714302519307,2.453
0.006120192776288914,2.454
0.006126790801451277,2.455
0.006133473239544974,2.456
0.006140205274131644,2.457
0.0061469512310563445,2.458
0.0061536728572094655,2.459
0.006160328339046439,2.46
0.006166873229151727,2.461
0.006173262980945852,2.462
0.006179455828529223,2.463
0.006185414960294726,2.464
0.006191109317820099,2.465
0.0061965126744941085,2.466
0.006201601092778136,2.467
0.006206349727912686,2.468
0.006210731031402936,2.469
0.006214715690158735,2.47
0.00621827523287142,2.471
0.006221384445541241,2.472
0.0062240227963921615,2.473
0.0062261747773005435,2.474
0.00622782918229649,2.475
0.00622897742130972,2.476
0.0062296110992309355,2.477
0.00622971946672973,2.478
0.006229287857018663,2.479
0.006228297830082341,2.48
0.006226728513164542,2.481
0.0062245582384789794,2.482
0.006221766137794918,2.483
0.006218333632917016,2.484
0.006214245625726537,2.485
0.006209491073117086,2.486
0.006204062678519599,2.487
0.006197955630991704,2.488
0.006191165582625773,2.489
0.006183686312999352,2.49
0.006175507809400581,2.491
0.006166615480127471,2.492
0.006156990510133774,2.493
0.006146610694555558,2.494
0.006135451340305156,2.495
0.0061234863894495456,2.496
0.006110690000394095,2.497
0.006097038578766612,2.498
0.006082512977961261,2.499
0.0060671004129650785,2.5
0.006050795610044838,2.501
0.00603360081860644,2.502
0.00601552446809864,2.503
0.0059965784157199565,2.504
0.005976774582621444,2.505
0.005956123379205231,2.506
0.0059346358067288215,2.507
0.00591232802640337,2.508
0.0058892257243067046,2.509
0.005865366609786133,2.51
0.005840800385044792,2.511
0.005815586131932403,2.512
0.005789787854756138,2.513
0.005763470118393656,2.514
0.00573669627597282,2.515
0.0057095297551144515,2.516
0.00568203613170974,2.517
0.005654283842898955,2.518
0.005626343205697849,2.519
0.005598284330805564,2.52
0.005570174830436533,2.521
0.005542078377133785,2.522
0.005514054457716995,2.523
0.005486158523525021,2.524
0.005458441814184193,2.525
0.005430951184272727,2.526
0.005403729511841646,2.527
0.005376816540199771,2.528
0.005350249567757552,2.529
0.005324063622715056,2.53
0.005298291056361681,2.531
0.005272960777491625,2.532
0.005248097766439105,2.533
0.005223723455683431,2.534
0.005199856824331935,2.535
0.0051765155781217246,2.536
0.005153716978739866,2.537
0.00513147817622792,2.538
0.005109816036116188,2.539
0.005088746538186399,2.54
0.005068283875533067,2.541
0.005048439412870845,2.542
0.005029220794087691,2.543
0.005010631640640829,2.544
0.0049926720168569794,2.545
0.004975339325772823,2.546
0.004958629231128242,2.547
0.004942536454057565,2.548
0.004927055394364224,2.549
0.004912180511331417,2.55
0.004897906392048292,2.551
0.004884227442658423,2.552
0.004871137172515123,2.553
0.004858627113236809,2.554
0.004846685662145023,2.555
0.004835297457079445,2.556
0.004824443552117898,2.557
0.004814101836062687,2.558
0.004804247030435617,2.559
0.004794850331405899,2.56
0.004785879387838008,2.561
0.004777299043940568,2.562
0.004769072399899657,2.563
0.004761161403503394,2.564
0.004753526557082685,2.565
0.004746126163220638,2.566
0.0047389165002160475,2.567
0.004731853858364082,2.568
0.0047248975696379,2.569
0.004718012393780003,2.57
0.004711169236020518,2.571
0.0047043439163857535,2.572
0.004697514465765557,2.573
0.004690658424698633,2.574
0.0046837518986767085,2.575
0.004676770571001438,2.576
0.004669691119534222,2.577
0.004662491711731366,2.578
0.004655151431014604,2.579
0.004647649015394848,2.58
0.004639961353338109,2.581
0.004632062248266728,2.582
0.004623921921027072,2.583
0.004615507262210108,2.584
0.004606782335938728,2.585
0.004597708687935495,2.586
0.004588245328207328,2.587
0.004578348386137801,2.588
0.004567970650878353,2.589
0.004557061628473082,2.59
0.004545568639539004,2.591
0.004533438735906941,2.592
0.004520620789179304,2.593
0.004507067167069911,2.594
0.004492734467166411,2.595
0.004477582834175626,2.596
0.004461574012443821,2.597
0.004444669782215626,2.598
0.0044268329476183635,2.599
0.004408030949162218,2.6
0.00438823995327195,2.601
0.004367447411124328,2.602
0.004345652295425752,2.603
0.004322863019930516,2.604
0.004299093624810694,2.605
0.0042743598751428065,2.606
0.00424867779499396,2.607
0.004222065573104029,2.608
0.00419454692184735,2.609
0.004166153635790472,2.61
0.004136926600083395,2.611
0.004106915287706234,2.612
0.004076175956050128,2.613
0.004044768910107649,2.614
0.004012755483580651,2.615
0.003980195806404449,2.616
0.003947148182533191,2.617
0.0039136697127614235,2.618
0.0038798171185342968,2.619
0.0038456472702118015,2.62
0.0038112175494025686,2.621
0.0037765862017450475,2.622
0.003741812624679039,2.623
0.003706957399338819,2.624
0.0036720818911080712,2.625
0.0036372473815042203,2.626
0.003602513917130442,2.627
0.0035679393420375237,2.628
0.0035335789972791454,2.629
0.0034994860492341836,2.63
0.003465711918373882,2.631
0.003432306413706055,2.632
0.0033993175528126197,2.633
0.0033667912125028795,2.634
0.003334770771258978,2.635
0.003303296868623835,2.636
0.0032724073364057376,2.637
0.0032421372859786223,2.638
0.0032125192876811142,2.639
0.003183583553818407,2.64
0.0031553580304096965,2.641
0.0031278683183389223,2.642
0.003101137470686633,2.643
0.003075185932243989,2.644
0.003050031821762845,2.645
0.0030256913785655245,2.646
0.0030021792526863035,2.647
0.002979508497064885,2.648
0.0029576902875996423,2.649
0.002936733527500006,2.65
0.0029166446001208306,2.651
0.0028974274004983204,2.652
0.0028790834912827785,2.653
0.002861612198590375,2.654
0.0028450106397907337,2.655
0.002829273751139998,2.656
0.002814394346050189,2.657
0.002800363186030924,2.658
0.0027871690287191416,2.659
0.0027747986387950704,2.66
0.002763236783025308,2.661
0.002752466249859945,2.662
0.00274246792588786,2.663
0.002733220932234134,2.664
0.002724702781015867,2.665
0.002716889462788608,2.666
0.0027097553409953256,2.667
0.002703272884153195,2.668
0.0026974126468548177,2.669
0.0026921439035985893,2.67
0.002687435769506594,2.671
0.002683258318952221,2.672
0.002679583353947406,2.673
0.0026763846438556485,2.674
0.002673637579496619,2.675
0.0026713183067999372,2.676
