VaMe,time
0.0615,0.001
0.0697,0.002
0.0712,0.003
0.0855,0.004
0.0915,0.005
0.0667,0.006
0.0202,0.007
-0.0053,0.008
0.0157,0.009
0.0382,0.01
0.0352,0.011
-0.0023,0.012
-0.0615,0.013
-0.0765,0.014
-0.0398,0.015
-0.0315,0.016
-0.0465,0.017
-0.0256,0.018
-0.003,0.019
0.0082,0.02
0.0127,0.021
-0.006,0.022
-0.0143,0.023
-0.0203,0.024
-0.0015,0.025
0.0465,0.026
0.105,0.027
0.1447,0.028
0.1222,0.029
0.0255,0.03
-0.1373,0.031
-0.2288,0.032
-0.1763,0.033
-0.0915,0.034
-0.0375,0.035
-0.0263,0.036
0.0,0.037
0.06,0.038
0.0765,0.039
0.06,0.04
0.0195,0.041
-0.0346,0.042
-0.0181,0.043
-0.0068,0.044
-0.0533,0.045
-0.0863,0.046
-0.048,0.047
0.0157,0.048
0.027,0.049
0.0165,0.05
-0.0165,0.051
-0.0443,0.052
-0.0511,0.053
-0.0915,0.054
-0.129,0.055
-0.1163,0.056
-0.0548,0.057
-0.0038,0.058
0.0112,0.059
0.0105,0.06
0.0045,0.061
-0.006,0.062
-0.0218,0.063
-0.024,0.064
-0.0203,0.065
-0.0293,0.066
-0.0383,0.067
-0.0046,0.068
0.0247,0.069
0.0262,0.07
0.0427,0.071
0.0495,0.072
0.0427,0.073
0.0232,0.074
-0.0188,0.075
-0.0293,0.076
0.0112,0.077
0.0367,0.078
0.039,0.079
0.054,0.08
0.06,0.081
0.075,0.082
0.078,0.083
0.0735,0.084
0.0825,0.085
0.0952,0.086
0.1027,0.087
0.0937,0.088
0.0562,0.089
-0.0165,0.09
-0.0578,0.091
-0.0511,0.092
-0.0503,0.093
-0.0218,0.094
0.0255,0.095
0.0465,0.096
0.0742,0.097
0.0862,0.098
0.0705,0.099
0.0352,0.1
-0.0053,0.101
-0.015,0.102
0.0105,0.103
0.054,0.104
0.0615,0.105
0.0082,0.106
-0.0436,0.107
-0.0503,0.108
-0.0368,0.109
-0.0218,0.11
-0.03,0.111
-0.039,0.112
-0.0285,0.113
-0.0143,0.114
-0.015,0.115
-0.0233,0.116
-0.0105,0.117
0.009,0.118
0.024,0.119
0.0097,0.12
-0.0098,0.121
-0.0008,0.122
0.0052,0.123
-0.0195,0.124
-0.039,0.125
0.0187,0.126
0.0862,0.127
0.057,0.128
-0.027,0.129
-0.0788,0.13
-0.093,0.131
-0.0975,0.132
-0.0856,0.133
-0.0706,0.134
-0.078,0.135
-0.0825,0.136
-0.063,0.137
-0.0285,0.138
0.0052,0.139
0.021,0.14
0.018,0.141
-0.0015,0.142
-0.0615,0.143
-0.1028,0.144
-0.0706,0.145
-0.0368,0.146
-0.0233,0.147
-0.0458,0.148
-0.1006,0.149
-0.078,0.15
-0.0428,0.151
-0.0511,0.152
-0.0256,0.153
-0.006,0.154
-0.0008,0.155
-0.0008,0.156
-0.0098,0.157
-0.0218,0.158
-0.0165,0.159
0.027,0.16
0.0577,0.161
0.0652,0.162
0.078,0.163
0.0825,0.164
0.0802,0.165
0.0495,0.166
-0.0143,0.167
-0.0706,0.168
-0.0638,0.169
-0.0038,0.17
0.0352,0.171
0.0592,0.172
0.0817,0.173
0.096,0.174
0.099,0.175
0.09,0.176
0.0817,0.177
0.075,0.178
0.069,0.179
0.048,0.18
0.0255,0.181
0.006,0.182
-0.0075,0.183
-0.0038,0.184
0.0045,0.185
0.0217,0.186
0.0367,0.187
0.0457,0.188
0.039,0.189
0.0367,0.19
0.0757,0.191
0.1177,0.192
0.1335,0.193
0.1342,0.194
0.1252,0.195
0.1005,0.196
0.0615,0.197
0.018,0.198
-0.0225,0.199
-0.06,0.2
-0.0915,0.201
-0.0706,0.202
-0.012,0.203
0.003,0.204
0.0127,0.205
0.0375,0.206
0.0405,0.207
0.0285,0.208
0.0022,0.209
-0.0346,0.21
-0.0675,0.211
-0.0706,0.212
-0.0458,0.213
-0.0135,0.214
0.0255,0.215
0.0367,0.216
0.0352,0.217
0.0292,0.218
0.012,0.219
-0.0143,0.22
-0.0518,0.221
-0.0765,0.222
-0.1103,0.223
-0.1463,0.224
-0.1215,0.225
-0.0533,0.226
0.0015,0.227
0.0427,0.228
0.0645,0.229
0.0637,0.23
0.0555,0.231
0.0232,0.232
-0.0256,0.233
-0.054,0.234
-0.081,0.235
-0.1373,0.236
-0.1756,0.237
-0.1875,0.238
-0.1613,0.239
-0.1215,0.24
-0.1133,0.241
-0.108,0.242
-0.0953,0.243
-0.0765,0.244
-0.0511,0.245
-0.0203,0.246
-0.0038,0.247
0.0105,0.248
0.018,0.249
0.018,0.25
0.0255,0.251
0.0345,0.252
0.0255,0.253
-0.027,0.254
-0.0893,0.255
-0.0915,0.256
-0.0473,0.257
-0.015,0.258
-0.0015,0.259
-0.0015,0.26
-0.0083,0.261
-0.0165,0.262
-0.0165,0.263
-0.012,0.264
-0.021,0.265
-0.0361,0.266
-0.0368,0.267
-0.0248,0.268
-0.0083,0.269
0.0037,0.27
0.018,0.271
0.036,0.272
0.054,0.273
0.0705,0.274
0.0892,0.275
0.1065,0.276
0.1102,0.277
0.09,0.278
0.0465,0.279
-0.012,0.28
-0.048,0.281
-0.012,0.282
0.042,0.283
0.0615,0.284
0.078,0.285
0.0877,0.286
0.0787,0.287
0.0645,0.288
0.0577,0.289
0.054,0.29
0.0397,0.291
0.0277,0.292
0.0262,0.293
0.021,0.294
-0.003,0.295
-0.0015,0.296
0.0202,0.297
0.0292,0.298
0.0465,0.299
0.0667,0.3
0.0817,0.301
0.0907,0.302
0.0877,0.303
0.0975,0.304
0.1027,0.305
0.0705,0.306
0.0307,0.307
0.018,0.308
0.0322,0.309
0.0427,0.31
0.0547,0.311
0.0652,0.312
0.0637,0.313
0.063,0.314
0.0487,0.315
0.042,0.316
0.039,0.317
0.0292,0.318
0.0015,0.319
-0.0443,0.32
-0.0795,0.321
-0.108,0.322
-0.111,0.323
-0.0878,0.324
-0.084,0.325
-0.0945,0.326
-0.1043,0.327
-0.0818,0.328
-0.0368,0.329
-0.0083,0.33
0.0105,0.331
0.0195,0.332
0.0315,0.333
0.0405,0.334
0.0465,0.335
0.0412,0.336
0.0015,0.337
-0.0788,0.338
-0.162,0.339
-0.1455,0.34
-0.0795,0.341
-0.06,0.342
-0.0346,0.343
0.0067,0.344
0.0262,0.345
0.0315,0.346
0.0255,0.347
0.0195,0.348
0.024,0.349
0.042,0.35
0.045,0.351
0.0315,0.352
-0.0068,0.353
-0.0383,0.354
-0.0203,0.355
-0.0353,0.356
-0.0683,0.357
-0.0675,0.358
-0.0533,0.359
-0.0443,0.36
-0.0706,0.361
-0.114,0.362
-0.1478,0.363
-0.147,0.364
-0.1478,0.365
-0.132,0.366
-0.093,0.367
-0.0863,0.368
-0.09,0.369
-0.0923,0.37
-0.0953,0.371
-0.1133,0.372
-0.1238,0.373
-0.0953,0.374
-0.063,0.375
-0.0353,0.376
-0.0105,0.377
0.0097,0.378
0.0315,0.379
0.0427,0.38
0.0532,0.381
0.0667,0.382
0.0675,0.383
0.0615,0.384
0.054,0.385
0.06,0.386
0.066,0.387
0.0615,0.388
0.069,0.389
0.075,0.39
0.06,0.391
0.045,0.392
0.0592,0.393
0.078,0.394
0.0847,0.395
0.0862,0.396
0.0855,0.397
0.084,0.398
0.081,0.399
0.0735,0.4
0.0637,0.401
0.0577,0.402
0.0607,0.403
0.06,0.404
0.0532,0.405
0.051,0.406
0.0495,0.407
0.0405,0.408
0.0345,0.409
0.0337,0.41
0.0367,0.411
0.0457,0.412
0.0487,0.413
0.0465,0.414
0.0525,0.415
0.0592,0.416
0.0675,0.417
0.0727,0.418
0.0577,0.419
0.0097,0.42
-0.0293,0.421
-0.0143,0.422
0.0232,0.423
0.0367,0.424
0.0442,0.425
0.0367,0.426
0.0112,0.427
-0.006,0.428
-0.0098,0.429
0.0007,0.43
0.0082,0.431
0.012,0.432
0.003,0.433
-0.015,0.434
-0.0278,0.435
-0.0293,0.436
-0.0053,0.437
0.012,0.438
0.0262,0.439
0.0247,0.44
-0.0015,0.441
0.0037,0.442
0.0247,0.443
0.045,0.444
0.066,0.445
0.0727,0.446
0.0592,0.447
0.0022,0.448
-0.0863,0.449
-0.1665,0.45
-0.1973,0.451
-0.1508,0.452
-0.1193,0.453
-0.1163,0.454
-0.0878,0.455
-0.0638,0.456
-0.03,0.457
-0.0338,0.458
-0.042,0.459
-0.0346,0.46
-0.0383,0.461
-0.0458,0.462
-0.0691,0.463
-0.093,0.464
-0.1208,0.465
-0.129,0.466
-0.093,0.467
-0.039,0.468
-0.03,0.469
-0.0675,0.47
-0.1028,0.471
-0.099,0.472
-0.0735,0.473
-0.045,0.474
-0.021,0.475
-0.0143,0.476
-0.0015,0.477
0.0,0.478
-0.0038,0.479
-0.0046,0.48
0.0045,0.481
0.0127,0.482
0.0105,0.483
0.0105,0.484
0.0082,0.485
0.0105,0.486
0.018,0.487
0.0277,0.488
0.033,0.489
0.0375,0.49
0.0412,0.491
0.0427,0.492
0.0442,0.493
0.0442,0.494
0.0382,0.495
0.0277,0.496
0.0157,0.497
0.0082,0.498
0.0067,0.499
0.0015,0.5
-0.006,0.501
-0.0083,0.502
-0.006,0.503
-0.0038,0.504
0.0007,0.505
0.0105,0.506
0.0187,0.507
0.0277,0.508
0.0307,0.509
0.0315,0.51
0.0315,0.511
0.03,0.512
0.0292,0.513
0.0315,0.514
0.042,0.515
0.0525,0.516
0.054,0.517
0.057,0.518
0.0652,0.519
0.0832,0.52
0.1117,0.521
0.129,0.522
0.1365,0.523
0.132,0.524
0.102,0.525
0.063,0.526
0.0112,0.527
-0.0293,0.528
-0.03,0.529
-0.0158,0.53
0.0,0.531
0.018,0.532
0.039,0.533
0.057,0.534
0.0652,0.535
0.0637,0.536
0.0487,0.537
0.0277,0.538
-0.0023,0.539
-0.0218,0.54
-0.0181,0.541
-0.033,0.542
-0.0555,0.543
-0.0788,0.544
-0.1065,0.545
-0.1163,0.546
-0.1013,0.547
-0.0878,0.548
-0.0848,0.549
-0.0638,0.55
-0.0555,0.551
-0.0495,0.552
-0.0293,0.553
-0.0188,0.554
-0.0113,0.555
-0.0083,0.556
-0.0053,0.557
-0.0053,0.558
-0.0008,0.559
0.0015,0.56
0.0007,0.561
-0.003,0.562
-0.0105,0.563
-0.0038,0.564
0.0097,0.565
0.0105,0.566
0.003,0.567
-0.0075,0.568
-0.03,0.569
-0.0465,0.57
-0.0518,0.571
-0.0443,0.572
-0.0218,0.573
-0.0135,0.574
-0.027,0.575
-0.0465,0.576
-0.06,0.577
-0.054,0.578
-0.0383,0.579
-0.0105,0.58
0.012,0.581
0.0232,0.582
0.033,0.583
0.0352,0.584
0.0367,0.585
0.0292,0.586
0.0195,0.587
0.0157,0.588
0.0067,0.589
-0.0068,0.59
-0.0195,0.591
-0.0263,0.592
-0.0323,0.593
-0.0383,0.594
-0.042,0.595
-0.042,0.596
-0.042,0.597
-0.0383,0.598
-0.0248,0.599
-0.0113,0.6
-0.0068,0.601
-0.0046,0.602
-0.0053,0.603
-0.0098,0.604
-0.0098,0.605
-0.0128,0.606
-0.0046,0.607
0.0157,0.608
0.0255,0.609
0.0255,0.61
0.0322,0.611
0.0465,0.612
0.0615,0.613
0.0697,0.614
0.0712,0.615
0.0705,0.616
0.0675,0.617
0.0652,0.618
0.063,0.619
0.0577,0.62
0.0502,0.621
0.0382,0.622
0.0322,0.623
0.0315,0.624
0.0292,0.625
0.0255,0.626
0.0255,0.627
0.018,0.628
0.003,0.629
-0.0158,0.63
-0.0443,0.631
-0.0638,0.632
-0.063,0.633
-0.0563,0.634
-0.0495,0.635
-0.0458,0.636
-0.0353,0.637
-0.0181,0.638
0.0105,0.639
0.0367,0.64
0.0495,0.641
0.0517,0.642
0.0465,0.643
0.048,0.644
0.0412,0.645
0.009,0.646
-0.0195,0.647
-0.006,0.648
0.0202,0.649
0.0285,0.65
0.0337,0.651
0.0202,0.652
0.0082,0.653
-0.0173,0.654
-0.0698,0.655
-0.1118,0.656
-0.1073,0.657
-0.0683,0.658
-0.0375,0.659
-0.015,0.66
-0.0046,0.661
0.012,0.662
0.0202,0.663
0.0232,0.664
0.0277,0.665
0.0262,0.666
0.0292,0.667
0.027,0.668
0.021,0.669
0.0127,0.67
0.0037,0.671
-0.006,0.672
-0.0203,0.673
-0.0323,0.674
-0.039,0.675
-0.039,0.676
-0.0315,0.677
-0.0203,0.678
-0.0135,0.679
-0.0068,0.68
-0.0015,0.681
0.003,0.682
0.0045,0.683
0.0052,0.684
0.009,0.685
0.0112,0.686
0.015,0.687
0.0195,0.688
0.0232,0.689
0.021,0.69
0.0172,0.691
0.012,0.692
0.0045,0.693
-0.003,0.694
-0.0083,0.695
-0.0046,0.696
-0.006,0.697
-0.015,0.698
-0.0218,0.699
-0.0353,0.7
-0.0353,0.701
-0.0278,0.702
-0.0308,0.703
-0.0308,0.704
-0.027,0.705
-0.021,0.706
-0.0143,0.707
-0.0075,0.708
-0.0023,0.709
0.0037,0.71
0.006,0.711
0.0052,0.712
0.0022,0.713
0.0,0.714
-0.0015,0.715
-0.0023,0.716
-0.0015,0.717
0.0045,0.718
0.0105,0.719
0.0105,0.72
0.003,0.721
-0.0113,0.722
-0.0128,0.723
-0.0046,0.724
0.0,0.725
0.003,0.726
0.0045,0.727
0.0045,0.728
0.0015,0.729
-0.0008,0.73
-0.0008,0.731
0.0007,0.732
0.003,0.733
0.0067,0.734
0.0135,0.735
0.0217,0.736
0.0292,0.737
0.0307,0.738
0.033,0.739
0.0405,0.74
0.0382,0.741
0.0322,0.742
0.0292,0.743
0.0352,0.744
0.033,0.745
0.0232,0.746
0.0142,0.747
0.0112,0.748
0.0105,0.749
-0.0053,0.75
-0.0256,0.751
-0.0315,0.752
-0.006,0.753
0.0097,0.754
0.012,0.755
0.015,0.756
0.0127,0.757
0.0172,0.758
0.0225,0.759
0.027,0.76
0.024,0.761
0.018,0.762
0.018,0.763
0.0187,0.764
0.018,0.765
0.015,0.766
0.0075,0.767
-0.003,0.768
-0.0181,0.769
-0.0368,0.77
-0.0458,0.771
-0.042,0.772
-0.0346,0.773
-0.0203,0.774
-0.0128,0.775
-0.0158,0.776
-0.021,0.777
-0.0256,0.778
-0.0256,0.779
-0.0195,0.78
-0.0046,0.781
0.0045,0.782
0.012,0.783
0.0217,0.784
0.021,0.785
0.018,0.786
0.015,0.787
0.0082,0.788
0.0037,0.789
0.0007,0.79
-0.0046,0.791
-0.0091,0.792
-0.0113,0.793
-0.0135,0.794
-0.0165,0.795
-0.0195,0.796
-0.0143,0.797
-0.0113,0.798
-0.0113,0.799
-0.0083,0.8
-0.0053,0.801
0.0007,0.802
0.0045,0.803
0.0105,0.804
0.0187,0.805
0.021,0.806
0.0157,0.807
-0.006,0.808
-0.0368,0.809
-0.0698,0.81
-0.0968,0.811
-0.1125,0.812
-0.1178,0.813
-0.1095,0.814
-0.0953,0.815
-0.0833,0.816
-0.0653,0.817
-0.0473,0.818
-0.0405,0.819
-0.0315,0.82
-0.033,0.821
-0.027,0.822
-0.0105,0.823
0.0007,0.824
0.0097,0.825
0.0127,0.826
0.0165,0.827
0.021,0.828
0.0217,0.829
0.018,0.83
0.0157,0.831
0.0142,0.832
0.003,0.833
-0.0046,0.834
0.0045,0.835
0.0195,0.836
0.0285,0.837
0.0322,0.838
0.0315,0.839
0.0337,0.84
0.039,0.841
0.045,0.842
0.0487,0.843
0.045,0.844
0.0427,0.845
0.0405,0.846
0.0345,0.847
0.0277,0.848
0.0337,0.849
0.0435,0.85
0.048,0.851
0.0525,0.852
0.0555,0.853
0.048,0.854
0.0337,0.855
0.0157,0.856
-0.0008,0.857
-0.0188,0.858
-0.0293,0.859
-0.0248,0.86
-0.012,0.861
0.0037,0.862
0.0157,0.863
0.0232,0.864
0.0232,0.865
0.0217,0.866
0.021,0.867
0.0195,0.868
0.012,0.869
0.0082,0.87
0.018,0.871
0.0262,0.872
0.03,0.873
0.033,0.874
0.0352,0.875
0.0307,0.876
0.024,0.877
0.0157,0.878
0.0052,0.879
-0.003,0.88
-0.0143,0.881
-0.0248,0.882
-0.024,0.883
-0.0225,0.884
-0.0285,0.885
-0.042,0.886
-0.0585,0.887
-0.066,0.888
-0.0578,0.889
-0.0375,0.89
-0.024,0.891
-0.0218,0.892
-0.0173,0.893
-0.0143,0.894
-0.0053,0.895
0.0015,0.896
0.0052,0.897
0.0082,0.898
0.0097,0.899
0.0142,0.9
0.0165,0.901
0.0195,0.902
0.0225,0.903
0.0217,0.904
0.024,0.905
0.024,0.906
0.0255,0.907
0.03,0.908
0.0307,0.909
0.0292,0.91
0.0292,0.911
0.0262,0.912
0.0217,0.913
0.0157,0.914
0.0105,0.915
0.003,0.916
-0.0098,0.917
-0.0233,0.918
-0.0375,0.919
-0.0503,0.92
-0.0578,0.921
-0.0615,0.922
-0.0533,0.923
-0.0368,0.924
-0.015,0.925
0.0052,0.926
0.0187,0.927
0.0292,0.928
0.0262,0.929
0.0165,0.93
0.0037,0.931
-0.0135,0.932
-0.0233,0.933
-0.0143,0.934
0.0015,0.935
0.0112,0.936
0.0195,0.937
0.0232,0.938
0.0217,0.939
0.0202,0.94
0.024,0.941
0.0292,0.942
0.03,0.943
0.0277,0.944
0.027,0.945
0.027,0.946
0.0217,0.947
0.0217,0.948
0.027,0.949
0.0202,0.95
0.0015,0.951
-0.0256,0.952
-0.0525,0.953
-0.0623,0.954
-0.0623,0.955
-0.0578,0.956
-0.0428,0.957
-0.0263,0.958
-0.0091,0.959
0.0097,0.96
0.0195,0.961
0.024,0.962
0.0315,0.963
0.0352,0.964
0.0352,0.965
0.0352,0.966
0.0322,0.967
0.0277,0.968
0.0255,0.969
0.0195,0.97
0.0142,0.971
0.003,0.972
-0.015,0.973
-0.0293,0.974
-0.0368,0.975
-0.0465,0.976
-0.063,0.977
-0.0713,0.978
-0.0758,0.979
-0.0706,0.98
-0.066,0.981
-0.0495,0.982
-0.0278,0.983
-0.0105,0.984
0.0082,0.985
0.015,0.986
0.0217,0.987
0.0262,0.988
0.0337,0.989
0.0405,0.99
0.0457,0.991
0.048,0.992
0.0435,0.993
0.0382,0.994
0.033,0.995
0.0277,0.996
0.0195,0.997
0.0127,0.998
0.0015,0.999
-0.0113,1.0
-0.0188,1.001
-0.0248,1.002
-0.0361,1.003
-0.0495,1.004
-0.057,1.005
-0.048,1.006
-0.0353,1.007
-0.0278,1.008
-0.0218,1.009
-0.0203,1.01
-0.0181,1.011
-0.0165,1.012
-0.015,1.013
-0.0113,1.014
-0.0083,1.015
-0.003,1.016
-0.0008,1.017
-0.0008,1.018
-0.0015,1.019
0.0022,1.02
0.006,1.021
0.0075,1.022
0.0105,1.023
0.0135,1.024
0.0165,1.025
0.0157,1.026
0.0157,1.027
0.0142,1.028
0.0082,1.029
0.0037,1.03
-0.0023,1.031
-0.0091,1.032
-0.0218,1.033
-0.0346,1.034
-0.0428,1.035
-0.0503,1.036
-0.054,1.037
-0.0383,1.038
-0.0218,1.039
-0.0165,1.04
-0.0105,1.041
-0.0091,1.042
-0.0068,1.043
-0.0046,1.044
-0.003,1.045
-0.0008,1.046
0.0015,1.047
0.0067,1.048
0.0097,1.049
0.0135,1.05
0.0195,1.051
0.0232,1.052
0.024,1.053
0.0277,1.054
0.03,1.055
0.0307,1.056
0.027,1.057
0.0165,1.058
0.0045,1.059
-0.0113,1.06
-0.0293,1.061
-0.033,1.062
-0.0225,1.063
-0.0046,1.064
0.012,1.065
0.0195,1.066
0.0277,1.067
0.033,1.068
0.0405,1.069
0.0457,1.07
0.048,1.071
0.0502,1.072
0.0472,1.073
0.0405,1.074
0.0345,1.075
0.0232,1.076
0.0112,1.077
0.0067,1.078
0.0067,1.079
0.0097,1.08
0.0067,1.081
0.0022,1.082
-0.003,1.083
-0.0083,1.084
-0.0143,1.085
-0.0278,1.086
-0.0383,1.087
-0.0405,1.088
-0.033,1.089
-0.0233,1.09
-0.0173,1.091
-0.012,1.092
-0.0083,1.093
-0.0053,1.094
-0.0068,1.095
-0.0083,1.096
-0.0091,1.097
-0.0038,1.098
0.003,1.099
0.0015,1.1
0.0015,1.101
0.0007,1.102
0.003,1.103
0.003,1.104
0.0,1.105
-0.003,1.106
-0.0068,1.107
-0.0091,1.108
-0.012,1.109
-0.0233,1.11
-0.0346,1.111
-0.0368,1.112
-0.0285,1.113
-0.0203,1.114
-0.0091,1.115
0.003,1.116
0.0045,1.117
0.0075,1.118
0.0075,1.119
0.0082,1.12
0.0112,1.121
0.0112,1.122
0.012,1.123
0.012,1.124
0.0112,1.125
0.0105,1.126
0.0127,1.127
0.0142,1.128
0.0142,1.129
0.0142,1.13
0.0135,1.131
0.012,1.132
0.0105,1.133
0.0105,1.134
0.009,1.135
0.0075,1.136
0.0045,1.137
0.003,1.138
0.0015,1.139
-0.0008,1.14
0.0007,1.141
-0.0015,1.142
-0.0068,1.143
-0.0143,1.144
-0.0181,1.145
-0.0165,1.146
-0.0158,1.147
-0.0105,1.148
-0.0105,1.149
-0.0068,1.15
-0.0015,1.151
0.0015,1.152
0.0037,1.153
0.0052,1.154
0.009,1.155
0.0105,1.156
0.0127,1.157
0.0165,1.158
0.0165,1.159
0.0157,1.16
0.018,1.161
0.0187,1.162
0.0195,1.163
0.0225,1.164
0.0255,1.165
0.0255,1.166
0.0255,1.167
0.0292,1.168
0.0315,1.169
0.0315,1.17
0.0285,1.171
0.024,1.172
0.0195,1.173
0.0127,1.174
0.0052,1.175
-0.0046,1.176
-0.0143,1.177
-0.0181,1.178
-0.0181,1.179
-0.0165,1.18
-0.0128,1.181
-0.0128,1.182
-0.0143,1.183
-0.0165,1.184
-0.0165,1.185
-0.0165,1.186
-0.0188,1.187
-0.0195,1.188
-0.0218,1.189
-0.0263,1.19
-0.0278,1.191
-0.0278,1.192
-0.0278,1.193
-0.0256,1.194
-0.0233,1.195
-0.0181,1.196
-0.012,1.197
-0.0083,1.198
-0.0068,1.199
-0.0068,1.2
-0.0113,1.201
-0.0158,1.202
-0.0135,1.203
-0.006,1.204
0.0007,1.205
0.0082,1.206
0.0075,1.207
0.0082,1.208
0.0075,1.209
0.0015,1.21
-0.0015,1.211
-0.0083,1.212
-0.0128,1.213
-0.012,1.214
-0.0015,1.215
0.0097,1.216
0.0142,1.217
0.018,1.218
0.0172,1.219
0.0172,1.22
0.0142,1.221
0.012,1.222
0.0105,1.223
0.0097,1.224
0.0105,1.225
0.0105,1.226
0.0097,1.227
0.0052,1.228
0.0045,1.229
0.0045,1.23
0.0067,1.231
0.009,1.232
0.0067,1.233
0.006,1.234
0.0045,1.235
0.0007,1.236
-0.003,1.237
-0.003,1.238
-0.0046,1.239
-0.003,1.24
0.0007,1.241
0.003,1.242
0.0052,1.243
0.006,1.244
0.0105,1.245
0.012,1.246
0.0127,1.247
0.0127,1.248
0.0135,1.249
0.0127,1.25
0.0127,1.251
0.012,1.252
0.009,1.253
0.0075,1.254
0.003,1.255
-0.0008,1.256
-0.003,1.257
-0.006,1.258
-0.0083,1.259
-0.0105,1.26
-0.0165,1.261
-0.0195,1.262
-0.0218,1.263
-0.0233,1.264
-0.0203,1.265
-0.0181,1.266
-0.0173,1.267
-0.0181,1.268
-0.0181,1.269
-0.0181,1.27
-0.0195,1.271
-0.0158,1.272
-0.0173,1.273
-0.0218,1.274
-0.0181,1.275
-0.015,1.276
-0.0105,1.277
-0.0068,1.278
-0.0053,1.279
-0.003,1.28
-0.0015,1.281
0.0007,1.282
0.0045,1.283
0.009,1.284
0.012,1.285
0.0127,1.286
0.0127,1.287
0.0157,1.288
0.018,1.289
0.0165,1.29
0.0172,1.291
0.015,1.292
0.0142,1.293
0.0157,1.294
0.0142,1.295
0.0127,1.296
0.0075,1.297
0.0037,1.298
-0.0015,1.299
-0.0068,1.3
-0.0091,1.301
-0.0135,1.302
-0.0158,1.303
-0.0181,1.304
-0.0195,1.305
-0.0188,1.306
-0.0158,1.307
-0.012,1.308
-0.0083,1.309
-0.0053,1.31
-0.0038,1.311
-0.0046,1.312
-0.0046,1.313
-0.0046,1.314
-0.0008,1.315
0.0037,1.316
0.0022,1.317
0.0052,1.318
0.006,1.319
0.009,1.32
0.0097,1.321
0.0097,1.322
0.0105,1.323
0.0127,1.324
0.015,1.325
0.0157,1.326
0.0165,1.327
0.0157,1.328
0.0157,1.329
0.0157,1.33
0.0127,1.331
0.0127,1.332
0.0127,1.333
0.0105,1.334
0.009,1.335
0.006,1.336
0.0,1.337
-0.0023,1.338
-0.0068,1.339
-0.0091,1.34
-0.0098,1.341
-0.0105,1.342
-0.0105,1.343
-0.0128,1.344
-0.0143,1.345
-0.0188,1.346
-0.0233,1.347
-0.0233,1.348
-0.0256,1.349
-0.0256,1.35
-0.0293,1.351
-0.0308,1.352
-0.0308,1.353
-0.0308,1.354
-0.0278,1.355
-0.024,1.356
-0.0203,1.357
-0.0181,1.358
-0.0158,1.359
-0.0158,1.36
-0.0128,1.361
-0.012,1.362
-0.0113,1.363
-0.0083,1.364
-0.0068,1.365
-0.0068,1.366
-0.0046,1.367
0.0,1.368
0.0052,1.369
0.0075,1.37
0.0112,1.371
0.0142,1.372
0.0195,1.373
0.024,1.374
0.0262,1.375
0.0277,1.376
0.03,1.377
0.033,1.378
0.033,1.379
0.033,1.38
0.0315,1.381
0.0285,1.382
0.0277,1.383
0.0277,1.384
0.0292,1.385
0.0307,1.386
0.0277,1.387
0.024,1.388
0.0202,1.389
0.018,1.39
0.0127,1.391
0.0082,1.392
0.0052,1.393
0.0015,1.394
-0.003,1.395
-0.0068,1.396
-0.0105,1.397
-0.0143,1.398
-0.0165,1.399
-0.0165,1.4
-0.0195,1.401
-0.0225,1.402
-0.0256,1.403
-0.0263,1.404
-0.024,1.405
-0.0203,1.406
-0.015,1.407
-0.012,1.408
-0.0105,1.409
-0.0083,1.41
-0.003,1.411
0.0015,1.412
0.0067,1.413
0.0082,1.414
0.012,1.415
0.0105,1.416
0.0112,1.417
0.012,1.418
0.012,1.419
0.0127,1.42
0.0105,1.421
0.0082,1.422
0.006,1.423
0.006,1.424
0.0067,1.425
0.0037,1.426
0.0015,1.427
0.0015,1.428
0.003,1.429
0.0022,1.43
0.0007,1.431
0.0007,1.432
0.0015,1.433
0.0,1.434
-0.0053,1.435
-0.0083,1.436
-0.0091,1.437
-0.0098,1.438
-0.0098,1.439
-0.0098,1.44
-0.0105,1.441
-0.0098,1.442
-0.0091,1.443
-0.0105,1.444
-0.012,1.445
-0.0113,1.446
-0.0113,1.447
-0.0091,1.448
-0.0053,1.449
-0.0053,1.45
-0.0068,1.451
-0.0053,1.452
-0.003,1.453
-0.0015,1.454
-0.0015,1.455
-0.0008,1.456
0.0015,1.457
0.0045,1.458
0.0037,1.459
0.0045,1.46
0.003,1.461
0.003,1.462
0.0067,1.463
0.0067,1.464
0.0075,1.465
0.009,1.466
0.009,1.467
0.0105,1.468
0.012,1.469
0.0157,1.47
0.0165,1.471
0.0165,1.472
0.0157,1.473
0.0135,1.474
0.0127,1.475
0.0097,1.476
0.0082,1.477
0.0082,1.478
0.0052,1.479
0.0015,1.48
-0.0008,1.481
-0.0008,1.482
-0.0053,1.483
-0.0068,1.484
-0.0083,1.485
-0.0091,1.486
-0.0098,1.487
-0.0098,1.488
-0.0091,1.489
-0.0105,1.49
-0.012,1.491
-0.012,1.492
-0.012,1.493
-0.0135,1.494
-0.0128,1.495
-0.0105,1.496
-0.0053,1.497
0.0,1.498
0.0,1.499
0.0037,1.5
0.0097,1.501
0.0142,1.502
0.0172,1.503
0.0202,1.504
0.0202,1.505
0.0217,1.506
0.021,1.507
0.0165,1.508
0.0142,1.509
0.009,1.51
0.006,1.511
0.0052,1.512
0.0022,1.513
-0.0015,1.514
-0.0053,1.515
-0.0053,1.516
-0.006,1.517
-0.0068,1.518
-0.0083,1.519
-0.0113,1.52
-0.0128,1.521
-0.0181,1.522
-0.0203,1.523
-0.021,1.524
-0.021,1.525
-0.0233,1.526
-0.0256,1.527
-0.024,1.528
-0.0233,1.529
-0.0218,1.53
-0.0203,1.531
-0.0165,1.532
-0.0128,1.533
-0.0128,1.534
-0.0105,1.535
-0.0083,1.536
-0.0083,1.537
-0.006,1.538
-0.0023,1.539
0.0015,1.54
0.006,1.541
0.009,1.542
0.009,1.543
0.0082,1.544
0.012,1.545
0.0142,1.546
0.015,1.547
0.0165,1.548
0.0142,1.549
0.0112,1.55
0.0097,1.551
0.0082,1.552
0.009,1.553
0.0082,1.554
0.0067,1.555
0.0045,1.556
0.0,1.557
-0.0023,1.558
-0.0075,1.559
-0.0113,1.56
-0.012,1.561
-0.0128,1.562
-0.0128,1.563
-0.0128,1.564
-0.0135,1.565
-0.0105,1.566
-0.0105,1.567
-0.0053,1.568
-0.0015,1.569
-0.0008,1.57
0.0,1.571
0.0007,1.572
0.0045,1.573
0.0067,1.574
0.006,1.575
0.0052,1.576
0.0052,1.577
0.006,1.578
0.006,1.579
0.0015,1.58
-0.003,1.581
-0.0038,1.582
-0.003,1.583
0.0007,1.584
0.0037,1.585
0.0045,1.586
0.0037,1.587
0.0045,1.588
0.0037,1.589
0.003,1.59
0.003,1.591
0.0045,1.592
0.0067,1.593
0.006,1.594
0.0067,1.595
0.0067,1.596
0.003,1.597
0.003,1.598
0.0015,1.599
-0.0008,1.6
-0.0046,1.601
-0.0053,1.602
-0.003,1.603
-0.0015,1.604
0.0,1.605
-0.0015,1.606
-0.0053,1.607
-0.0053,1.608
-0.0038,1.609
0.0007,1.61
0.003,1.611
0.0075,1.612
0.0105,1.613
0.0135,1.614
0.012,1.615
0.0127,1.616
0.0157,1.617
0.0127,1.618
0.0112,1.619
0.0105,1.62
0.012,1.621
0.0105,1.622
0.0105,1.623
0.0105,1.624
0.009,1.625
0.0052,1.626
0.0045,1.627
0.0045,1.628
0.0045,1.629
0.0052,1.63
0.0052,1.631
0.0045,1.632
0.003,1.633
0.0007,1.634
-0.0008,1.635
-0.003,1.636
-0.003,1.637
-0.0015,1.638
-0.0046,1.639
-0.006,1.64
-0.0083,1.641
-0.0091,1.642
-0.0113,1.643
-0.0128,1.644
-0.0128,1.645
-0.012,1.646
-0.0091,1.647
-0.0075,1.648
-0.0053,1.649
-0.0038,1.65
-0.003,1.651
-0.0015,1.652
-0.0008,1.653
-0.0015,1.654
0.0007,1.655
0.0007,1.656
0.0015,1.657
0.0007,1.658
0.003,1.659
0.003,1.66
0.003,1.661
0.0037,1.662
0.0045,1.663
0.0067,1.664
0.006,1.665
0.0075,1.666
0.006,1.667
0.0037,1.668
0.0015,1.669
-0.0008,1.67
-0.0008,1.671
-0.0015,1.672
-0.0015,1.673
-0.0023,1.674
-0.0015,1.675
-0.003,1.676
-0.0038,1.677
-0.0046,1.678
-0.0075,1.679
-0.0068,1.68
-0.0083,1.681
-0.0091,1.682
-0.0068,1.683
-0.0083,1.684
-0.0091,1.685
-0.0105,1.686
-0.0105,1.687
-0.0083,1.688
-0.0083,1.689
-0.0068,1.69
-0.003,1.691
-0.0008,1.692
-0.0015,1.693
-0.0015,1.694
-0.0008,1.695
-0.0015,1.696
-0.0023,1.697
-0.0015,1.698
0.0007,1.699
0.003,1.7
0.0045,1.701
0.0052,1.702
0.0052,1.703
0.0075,1.704
0.0067,1.705
0.0045,1.706
0.0015,1.707
0.0015,1.708
0.0045,1.709
0.0022,1.71
-0.0015,1.711
-0.0046,1.712
-0.0068,1.713
-0.0083,1.714
-0.0091,1.715
-0.0083,1.716
-0.0083,1.717
-0.006,1.718
-0.0046,1.719
-0.0015,1.72
-0.0008,1.721
0.003,1.722
0.006,1.723
0.0082,1.724
0.012,1.725
0.0127,1.726
0.0112,1.727
0.0105,1.728
0.0045,1.729
-0.0008,1.73
-0.003,1.731
-0.0046,1.732
-0.0053,1.733
-0.006,1.734
-0.0053,1.735
-0.0046,1.736
-0.003,1.737
-0.0023,1.738
0.0,1.739
0.0007,1.74
0.0,1.741
-0.003,1.742
-0.006,1.743
-0.0053,1.744
-0.006,1.745
-0.0046,1.746
-0.003,1.747
-0.0023,1.748
-0.0008,1.749
0.0007,1.75
-0.0008,1.751
-0.0023,1.752
-0.0015,1.753
-0.003,1.754
-0.003,1.755
-0.0015,1.756
0.0007,1.757
0.003,1.758
0.003,1.759
0.003,1.76
0.003,1.761
0.0015,1.762
0.0015,1.763
0.0,1.764
-0.003,1.765
-0.0015,1.766
-0.0015,1.767
-0.0008,1.768
0.0015,1.769
0.0037,1.77
0.0052,1.771
0.0082,1.772
0.0067,1.773
0.006,1.774
0.009,1.775
0.0105,1.776
0.0142,1.777
0.015,1.778
0.012,1.779
0.0097,1.78
0.0067,1.781
0.0052,1.782
0.006,1.783
0.0045,1.784
0.0052,1.785
0.0067,1.786
0.0045,1.787
0.0052,1.788
0.0067,1.789
0.0067,1.79
0.0052,1.791
0.0067,1.792
0.006,1.793
0.0052,1.794
0.0052,1.795
0.0052,1.796
0.0045,1.797
0.0015,1.798
0.0,1.799
-0.0015,1.8
-0.0015,1.801
-0.0046,1.802
-0.0053,1.803
-0.0068,1.804
-0.0075,1.805
-0.0053,1.806
-0.0053,1.807
-0.006,1.808
-0.0075,1.809
-0.0075,1.81
-0.0083,1.811
-0.0083,1.812
-0.0068,1.813
-0.0038,1.814
-0.0038,1.815
-0.0038,1.816
-0.0015,1.817
0.0007,1.818
0.0007,1.819
-0.0008,1.82
-0.0015,1.821
-0.0015,1.822
-0.003,1.823
-0.0015,1.824
-0.0015,1.825
-0.0015,1.826
-0.0008,1.827
0.0,1.828
-0.0008,1.829
-0.0015,1.83
-0.0038,1.831
-0.0046,1.832
-0.0046,1.833
-0.003,1.834
-0.0038,1.835
-0.003,1.836
-0.0015,1.837
-0.0038,1.838
-0.0046,1.839
-0.003,1.84
0.0,1.841
0.0015,1.842
0.003,1.843
0.0045,1.844
0.0045,1.845
0.0037,1.846
0.0045,1.847
0.0037,1.848
0.0037,1.849
0.0037,1.85
0.003,1.851
0.0015,1.852
0.0,1.853
-0.0008,1.854
-0.0008,1.855
-0.003,1.856
-0.0038,1.857
-0.003,1.858
-0.003,1.859
-0.0023,1.86
-0.0008,1.861
-0.0008,1.862
-0.0008,1.863
-0.0008,1.864
0.0,1.865
0.003,1.866
0.003,1.867
0.003,1.868
0.0037,1.869
0.0045,1.87
0.006,1.871
0.006,1.872
0.0037,1.873
0.003,1.874
0.0015,1.875
0.0007,1.876
-0.0008,1.877
-0.0015,1.878
-0.003,1.879
-0.0046,1.88
-0.0053,1.881
-0.0046,1.882
-0.006,1.883
-0.0075,1.884
-0.0083,1.885
-0.0098,1.886
-0.0075,1.887
-0.0075,1.888
-0.0053,1.889
-0.0053,1.89
-0.0046,1.891
-0.003,1.892
-0.0046,1.893
-0.0023,1.894
-0.0015,1.895
-0.0038,1.896
-0.0046,1.897
-0.0038,1.898
-0.0038,1.899
-0.0023,1.9
-0.0008,1.901
-0.0008,1.902
0.0007,1.903
-0.0008,1.904
-0.0008,1.905
0.0007,1.906
-0.0008,1.907
0.0,1.908
0.0007,1.909
-0.0038,1.91
-0.0068,1.911
-0.0068,1.912
-0.003,1.913
-0.0008,1.914
-0.0015,1.915
0.0,1.916
0.003,1.917
0.0067,1.918
0.009,1.919
0.012,1.92
0.012,1.921
0.0105,1.922
0.0105,1.923
0.009,1.924
0.0082,1.925
0.0067,1.926
0.006,1.927
0.0037,1.928
0.0015,1.929
-0.0008,1.93
-0.003,1.931
-0.0046,1.932
-0.0053,1.933
-0.0053,1.934
-0.0038,1.935
-0.0038,1.936
-0.0008,1.937
-0.0008,1.938
-0.0008,1.939
0.0015,1.94
0.0015,1.941
0.0037,1.942
0.0045,1.943
0.0045,1.944
0.0052,1.945
0.0067,1.946
0.0082,1.947
0.0082,1.948
0.009,1.949
0.009,1.95
0.009,1.951
0.009,1.952
0.0082,1.953
0.0067,1.954
0.003,1.955
0.0015,1.956
0.0,1.957
0.0,1.958
-0.0008,1.959
-0.0008,1.96
0.0007,1.961
-0.0008,1.962
-0.0015,1.963
-0.0038,1.964
-0.0023,1.965
-0.003,1.966
-0.003,1.967
-0.003,1.968
-0.0053,1.969
-0.0038,1.97
-0.0046,1.971
-0.0046,1.972
-0.003,1.973
-0.0046,1.974
-0.003,1.975
-0.0023,1.976
-0.0008,1.977
-0.0008,1.978
-0.003,1.979
-0.0015,1.98
-0.0008,1.981
-0.0008,1.982
-0.0008,1.983
-0.0023,1.984
-0.0015,1.985
0.0007,1.986
0.0015,1.987
0.0037,1.988
0.0037,1.989
0.0052,1.99
0.0052,1.991
0.0045,1.992
0.003,1.993
0.0022,1.994
0.0015,1.995
0.003,1.996
0.0037,1.997
0.0015,1.998
0.0007,1.999
-0.0015,2.0
-0.0046,2.001
-0.0053,2.002
-0.0053,2.003
-0.0068,2.004
-0.0075,2.005
-0.006,2.006
-0.0068,2.007
-0.0091,2.008
-0.0091,2.009
-0.0075,2.01
-0.0091,2.011
-0.0105,2.012
-0.0105,2.013
-0.0113,2.014
-0.0098,2.015
-0.0083,2.016
-0.0068,2.017
-0.0046,2.018
-0.0015,2.019
0.0,2.02
0.0015,2.021
0.003,2.022
0.003,2.023
0.003,2.024
0.0022,2.025
0.003,2.026
0.0037,2.027
0.0037,2.028
0.0045,2.029
0.0052,2.03
0.0052,2.031
0.0045,2.032
0.0052,2.033
0.0037,2.034
0.003,2.035
0.006,2.036
0.0052,2.037
0.0052,2.038
0.0052,2.039
0.0037,2.04
0.0052,2.041
0.0052,2.042
0.006,2.043
0.0075,2.044
0.0052,2.045
0.003,2.046
0.0052,2.047
0.0045,2.048
0.003,2.049
0.0007,2.05
0.0007,2.051
0.0022,2.052
0.0037,2.053
0.003,2.054
0.0052,2.055
0.0067,2.056
0.0052,2.057
0.003,2.058
0.0015,2.059
0.0022,2.06
0.0022,2.061
0.0007,2.062
-0.0008,2.063
-0.0015,2.064
0.0007,2.065
0.0015,2.066
0.0007,2.067
0.0,2.068
-0.0015,2.069
-0.003,2.07
-0.0038,2.071
-0.0015,2.072
-0.0008,2.073
-0.0015,2.074
0.0,2.075
-0.0015,2.076
-0.0008,2.077
-0.0008,2.078
-0.0015,2.079
0.0,2.08
0.0007,2.081
0.0015,2.082
0.0007,2.083
-0.0008,2.084
-0.003,2.085
-0.0046,2.086
-0.0053,2.087
-0.0053,2.088
-0.0068,2.089
-0.0068,2.09
-0.0075,2.091
-0.0083,2.092
-0.0083,2.093
-0.0091,2.094
-0.0091,2.095
-0.0083,2.096
-0.006,2.097
-0.0046,2.098
-0.0046,2.099
-0.0038,2.1
-0.0023,2.101
-0.0008,2.102
-0.0015,2.103
-0.0015,2.104
-0.003,2.105
-0.0023,2.106
-0.0008,2.107
-0.0008,2.108
0.0007,2.109
0.0022,2.11
0.003,2.111
0.0037,2.112
0.0052,2.113
0.006,2.114
0.006,2.115
0.006,2.116
0.0075,2.117
0.0075,2.118
0.0067,2.119
0.0067,2.12
0.0067,2.121
0.0052,2.122
0.0037,2.123
0.0037,2.124
0.003,2.125
0.003,2.126
0.0015,2.127
0.0015,2.128
0.0007,2.129
-0.0008,2.13
-0.0015,2.131
0.0015,2.132
0.0015,2.133
0.0007,2.134
0.0015,2.135
0.0,2.136
0.0022,2.137
0.0045,2.138
0.0045,2.139
0.0037,2.14
0.003,2.141
0.0045,2.142
0.0052,2.143
0.006,2.144
0.0075,2.145
0.0075,2.146
0.0082,2.147
0.0075,2.148
0.0097,2.149
0.009,2.15
0.0082,2.151
0.0082,2.152
0.006,2.153
0.0075,2.154
0.0067,2.155
0.0045,2.156
0.0037,2.157
0.0037,2.158
0.0037,2.159
0.0015,2.16
0.0007,2.161
0.0015,2.162
-0.0015,2.163
-0.003,2.164
-0.0046,2.165
-0.0046,2.166
-0.0068,2.167
-0.0091,2.168
-0.0113,2.169
-0.012,2.17
-0.012,2.171
-0.0143,2.172
-0.0135,2.173
-0.012,2.174
-0.012,2.175
-0.0113,2.176
-0.012,2.177
-0.0135,2.178
-0.0128,2.179
-0.0091,2.18
-0.0091,2.181
-0.006,2.182
-0.0046,2.183
-0.0053,2.184
-0.003,2.185
-0.0008,2.186
0.0015,2.187
0.003,2.188
0.003,2.189
0.0037,2.19
0.003,2.191
0.003,2.192
0.0015,2.193
0.0,2.194
0.0015,2.195
0.0015,2.196
0.0022,2.197
0.0022,2.198
0.0007,2.199
-0.0008,2.2
-0.0015,2.201
-0.0023,2.202
-0.0023,2.203
-0.0015,2.204
-0.0015,2.205
-0.0015,2.206
-0.003,2.207
-0.0023,2.208
-0.0038,2.209
-0.0015,2.21
0.0007,2.211
0.0,2.212
0.0,2.213
0.0007,2.214
-0.0008,2.215
0.0007,2.216
0.0015,2.217
0.0007,2.218
0.0007,2.219
0.0015,2.22
0.0045,2.221
0.0045,2.222
0.0052,2.223
0.0052,2.224
0.006,2.225
0.0052,2.226
0.0022,2.227
0.0022,2.228
0.0015,2.229
0.0015,2.23
0.0007,2.231
-0.0008,2.232
0.0007,2.233
0.0007,2.234
0.0007,2.235
0.0015,2.236
0.0007,2.237
0.0022,2.238
0.003,2.239
0.0015,2.24
0.0007,2.241
-0.0008,2.242
0.0007,2.243
0.0022,2.244
0.003,2.245
0.003,2.246
0.0022,2.247
0.0015,2.248
0.0015,2.249
0.0015,2.25
0.0015,2.251
0.0022,2.252
0.003,2.253
0.0037,2.254
0.0037,2.255
0.0015,2.256
0.0007,2.257
0.0015,2.258
0.0007,2.259
0.0007,2.26
0.0007,2.261
0.0,2.262
-0.0038,2.263
-0.0068,2.264
-0.0046,2.265
-0.0053,2.266
-0.0053,2.267
-0.0023,2.268
-0.0038,2.269
-0.0053,2.27
-0.006,2.271
-0.0068,2.272
-0.0075,2.273
-0.006,2.274
-0.0046,2.275
-0.0023,2.276
-0.0015,2.277
0.0015,2.278
0.0052,2.279
0.0067,2.28
0.0075,2.281
0.0067,2.282
0.0067,2.283
0.0075,2.284
0.0067,2.285
0.0067,2.286
0.0045,2.287
0.0045,2.288
0.0037,2.289
0.0015,2.29
0.0,2.291
-0.0008,2.292
-0.0015,2.293
-0.0023,2.294
-0.0015,2.295
-0.003,2.296
-0.003,2.297
-0.003,2.298
-0.0015,2.299
-0.0008,2.3
0.0,2.301
0.0,2.302
0.0007,2.303
0.0,2.304
-0.0008,2.305
0.0007,2.306
0.0015,2.307
0.0015,2.308
0.0015,2.309
0.0007,2.31
0.0022,2.311
0.003,2.312
0.0015,2.313
0.003,2.314
0.0022,2.315
0.0015,2.316
0.0022,2.317
0.0022,2.318
0.0045,2.319
0.0045,2.32
0.0037,2.321
0.0022,2.322
0.0022,2.323
0.0007,2.324
0.0007,2.325
0.003,2.326
0.0022,2.327
0.0022,2.328
0.0022,2.329
0.0015,2.33
0.0007,2.331
0.0007,2.332
0.0,2.333
-0.0023,2.334
-0.0046,2.335
-0.0053,2.336
-0.0053,2.337
-0.0053,2.338
-0.0046,2.339
-0.0053,2.34
-0.0053,2.341
-0.0038,2.342
-0.0053,2.343
-0.0046,2.344
-0.006,2.345
-0.0053,2.346
-0.006,2.347
-0.0068,2.348
-0.006,2.349
-0.0075,2.35
-0.0053,2.351
-0.0053,2.352
-0.0053,2.353
-0.0038,2.354
-0.0053,2.355
-0.0046,2.356
-0.0046,2.357
-0.0046,2.358
-0.0046,2.359
-0.003,2.36
-0.0023,2.361
-0.003,2.362
-0.0008,2.363
-0.0008,2.364
-0.0008,2.365
-0.0015,2.366
-0.0008,2.367
-0.0008,2.368
-0.0008,2.369
0.0022,2.37
0.0015,2.371
0.0037,2.372
0.0037,2.373
0.003,2.374
0.003,2.375
0.003,2.376
0.0052,2.377
0.0045,2.378
0.0045,2.379
0.0052,2.38
0.0045,2.381
0.0045,2.382
0.0067,2.383
0.0067,2.384
0.006,2.385
0.009,2.386
0.0105,2.387
0.0105,2.388
0.0097,2.389
0.0075,2.39
0.0052,2.391
0.0052,2.392
0.0052,2.393
0.0045,2.394
0.003,2.395
0.003,2.396
0.0015,2.397
0.0007,2.398
-0.0015,2.399
-0.0008,2.4
-0.0015,2.401
-0.0015,2.402
-0.0008,2.403
0.0007,2.404
0.0007,2.405
0.0,2.406
-0.0015,2.407
-0.0023,2.408
-0.0015,2.409
-0.003,2.41
-0.003,2.411
-0.0053,2.412
-0.0038,2.413
-0.003,2.414
-0.0053,2.415
-0.0046,2.416
-0.0046,2.417
-0.003,2.418
0.0007,2.419
0.0015,2.42
-0.0008,2.421
-0.0015,2.422
-0.0008,2.423
-0.0008,2.424
0.0007,2.425
0.0015,2.426
0.0015,2.427
0.003,2.428
0.0045,2.429
0.0045,2.43
0.0015,2.431
-0.0008,2.432
-0.0023,2.433
-0.0038,2.434
-0.003,2.435
-0.0023,2.436
-0.006,2.437
-0.0053,2.438
-0.0046,2.439
-0.0053,2.44
-0.0053,2.441
-0.0068,2.442
-0.006,2.443
-0.0068,2.444
-0.0068,2.445
-0.0046,2.446
-0.003,2.447
-0.0053,2.448
-0.0068,2.449
-0.0068,2.45
-0.0053,2.451
-0.0046,2.452
-0.0068,2.453
-0.0075,2.454
-0.0068,2.455
-0.0053,2.456
-0.0046,2.457
-0.0046,2.458
-0.003,2.459
-0.0023,2.46
-0.0015,2.461
-0.0008,2.462
0.0,2.463
0.0015,2.464
0.0052,2.465
0.0052,2.466
0.0082,2.467
0.0105,2.468
0.0142,2.469
0.0195,2.47
0.0195,2.471
0.0225,2.472
0.0232,2.473
0.0195,2.474
0.0157,2.475
0.0135,2.476
0.0105,2.477
0.0082,2.478
0.0052,2.479
0.0037,2.48
0.0,2.481
-0.0068,2.482
-0.0113,2.483
-0.0135,2.484
-0.0165,2.485
-0.0181,2.486
-0.0195,2.487
-0.0181,2.488
-0.0158,2.489
-0.0158,2.49
-0.0165,2.491
-0.0165,2.492
-0.0143,2.493
-0.0143,2.494
-0.0105,2.495
-0.0083,2.496
-0.0068,2.497
-0.003,2.498
-0.0015,2.499
0.0015,2.5
0.0045,2.501
0.0067,2.502
0.0097,2.503
0.012,2.504
0.0165,2.505
0.0195,2.506
0.021,2.507
0.024,2.508
0.027,2.509
0.0315,2.51
0.0352,2.511
0.0345,2.512
0.0345,2.513
0.0315,2.514
0.0315,2.515
0.0292,2.516
0.024,2.517
0.0202,2.518
0.018,2.519
0.0142,2.52
0.009,2.521
0.0052,2.522
0.003,2.523
-0.0023,2.524
-0.006,2.525
-0.0105,2.526
-0.0181,2.527
-0.0218,2.528
-0.024,2.529
-0.0233,2.53
-0.0203,2.531
-0.0143,2.532
-0.0083,2.533
-0.006,2.534
-0.0046,2.535
0.0,2.536
0.0082,2.537
0.0165,2.538
0.0195,2.539
0.0202,2.54
0.0195,2.541
0.0157,2.542
0.0112,2.543
0.0082,2.544
0.0045,2.545
0.003,2.546
0.003,2.547
0.0015,2.548
-0.0015,2.549
-0.0046,2.55
-0.0053,2.551
-0.0098,2.552
-0.0135,2.553
-0.0158,2.554
-0.0195,2.555
-0.0218,2.556
-0.0233,2.557
-0.0285,2.558
-0.0338,2.559
-0.0368,2.56
-0.039,2.561
-0.0413,2.562
-0.0405,2.563
-0.0383,2.564
-0.0368,2.565
-0.0346,2.566
-0.0293,2.567
-0.027,2.568
-0.0263,2.569
-0.024,2.57
-0.021,2.571
-0.0181,2.572
-0.0158,2.573
-0.012,2.574
-0.0068,2.575
-0.003,2.576
-0.0015,2.577
0.003,2.578
0.009,2.579
0.018,2.58
0.027,2.581
0.0345,2.582
0.0442,2.583
0.0495,2.584
0.0517,2.585
0.054,2.586
0.054,2.587
0.051,2.588
0.0465,2.589
0.0405,2.59
0.0352,2.591
0.0307,2.592
0.0232,2.593
0.0157,2.594
0.0082,2.595
0.0015,2.596
-0.0046,2.597
-0.0113,2.598
-0.0165,2.599
-0.0233,2.6
-0.0278,2.601
-0.0315,2.602
-0.0361,2.603
-0.0375,2.604
-0.0361,2.605
-0.0368,2.606
-0.0368,2.607
-0.0353,2.608
-0.0308,2.609
-0.0248,2.61
-0.0188,2.611
-0.0143,2.612
-0.0098,2.613
-0.0053,2.614
-0.0015,2.615
0.0022,2.616
0.0067,2.617
0.0052,2.618
0.0045,2.619
0.0022,2.62
-0.0008,2.621
-0.0038,2.622
-0.0083,2.623
-0.0083,2.624
-0.0098,2.625
-0.012,2.626
-0.0113,2.627
-0.0128,2.628
-0.0143,2.629
-0.0158,2.63
-0.0158,2.631
-0.015,2.632
-0.0143,2.633
-0.0113,2.634
-0.0091,2.635
-0.0091,2.636
-0.0068,2.637
-0.0083,2.638
-0.0083,2.639
-0.0053,2.64
-0.0015,2.641
0.0037,2.642
0.0097,2.643
0.018,2.644
0.0217,2.645
0.024,2.646
0.0247,2.647
0.027,2.648
0.0277,2.649
0.027,2.65
0.0247,2.651
0.0217,2.652
0.0202,2.653
0.018,2.654
0.0142,2.655
0.0112,2.656
0.0082,2.657
0.0067,2.658
0.003,2.659
0.0007,2.66
-0.0008,2.661
-0.0008,2.662
-0.0008,2.663
-0.0008,2.664
0.0015,2.665
0.0007,2.666
0.0007,2.667
-0.0015,2.668
-0.003,2.669
-0.0023,2.67
-0.003,2.671
-0.0053,2.672
-0.0083,2.673
-0.0113,2.674
-0.0135,2.675
-0.0165,2.676
-0.0181,2.677
-0.0181,2.678
-0.0203,2.679
-0.0188,2.68
-0.0165,2.681
-0.0143,2.682
-0.0083,2.683
-0.006,2.684
-0.0023,2.685
0.003,2.686
0.0097,2.687
0.0157,2.688
0.021,2.689
0.0277,2.69
0.0292,2.691
0.0292,2.692
0.0322,2.693
0.0345,2.694
0.033,2.695
0.0277,2.696
0.0255,2.697
0.024,2.698
0.0202,2.699
0.0172,2.7
0.0135,2.701
0.0112,2.702
0.0082,2.703
0.009,2.704
0.0067,2.705
0.0037,2.706
0.003,2.707
0.003,2.708
0.003,2.709
0.0015,2.71
0.0052,2.711
0.0067,2.712
0.0067,2.713
0.0067,2.714
0.0052,2.715
0.0037,2.716
0.003,2.717
0.0007,2.718
-0.003,2.719
-0.0083,2.72
-0.0158,2.721
-0.0218,2.722
-0.024,2.723
-0.0256,2.724
-0.0263,2.725
-0.0263,2.726
-0.0278,2.727
-0.033,2.728
-0.0361,2.729
-0.0361,2.73
-0.0368,2.731
-0.0368,2.732
-0.0375,2.733
-0.0338,2.734
-0.0293,2.735
-0.0256,2.736
-0.0256,2.737
-0.0233,2.738
-0.021,2.739
-0.0173,2.74
-0.015,2.741
-0.0143,2.742
-0.0105,2.743
-0.0053,2.744
-0.0008,2.745
0.003,2.746
0.0067,2.747
0.0082,2.748
0.0112,2.749
0.0142,2.75
0.0142,2.751
0.0142,2.752
0.0142,2.753
0.015,2.754
0.018,2.755
0.0187,2.756
0.021,2.757
0.0232,2.758
0.0217,2.759
0.0232,2.76
0.024,2.761
0.0255,2.762
0.027,2.763
0.0277,2.764
0.0322,2.765
0.0352,2.766
0.0397,2.767
0.0442,2.768
0.0465,2.769
0.0495,2.77
0.0495,2.771
0.0487,2.772
0.0487,2.773
0.045,2.774
0.0397,2.775
0.0352,2.776
0.03,2.777
0.0262,2.778
0.0217,2.779
0.0165,2.78
0.012,2.781
0.0052,2.782
0.0007,2.783
-0.006,2.784
-0.0105,2.785
-0.0165,2.786
-0.0225,2.787
-0.0256,2.788
-0.027,2.789
-0.0293,2.79
-0.0308,2.791
-0.0256,2.792
-0.024,2.793
-0.0203,2.794
-0.0188,2.795
-0.015,2.796
-0.0075,2.797
-0.0008,2.798
0.0045,2.799
0.0052,2.8
0.0037,2.801
0.0037,2.802
0.003,2.803
-0.0046,2.804
-0.0113,2.805
-0.0158,2.806
-0.0203,2.807
-0.024,2.808
-0.0308,2.809
-0.0368,2.81
-0.042,2.811
-0.0443,2.812
-0.0436,2.813
-0.0398,2.814
-0.042,2.815
-0.045,2.816
-0.0511,2.817
-0.0563,2.818
-0.0511,2.819
-0.0465,2.82
-0.039,2.821
-0.03,2.822
-0.0256,2.823
-0.0218,2.824
-0.0195,2.825
-0.0158,2.826
-0.0068,2.827
-0.0015,2.828
0.0022,2.829
0.0067,2.83
0.0082,2.831
0.009,2.832
0.0127,2.833
0.0127,2.834
0.0142,2.835
0.0127,2.836
0.0097,2.837
0.009,2.838
0.0067,2.839
0.0045,2.84
0.003,2.841
0.0045,2.842
0.006,2.843
0.009,2.844
0.009,2.845
0.009,2.846
0.0112,2.847
0.0105,2.848
0.0135,2.849
0.0172,2.85
0.0225,2.851
0.027,2.852
0.0277,2.853
0.0307,2.854
0.0337,2.855
0.0382,2.856
0.042,2.857
0.0435,2.858
0.0435,2.859
0.042,2.86
0.0382,2.861
0.0337,2.862
0.0277,2.863
0.0195,2.864
0.012,2.865
0.0052,2.866
-0.0046,2.867
-0.0128,2.868
-0.0225,2.869
-0.0308,2.87
-0.0346,2.871
-0.0375,2.872
-0.0398,2.873
-0.0428,2.874
-0.0405,2.875
-0.0383,2.876
-0.0383,2.877
-0.0361,2.878
-0.033,2.879
-0.03,2.88
-0.0248,2.881
-0.0203,2.882
-0.0181,2.883
-0.0173,2.884
-0.0173,2.885
-0.0165,2.886
-0.0158,2.887
-0.0143,2.888
-0.0135,2.889
-0.0165,2.89
-0.0173,2.891
-0.0195,2.892
-0.0218,2.893
-0.0225,2.894
-0.0218,2.895
-0.0188,2.896
-0.015,2.897
-0.012,2.898
-0.0091,2.899
-0.0075,2.9
-0.0068,2.901
-0.003,2.902
-0.0008,2.903
0.0007,2.904
0.0052,2.905
0.0067,2.906
0.0075,2.907
0.0082,2.908
0.009,2.909
0.012,2.91
0.0142,2.911
0.0165,2.912
0.0157,2.913
0.018,2.914
0.0195,2.915
0.0195,2.916
0.0187,2.917
0.018,2.918
0.0172,2.919
0.0157,2.92
0.0127,2.921
0.0127,2.922
0.0127,2.923
0.012,2.924
0.0142,2.925
0.0165,2.926
0.0165,2.927
0.0202,2.928
0.024,2.929
0.0262,2.93
0.027,2.931
0.0292,2.932
0.0277,2.933
0.0247,2.934
0.0225,2.935
0.0202,2.936
0.0202,2.937
0.018,2.938
0.0127,2.939
0.009,2.94
0.0045,2.941
0.0022,2.942
0.0007,2.943
0.0,2.944
0.0007,2.945
-0.0008,2.946
-0.0008,2.947
0.0015,2.948
0.0037,2.949
0.006,2.95
0.0067,2.951
0.006,2.952
0.003,2.953
0.0045,2.954
0.0045,2.955
0.0022,2.956
0.0015,2.957
0.0,2.958
-0.0015,2.959
-0.0053,2.96
-0.0083,2.961
-0.0105,2.962
-0.0128,2.963
-0.0128,2.964
-0.0128,2.965
-0.0113,2.966
-0.0091,2.967
-0.0083,2.968
-0.0083,2.969
-0.0053,2.97
-0.0053,2.971
-0.0008,2.972
0.0052,2.973
0.009,2.974
0.015,2.975
0.0187,2.976
0.0217,2.977
0.024,2.978
0.0255,2.979
0.0292,2.98
0.0292,2.981
0.0255,2.982
0.021,2.983
0.0112,2.984
-0.0023,2.985
-0.0165,2.986
-0.033,2.987
-0.0413,2.988
-0.0428,2.989
-0.0383,2.99
-0.033,2.991
-0.0293,2.992
-0.024,2.993
-0.0218,2.994
-0.0203,2.995
-0.0203,2.996
-0.0173,2.997
-0.0165,2.998
-0.0165,2.999
-0.0158,3.0
-0.0143,3.001
-0.0105,3.002
-0.006,3.003
-0.0038,3.004
-0.0068,3.005
-0.006,3.006
-0.006,3.007
-0.0053,3.008
-0.003,3.009
-0.003,3.01
-0.0038,3.011
-0.0053,3.012
-0.003,3.013
0.0007,3.014
0.0022,3.015
0.003,3.016
0.0067,3.017
0.0105,3.018
0.012,3.019
0.0142,3.02
0.015,3.021
0.0142,3.022
0.0195,3.023
0.0255,3.024
0.0315,3.025
0.0352,3.026
0.0345,3.027
0.0345,3.028
0.033,3.029
0.0322,3.03
0.0352,3.031
0.0367,3.032
0.0375,3.033
0.0352,3.034
0.0337,3.035
0.0315,3.036
0.0277,3.037
0.0232,3.038
0.0195,3.039
0.0172,3.04
0.0165,3.041
0.018,3.042
0.0195,3.043
0.0202,3.044
0.0202,3.045
0.0165,3.046
0.0105,3.047
0.0052,3.048
0.0,3.049
-0.0091,3.05
-0.0233,3.051
-0.0256,3.052
-0.0203,3.053
-0.0165,3.054
-0.0158,3.055
-0.0158,3.056
-0.015,3.057
-0.0181,3.058
-0.0203,3.059
-0.0225,3.06
-0.024,3.061
-0.0233,3.062
-0.0195,3.063
-0.015,3.064
-0.015,3.065
-0.0165,3.066
-0.0181,3.067
-0.0293,3.068
-0.0428,3.069
-0.0578,3.07
-0.0698,3.071
-0.0713,3.072
-0.0638,3.073
-0.054,3.074
-0.0458,3.075
-0.042,3.076
-0.0405,3.077
-0.039,3.078
-0.0383,3.079
-0.0383,3.08
-0.039,3.081
-0.0398,3.082
-0.0368,3.083
-0.0315,3.084
-0.0293,3.085
-0.0256,3.086
-0.0195,3.087
-0.0113,3.088
-0.0083,3.089
-0.0075,3.09
-0.0105,3.091
-0.0165,3.092
-0.0188,3.093
-0.027,3.094
-0.0285,3.095
-0.0188,3.096
-0.0068,3.097
-0.0038,3.098
-0.0023,3.099
-0.0015,3.1
-0.003,3.101
-0.0008,3.102
0.0,3.103
0.003,3.104
0.0067,3.105
0.0105,3.106
0.012,3.107
0.012,3.108
0.0165,3.109
0.021,3.11
0.0262,3.111
0.0292,3.112
0.0337,3.113
0.042,3.114
0.0435,3.115
0.0442,3.116
0.0412,3.117
0.0405,3.118
0.0382,3.119
0.0315,3.12
0.027,3.121
0.0232,3.122
0.0165,3.123
0.012,3.124
0.0082,3.125
0.0075,3.126
0.009,3.127
0.0127,3.128
0.0157,3.129
0.015,3.13
0.009,3.131
0.003,3.132
0.0,3.133
-0.003,3.134
-0.0023,3.135
-0.0008,3.136
-0.003,3.137
-0.003,3.138
-0.0053,3.139
-0.0068,3.14
-0.0083,3.141
-0.0091,3.142
-0.0068,3.143
-0.0008,3.144
0.0105,3.145
0.0165,3.146
0.024,3.147
0.0322,3.148
0.0367,3.149
0.0367,3.15
0.0307,3.151
0.024,3.152
0.018,3.153
0.0037,3.154
-0.0188,3.155
-0.0278,3.156
-0.0315,3.157
-0.0346,3.158
-0.0323,3.159
-0.024,3.16
-0.0113,3.161
-0.0075,3.162
-0.0015,3.163
0.0052,3.164
0.0,3.165
-0.0105,3.166
-0.0173,3.167
-0.0158,3.168
-0.0075,3.169
0.003,3.17
0.0127,3.171
0.024,3.172
0.0345,3.173
0.0412,3.174
0.048,3.175
0.0532,3.176
0.0525,3.177
0.0442,3.178
0.0352,3.179
0.0127,3.18
-0.0165,3.181
-0.0368,3.182
-0.0428,3.183
-0.03,3.184
-0.0225,3.185
-0.0195,3.186
-0.0046,3.187
0.009,3.188
0.0217,3.189
0.0292,3.19
0.0345,3.191
0.0397,3.192
0.0427,3.193
0.0457,3.194
0.048,3.195
0.054,3.196
0.0555,3.197
0.0502,3.198
0.048,3.199
0.0457,3.2
0.0442,3.201
0.0397,3.202
0.0345,3.203
0.0247,3.204
0.0135,3.205
0.003,3.206
-0.0165,3.207
-0.0383,3.208
-0.0563,3.209
-0.0555,3.21
-0.0383,3.211
-0.0165,3.212
0.0037,3.213
0.0022,3.214
-0.0053,3.215
-0.015,3.216
-0.0323,3.217
-0.0346,3.218
-0.0285,3.219
-0.0158,3.22
-0.0008,3.221
0.0022,3.222
-0.003,3.223
-0.0105,3.224
-0.0173,3.225
-0.0218,3.226
-0.0218,3.227
-0.0143,3.228
-0.0091,3.229
-0.0008,3.23
0.012,3.231
0.0247,3.232
0.0375,3.233
0.0427,3.234
0.0487,3.235
0.0472,3.236
0.033,3.237
0.0067,3.238
-0.0285,3.239
-0.06,3.24
-0.0735,3.241
-0.06,3.242
-0.0383,3.243
-0.024,3.244
-0.0195,3.245
-0.015,3.246
-0.0091,3.247
0.0015,3.248
0.0,3.249
-0.003,3.25
0.0082,3.251
0.0255,3.252
0.0292,3.253
0.0195,3.254
0.0105,3.255
0.0052,3.256
0.0,3.257
-0.0091,3.258
-0.0053,3.259
-0.0158,3.26
-0.0443,3.261
-0.0495,3.262
-0.0361,3.263
-0.0233,3.264
-0.0143,3.265
-0.0113,3.266
-0.0233,3.267
-0.0346,3.268
-0.0315,3.269
-0.0203,3.27
-0.012,3.271
-0.0105,3.272
-0.0128,3.273
-0.0143,3.274
-0.0091,3.275
-0.0038,3.276
0.0052,3.277
0.006,3.278
0.0015,3.279
0.0007,3.28
-0.0075,3.281
-0.0135,3.282
-0.0105,3.283
-0.0008,3.284
0.009,3.285
0.024,3.286
0.0397,3.287
0.0607,3.288
0.0622,3.289
0.0315,3.29
-0.0218,3.291
-0.075,3.292
-0.0706,3.293
-0.045,3.294
-0.0405,3.295
-0.0458,3.296
-0.0713,3.297
-0.1043,3.298
-0.1125,3.299
-0.1021,3.3
-0.0795,3.301
-0.0308,3.302
0.0075,3.303
0.0255,3.304
0.039,3.305
0.0465,3.306
0.0525,3.307
0.0495,3.308
0.0397,3.309
0.0255,3.31
0.0082,3.311
-0.0143,3.312
-0.0368,3.313
-0.0368,3.314
-0.027,3.315
-0.0218,3.316
-0.0165,3.317
-0.006,3.318
-0.0008,3.319
-0.0098,3.32
-0.0143,3.321
-0.0105,3.322
0.0015,3.323
0.0195,3.324
0.0247,3.325
0.0232,3.326
0.0112,3.327
-0.012,3.328
-0.033,3.329
-0.0413,3.33
-0.03,3.331
-0.0083,3.332
0.0172,3.333
0.0247,3.334
0.012,3.335
0.0,3.336
0.0082,3.337
0.0292,3.338
0.036,3.339
0.0315,3.34
0.018,3.341
-0.0046,3.342
-0.0165,3.343
-0.0015,3.344
0.0157,3.345
0.027,3.346
0.0442,3.347
0.0405,3.348
0.0277,3.349
0.0097,3.35
0.0015,3.351
0.0037,3.352
-0.0203,3.353
-0.0495,3.354
-0.0585,3.355
-0.0436,3.356
-0.0143,3.357
0.0082,3.358
0.0142,3.359
0.015,3.36
0.006,3.361
-0.0135,3.362
-0.021,3.363
-0.0023,3.364
0.0195,3.365
0.0277,3.366
0.0307,3.367
0.0375,3.368
0.0502,3.369
0.0637,3.37
0.054,3.371
0.045,3.372
0.0435,3.373
0.0577,3.374
0.0667,3.375
0.036,3.376
0.0067,3.377
-0.0038,3.378
0.0232,3.379
0.048,3.38
0.0397,3.381
0.0277,3.382
-0.0165,3.383
-0.0773,3.384
-0.1148,3.385
-0.1088,3.386
-0.0893,3.387
-0.0728,3.388
-0.0518,3.389
-0.0465,3.39
-0.042,3.391
-0.0203,3.392
0.0157,3.393
0.0405,3.394
0.0555,3.395
0.0705,3.396
0.084,3.397
0.0975,3.398
0.1027,3.399
0.1035,3.4
0.0862,3.401
0.0502,3.402
0.0067,3.403
-0.021,3.404
-0.0488,3.405
-0.0691,3.406
-0.048,3.407
-0.0323,3.408
-0.054,3.409
-0.075,3.41
-0.0968,3.411
-0.0908,3.412
-0.0315,3.413
0.024,3.414
0.0442,3.415
0.039,3.416
0.0397,3.417
0.072,3.418
0.1035,3.419
0.1185,3.42
0.1177,3.421
0.1035,3.422
0.084,3.423
0.078,3.424
0.0787,3.425
0.0682,3.426
0.0495,3.427
0.033,3.428
0.0375,3.429
0.0345,3.43
0.0322,3.431
0.0465,3.432
0.0487,3.433
0.0345,3.434
0.003,3.435
-0.024,3.436
-0.0308,3.437
-0.033,3.438
-0.0278,3.439
-0.0181,3.44
-0.0195,3.441
-0.0278,3.442
-0.0503,3.443
-0.081,3.444
-0.0818,3.445
-0.063,3.446
-0.048,3.447
-0.024,3.448
-0.012,3.449
-0.0256,3.45
-0.0398,3.451
-0.0428,3.452
-0.0098,3.453
0.021,3.454
0.033,3.455
0.0465,3.456
0.057,3.457
0.0675,3.458
0.069,3.459
0.057,3.46
0.018,3.461
-0.0503,3.462
-0.105,3.463
-0.1178,3.464
-0.1118,3.465
-0.0698,3.466
-0.0413,3.467
-0.0488,3.468
-0.0195,3.469
-0.0068,3.47
-0.042,3.471
-0.099,3.472
-0.1215,3.473
-0.0893,3.474
-0.0638,3.475
-0.039,3.476
-0.0165,3.477
-0.0075,3.478
0.0127,3.479
0.0172,3.48
0.0225,3.481
0.045,3.482
0.0705,3.483
0.093,3.484
0.084,3.485
0.0585,3.486
0.027,3.487
0.0202,3.488
0.0232,3.489
-0.003,3.49
-0.0293,3.491
-0.0706,3.492
-0.1365,3.493
-0.1365,3.494
-0.09,3.495
-0.0503,3.496
-0.0143,3.497
-0.0375,3.498
-0.0923,3.499
-0.1223,3.5
-0.1103,3.501
-0.0578,3.502
-0.0361,3.503
-0.0398,3.504
-0.039,3.505
-0.0225,3.506
0.024,3.507
0.048,3.508
0.039,3.509
0.012,3.51
-0.0068,3.511
0.0022,3.512
0.0217,3.513
0.0487,3.514
0.0615,3.515
0.0607,3.516
0.0585,3.517
0.042,3.518
0.0367,3.519
0.0517,3.52
0.0637,3.521
0.078,3.522
0.0225,3.523
-0.0908,3.524
-0.1868,3.525
-0.1748,3.526
-0.0653,3.527
-0.003,3.528
0.0255,3.529
0.042,3.53
0.0555,3.531
0.0802,3.532
0.0975,3.533
0.114,3.534
0.0952,3.535
0.0817,3.536
0.0817,3.537
0.0615,3.538
0.0,3.539
-0.081,3.54
-0.1305,3.541
-0.1485,3.542
-0.1238,3.543
-0.075,3.544
-0.0346,3.545
-0.0165,3.546
-0.0015,3.547
0.018,3.548
0.024,3.549
0.0382,3.55
0.06,3.551
0.075,3.552
0.0877,3.553
0.096,3.554
0.084,3.555
0.0705,3.556
0.0532,3.557
-0.024,3.558
-0.111,3.559
-0.1148,3.56
-0.0428,3.561
0.0285,3.562
0.0382,3.563
0.0157,3.564
-0.0181,3.565
-0.0285,3.566
0.0082,3.567
0.039,3.568
0.0217,3.569
-0.0046,3.57
0.0502,3.571
0.111,3.572
0.1185,3.573
0.1177,3.574
0.069,3.575
0.015,3.576
-0.0068,3.577
0.0412,3.578
0.1155,3.579
0.1447,3.58
0.1372,3.581
0.042,3.582
-0.054,3.583
-0.0721,3.584
-0.0233,3.585
0.0135,3.586
-0.048,3.587
-0.1441,3.588
-0.1426,3.589
-0.0436,3.59
0.003,3.591
0.0345,3.592
0.0525,3.593
0.0052,3.594
-0.042,3.595
-0.0615,3.596
-0.0323,3.597
0.0255,3.598
0.0712,3.599
0.1005,3.6
0.108,3.601
0.0832,3.602
0.0315,3.603
-0.033,3.604
-0.0555,3.605
-0.0353,3.606
-0.0233,3.607
-0.0015,3.608
-0.0015,3.609
-0.0458,3.61
-0.078,3.611
-0.09,3.612
-0.1133,3.613
-0.1013,3.614
-0.048,3.615
-0.0105,3.616
0.0315,3.617
0.0727,3.618
0.0637,3.619
0.0442,3.62
0.054,3.621
0.0555,3.622
0.027,3.623
-0.0046,3.624
-0.0405,3.625
-0.0353,3.626
-0.0098,3.627
-0.0128,3.628
-0.0075,3.629
-0.0046,3.63
0.024,3.631
0.048,3.632
0.0652,3.633
0.069,3.634
0.048,3.635
0.0532,3.636
0.0442,3.637
0.0015,3.638
-0.1118,3.639
-0.2213,3.64
-0.1763,3.641
-0.1118,3.642
-0.1328,3.643
-0.1095,3.644
-0.06,3.645
0.0045,3.646
0.048,3.647
0.069,3.648
0.0855,3.649
0.0952,3.65
0.1215,3.651
0.1185,3.652
0.1072,3.653
0.0705,3.654
0.0615,3.655
0.0135,3.656
-0.0758,3.657
-0.0818,3.658
-0.0615,3.659
-0.0353,3.66
-0.0158,3.661
-0.0038,3.662
0.0232,3.663
0.0397,3.664
-0.0128,3.665
-0.1426,3.666
-0.2535,3.667
-0.2715,3.668
-0.1785,3.669
-0.0068,3.67
0.1065,3.671
0.1245,3.672
0.0772,3.673
0.0045,3.674
-0.0256,3.675
-0.0278,3.676
-0.042,3.677
-0.0825,3.678
-0.078,3.679
-0.0165,3.68
0.0277,3.681
0.0255,3.682
0.0127,3.683
-0.0105,3.684
-0.015,3.685
0.0337,3.686
0.0127,3.687
-0.0533,3.688
-0.075,3.689
-0.0323,3.69
0.0277,3.691
0.0157,3.692
-0.0135,3.693
-0.0053,3.694
0.0315,3.695
0.03,3.696
-0.0195,3.697
-0.0361,3.698
-0.0368,3.699
-0.0233,3.7
0.018,3.701
0.0772,3.702
0.144,3.703
0.1702,3.704
0.1582,3.705
0.0592,3.706
-0.0465,3.707
-0.0083,3.708
0.03,3.709
-0.0181,3.71
-0.0555,3.711
-0.0578,3.712
-0.0225,3.713
