VaMe,time
2.8897013874831034e-05,0.001
-0.0011017753598486534,0.002
-0.0022708885555952165,0.003
-0.0034688722621269443,0.004
-0.004603727684365878,0.005
-0.005515172432162969,0.006
-0.006036629292539306,0.007
-0.006070938773280252,0.008
-0.0056207075245359095,0.009
-0.004754007277710281,0.01
-0.0035584720368111197,0.011
-0.002138065759911213,0.012
-0.0006342816266354533,0.013
0.0007674469236167203,0.014
0.0018720214760495925,0.015
0.002546439071345459,0.016
0.002779342754065473,0.017
0.0026732074820618804,0.018
0.0023624921582727754,0.019
0.0019283159642810963,0.02
0.001379198946570611,0.021
0.0006943898493315163,0.022
-0.00010579933591240746,0.023
-0.0009095491678531944,0.024
-0.0015217892846308505,0.025
-0.0017336440634403171,0.026
-0.0014267472428873785,0.027
-0.000653248083147307,0.028
0.00037079916491143113,0.029
0.0013507320454139754,0.03
0.002006105729362839,0.031
0.0021299315141960788,0.032
0.0016313610504239508,0.033
0.0005759347814077974,0.034
-0.0007956157238230478,0.035
-0.0021021069892971102,0.036
-0.002930508173239908,0.037
-0.0029922111074782245,0.038
-0.002242418798388022,0.039
-0.0008897268659461716,0.04
0.0006930756760556081,0.041
0.0020996170608804272,0.042
0.0030158818692105687,0.043
0.0033033673127232316,0.044
0.0030181277806914136,0.045
0.002366726326252441,0.046
0.0016155026570655474,0.047
0.0009949066922371776,0.048
0.0006344090266087412,0.049
0.0005323486367966945,0.05
0.0005597821662907043,0.051
0.0005033114762000009,0.052
0.00015200914766458565,0.053
-0.000596596814435915,0.054
-0.0016755429943396175,0.055
-0.0028638278082579105,0.056
-0.003855467494122877,0.057
-0.004362900065349638,0.058
-0.00422597273156171,0.059
-0.003464569259900912,0.06
-0.002246959403009056,0.061
-0.0008149172530096957,0.062
0.0005790706345087442,0.063
0.0017118624190288155,0.064
0.0024297028745686004,0.065
0.002682332172154491,0.066
0.0025206128231727142,0.067
0.0020579510196464474,0.068
0.0014257558189489073,0.069
0.0007414138081541895,0.07
9.928958166223868e-05,0.071
-0.00040836466994639684,0.072
-0.0006788067769605342,0.073
-0.0006340973354607806,0.074
-0.0002736154228250922,0.075
0.000309005325426923,0.076
0.0009533397096193278,0.077
0.0014823033287757795,0.078
0.0017586482621523745,0.079
0.0017366210835026144,0.08
0.0014869304966682584,0.081
0.0011605232041545417,0.082
0.0008954669376988654,0.083
0.0007353346777850875,0.084
0.0006105012368650343,0.085
0.0003834436206726314,0.086
-6.833892084746464e-05,0.087
-0.0007833951686258795,0.088
-0.0016999213071528633,0.089
-0.0026823443266460498,0.09
-0.0035576954366033286,0.091
-0.0041494022632925405,0.092
-0.0043113739252975975,0.093
-0.003954548332292843,0.094
-0.003065522916936333,0.095
-0.001728508614803075,0.096
-0.000139447306057919,0.097
0.0014248484708235213,0.098
0.002688807922280372,0.099
0.0034631021932640944,0.1
0.0036892120753806473,0.101
0.003436075767348217,0.102
0.002858373118934318,0.103
0.002137433155332205,0.104
0.0014291105368213698,0.105
0.00083162582088227,0.106
0.00037869771989958986,0.107
5.805097793424276e-05,0.108
-0.00015899018898850174,0.109
-0.0002974702453708749,0.11
-0.00037787386886531003,0.111
-0.00043068090095123155,0.112
-0.0005132452915010218,0.113
-0.0006963193977436099,0.114
-0.0010091709318802286,0.115
-0.0014029425442522291,0.116
-0.001782112635308235,0.117
-0.0020696329099525014,0.118
-0.00223601294246816,0.119
-0.0022774199449963946,0.12
-0.0021867767545673106,0.121
-0.0019413789923855415,0.122
-0.001505674843986932,0.123
-0.0008446934574409575,0.124
5.882498226436159e-05,0.125
0.001188252845366523,0.126
0.002475953169843911,0.127
0.0037754529785617636,0.128
0.004853072163347477,0.129
0.005438724965644469,0.13
0.005322225026195081,0.131
0.00444363849936507,0.132
0.002924665593406396,0.133
0.001037707844292331,0.134
-0.0008700375728466311,0.135
-0.0024746672480267518,0.136
-0.00354568012425616,0.137
-0.003972505541137908,0.138
-0.003770402274573105,0.139
-0.0030800231806607783,0.14
-0.002149917044339829,0.141
-0.0012767220143129038,0.142
-0.0007064227082556693,0.143
-0.0005469461715878762,0.144
-0.0007445788204616665,0.145
-0.001126816261894325,0.146
-0.001479553458354439,0.147
-0.0016198725748488606,0.148
-0.0014418854708433395,0.149
-0.0009380784826240398,0.15
-0.00019820297039066666,0.151
0.0006096511942376426,0.152
0.0012773655332472492,0.153
0.0016235455183501468,0.154
0.0015708770338200566,0.155
0.0011941179378988603,0.156
0.0007035755102263286,0.157
0.00036064586759927756,0.158
0.00036454063067495454,0.159
0.0007681261582246712,0.16
0.0014558693144358875,0.161
0.0021832742415057328,0.162
0.0026773782351141254,0.163
0.002763439105128201,0.164
0.002431763876103628,0.165
0.0018044282942993142,0.166
0.0010481602847184927,0.167
0.0003033215207673122,0.168
-0.0003421646469763952,0.169
-0.0008477345237093432,0.17
-0.0012088620302049542,0.171
-0.0014504202787901607,0.172
-0.001600990064603973,0.173
-0.0016529819954279028,0.174
-0.0015634878759826028,0.175
-0.0012953796845978857,0.176
-0.0008515874921734691,0.177
-0.00029518520935229234,0.178
0.00023739894985506653,0.179
0.0005622525558860317,0.18
0.0005344671139468729,0.181
0.0001321313590413413,0.182
-0.0005287189574293799,0.183
-0.0012323011836144395,0.184
-0.0017282328771988371,0.185
-0.0018204927515692298,0.186
-0.0014544541731486044,0.187
-0.0007555909592913767,0.188
8.980634776561759e-06,0.189
0.0005288064720924833,0.19
0.0005662143328895966,0.191
5.720061753727291e-05,0.192
-0.0008365792129320313,0.193
-0.0017679259410860386,0.194
-0.0023440549338525473,0.195
-0.0022943359419292544,0.196
-0.0015672187923436787,0.197
-0.00031586379102328647,0.198
0.001191254159246467,0.199
0.002665635025242476,0.2
0.0038620669189375462,0.201
0.004609831677170858,0.202
0.004813734339680403,0.203
0.004440670354138065,0.204
0.0035262710777598594,0.205
0.0021924406021482288,0.206
0.0006384560633251844,0.207
-0.0008919096733037486,0.208
-0.002154910681726654,0.209
-0.002960931108604123,0.21
-0.0032240045594618526,0.211
-0.0029790795218142,0.212
-0.002355233568897371,0.213
-0.0015325784639538703,0.214
-0.0007023840969163924,0.215
-2.3672855828959482e-05,0.216
0.0004147499072704262,0.217
0.0005951162101117626,0.218
0.0005319752254566274,0.219
0.00024779786846804364,0.22
-0.00020970298769354515,0.221
-0.0007429519971125484,0.222
-0.0012097189287702745,0.223
-0.0014655130652985126,0.224
-0.0014170173595716587,0.225
-0.001058267025074873,0.226
-0.0004729379617278639,0.227
0.00019906051921866,0.228
0.0008010773436473762,0.229
0.0011946713631363916,0.23
0.0013007834160522023,0.231
0.0011196819925571118,0.232
0.0007145398221984153,0.233
0.0001952466869714003,0.234
-0.0002844896957352154,0.235
-0.0005453898381125016,0.236
-0.0004313726549859552,0.237
0.00012362532287311888,0.238
0.001046795759068922,0.239
0.002129662334801674,0.24
0.003080780202707072,0.241
0.003610780440948609,0.242
0.0035263079404701464,0.243
0.0027907301865968737,0.244
0.0015251322900538434,0.245
-3.25008707500661e-05,0.246
-0.0015827613570004475,0.247
-0.0028392521138651833,0.248
-0.00361271559681272,0.249
-0.0038603377523917185,0.25
-0.0036788285102810274,0.251
-0.0032527922710757825,0.252
-0.002779647702214708,0.253
-0.0023943572530164756,0.254
-0.002122619293016327,0.255
-0.001884861309549822,0.256
-0.001537188810000153,0.257
-0.0009275969973258749,0.258
3.032846240195544e-05,0.259
0.00128360947160289,0.26
0.0026208018151792213,0.261
0.0037383904950455127,0.262
0.004365888131797877,0.263
0.0043791109657247956,0.264
0.003827917949386032,0.265
0.0028831949423492294,0.266
0.001768659819310661,0.267
0.0007005313381770098,0.268
-0.00017047015782613545,0.269
-0.0007867145197646281,0.27
-0.0011573233907743881,0.271
-0.001305720391486448,0.272
-0.001239724369290352,0.273
-0.0009685793037125166,0.274
-0.0005462098499315084,0.275
-9.29625131859251e-05,0.276
0.00023500596364330682,0.277
0.00030988818317551856,0.278
7.720288576567722e-05,0.279
-0.0004292298552472043,0.28
-0.0010846026687567514,0.281
-0.0017009096317686316,0.282
-0.0020923682625021214,0.283
-0.002146215287849568,0.284
-0.0018571223262900452,0.285
-0.0013106672130372252,0.286
-0.0006443680312857104,0.287
-6.2219378508048545e-06,0.288
0.00048757396026241764,0.289
0.0007831844710427373,0.29
0.0008896248534298009,0.291
0.0008470450483855246,0.292
0.0006955179560116001,0.293
0.0004769352295178086,0.294
0.0002500891461711049,0.295
7.581408767853657e-05,0.296
-1.5814407984526813e-05,0.297
-3.37212082197686e-05,0.298
-5.0684704520702154e-06,0.299
4.9295412012603486e-05,0.3
0.00011897431143200057,0.301
0.0001944411160837523,0.302
0.00026406097384543836,0.303
0.0003187572210015252,0.304
0.00035294185393305367,0.305
0.0003527936753647466,0.306
0.0002900202293612925,0.307
0.00014638085490429508,0.308
-4.34972454690478e-05,0.309
-0.00018183425916678753,0.31
-0.0001652129824973121,0.311
3.620563484074133e-05,0.312
0.0003561889383625053,0.313
0.0006773985531388334,0.314
0.0008993184206778593,0.315
0.0009842858034197388,0.316
0.0009514887664391162,0.317
0.0008230830604164063,0.318
0.0005807409616763322,0.319
0.00018918025353261114,0.32
-0.00034180811396507303,0.321
-0.0009253998070181924,0.322
-0.0014248105221620485,0.323
-0.0017234024420945421,0.324
-0.0017819513882595906,0.325
-0.001641764879584882,0.326
-0.0013882935029150393,0.327
-0.0011035712521140141,0.328
-0.0008274042054265016,0.329
-0.0005488960206804065,0.33
-0.00023040001377335842,0.331
0.00016705060984310865,0.332
0.0006734139368601304,0.333
0.0012973401338355727,0.334
0.0020029326753235772,0.335
0.002694701769969615,0.336
0.0032292933311624116,0.337
0.003447014943648509,0.338
0.003206990956730186,0.339
0.0024234296275935925,0.34
0.0011163788562374203,0.341
-0.0005413079809154738,0.342
-0.0022360547540464454,0.343
-0.003597339932586138,0.344
-0.004311222995993225,0.345
-0.004208298167236077,0.346
-0.003296438235676128,0.347
-0.0017553466810338678,0.348
8.880643562075117e-05,0.349
0.0018242379650831055,0.35
0.003057631816265585,0.351
0.0035195052216931756,0.352
0.003126383011747901,0.353
0.001993843135748974,0.354
0.00039646212306194555,0.355
-0.001318473110683645,0.356
-0.002815831139257001,0.357
-0.0038285564753860832,0.358
-0.00420032899552208,0.359
-0.003910760135395951,0.36
-0.003069616354057384,0.361
-0.0018827250057930523,0.362
-0.0005943014214950025,0.363
0.0005709881784925363,0.364
0.001444618983192564,0.365
0.001942039503152726,0.366
0.002088508867442578,0.367
0.002008687436490663,0.368
0.0018635339866846152,0.369
0.0017764556569982606,0.37
0.0017906664048505747,0.371
0.0018624647588205482,0.372
0.0018779659848049421,0.373
0.0016915380651236244,0.374
0.0011918326122670549,0.375
0.00037968545350527906,0.376
-0.0005972683860974305,0.377
-0.0014932081017146456,0.378
-0.002051130904923818,0.379
-0.002074617936678678,0.38
-0.0014870974609284323,0.381
-0.00038134798140779166,0.382
0.0009748869784758787,0.383
0.0022109703007465137,0.384
0.002975958798592867,0.385
0.0030550549458859,0.386
0.002429886688321197,0.387
0.0012505144983860632,0.388
-0.00024131683457576382,0.389
-0.0017757463988337077,0.39
-0.0030938556104453587,0.391
-0.003974399848819865,0.392
-0.00425810100139035,0.393
-0.0038747567478641977,0.394
-0.002864030932493375,0.395
-0.0013692356089705594,0.396
0.00038880796625510964,0.397
0.002130473309432655,0.398
0.0035387408225070484,0.399
0.004309385302014113,0.4
0.004228430808256913,0.401
0.0032538411919918173,0.402
0.0015593821672012836,0.403
-0.0004936089643020155,0.404
-0.0024459142234043853,0.405
-0.0038599635659764425,0.406
-0.004438602820037932,0.407
-0.004104617322061879,0.408
-0.0030140711884435087,0.409
-0.0015018074817105538,0.41
2.282688513337094e-05,0.411
0.0011951487079489562,0.412
0.00179895915766284,0.413
0.0018285856672314073,0.414
0.0014745798580298335,0.415
0.0010282425925505633,0.416
0.0007465607503240043,0.417
0.0007415991908433067,0.418
0.0009544172803477525,0.419
0.0012180612891192332,0.42
0.0013547240104058215,0.421
0.0012567083394735138,0.422
0.0009331061741231042,0.423
0.0005100567485818357,0.424
0.0001710065271747964,0.425
6.144286553103866e-05,0.426
0.00021617490782861913,0.427
0.0005444450501650451,0.428
0.0008652940959412473,0.429
0.0009707216704537584,0.43
0.0007039836642764115,0.431
2.9171912647909868e-05,0.432
-0.0009409026809361392,0.433
-0.001978278452794206,0.434
-0.002831773328110606,0.435
-0.003324416680888558,0.436
-0.0033963812586983665,0.437
-0.0030876679688301347,0.438
-0.002489587667962278,0.439
-0.001696124501956286,0.44
-0.0007756757711618903,0.441
0.0002308903785940043,0.442
0.0012896859323587142,0.443
0.0023366526187014883,0.444
0.003254855415387149,0.445
0.0038933950011839796,0.446
0.004106489160078077,0.447
0.003802812742878448,0.448
0.0029959917063870655,0.449
0.001813336851119697,0.45
0.00044859390698132013,0.451
-0.0009049152857681951,0.452
-0.002091641749342384,0.453
-0.0029946896996782112,0.454
-0.0035301900923190308,0.455
-0.003649422475789427,0.456
-0.0033371790502528496,0.457
-0.002614912441610261,0.458
-0.001575310558756645,0.459
-0.00040523951668874756,0.46
0.0006586632127511245,0.461
0.0014233207398699854,0.462
0.001827021793806332,0.463
0.0019548223315917984,0.464
0.0019670855578804076,0.465
0.0019939875911996947,0.466
0.0020547774541908727,0.467
0.0020455362635926426,0.468
0.0018008091863565335,0.469
0.0011928119686921857,0.47
0.0002108549045021955,0.471
-0.0010085261444713071,0.472
-0.00220151215706053,0.473
-0.003061267662365714,0.474
-0.003366567844973946,0.475
-0.0030729851282984048,0.476
-0.0023018936875756927,0.477
-0.0012578004483881368,0.478
-0.0001496617260221589,0.479
0.0008522320269675276,0.48
0.0016329740137818343,0.481
0.002141809945959449,0.482
0.0023921580212453684,0.483
0.0024410666129657172,0.484
0.0023486279195275195,0.485
0.002139924348860109,0.486
0.001805272295657295,0.487
0.0013317947495317922,0.488
0.0007276690642932442,0.489
2.914267268492047e-05,0.49
-0.0006954711890689749,0.491
-0.001352175837720477,0.492
-0.001854835443519825,0.493
-0.002156526410547901,0.494
-0.002253772395896699,0.495
-0.0021858049669519508,0.496
-0.0020327588198538267,0.497
-0.0018866212425134865,0.498
-0.0017968081706363122,0.499
-0.001733857366270513,0.5
-0.0016009177735821845,0.501
-0.001284625992454273,0.502
-0.000720106451163877,0.503
6.474545224885314e-05,0.504
0.0009494210299552269,0.505
0.001764547254336114,0.506
0.002359059870878104,0.507
0.0026553066880778027,0.508
0.0026600645633989783,0.509
0.0024344470746882696,0.51
0.002063065507454286,0.511
0.001639382560849031,0.512
0.0012497057906417498,0.513
0.0009561389179663767,0.514
0.0007888705318214357,0.515
0.0007479713728719514,0.516
0.0007995959491436248,0.517
0.0008573573343609205,0.518
0.0007867184590542873,0.519
0.0004660017062021913,0.52
-0.00013387949348990166,0.521
-0.0009192481385335464,0.522
-0.001707270922255807,0.523
-0.0022887005335465328,0.524
-0.002499389035862912,0.525
-0.002281601174419698,0.526
-0.0017068905986774316,0.527
-0.0009517354028921191,0.528
-0.0002342364242653506,0.529
0.000259399539137204,0.53
0.0004182549035323949,0.531
0.00021557996096020036,0.532
-0.00028950263926459457,0.533
-0.0009585409722181923,0.534
-0.0016055879439612196,0.535
-0.0020496135228542044,0.536
-0.002163149605378082,0.537
-0.0018958770500436771,0.538
-0.0012873894383534253,0.539
-0.0004619914771644323,0.54
0.0004261116911998026,0.541
0.0012559615128567674,0.542
0.0019431828735150952,0.543
0.002401732352014216,0.544
0.0025373344424084736,0.545
0.0022854190546505904,0.546
0.0016562531854782446,0.547
0.0007649938801967126,0.548
-0.00017577594835127116,0.549
-0.0009193886705659231,0.55
-0.0012842031151485466,0.551
-0.0012196833166831715,0.552
-0.0007908963180269218,0.553
-0.00012111061498962052,0.554
0.0006486125036309332,0.555
0.0013765857203248463,0.556
0.0019284179772214032,0.557
0.0021807182257600304,0.558
0.002038629714902583,0.559
0.0014807010098719685,0.56
0.000601477972864104,0.561
-0.00039346966126533337,0.562
-0.0012525416505396818,0.563
-0.0017627630464980835,0.564
-0.0018048430327036798,0.565
-0.0013754998697422713,0.566
-0.0005875155514814784,0.567
0.00035370613703366286,0.568
0.0011931834841092182,0.569
0.001683662540642119,0.57
0.0016490257067581096,0.571
0.0010376413538499979,0.572
-5.7947123329587624e-05,0.573
-0.001423401530694087,0.574
-0.002769280716288357,0.575
-0.0037862542534466384,0.576
-0.004202568161184849,0.577
-0.003845919773895577,0.578
-0.0027068095573584148,0.579
-0.0009735703087053066,0.58
0.0010019898635646924,0.581
0.002811931106508933,0.582
0.004110462841424369,0.583
0.004680900037713651,0.584
0.004450636047771101,0.585
0.0034910861205275363,0.586
0.002020248939114654,0.587
0.00037402143017553494,0.588
-0.001081451241621921,0.589
-0.002066151088484088,0.59
-0.0024670368922848633,0.591
-0.0023401421281588905,0.592
-0.0018569775834932677,0.593
-0.0012381599953560974,0.594
-0.0006860110523472642,0.595
-0.00032791829942187815,0.596
-0.00019558670326090473,0.597
-0.00024403962668660532,0.598
-0.00038385524657802975,0.599
-0.0005068755968271496,0.6
-0.0005131562987852457,0.601
-0.000349720292167592,0.602
-3.711562949755652e-05,0.603
0.00034761574137771303,0.604
0.0007127208794489297,0.605
0.0009836789308396328,0.606
0.001111844699662048,0.607
0.0010639776002625855,0.608
0.0008199140221263021,0.609
0.00039277885992234274,0.61
-0.0001403938140588432,0.611
-0.0006225129441146388,0.612
-0.0008509274840459586,0.613
-0.0006683161627506337,0.614
-5.665887519595264e-05,0.615
0.0008325239379605641,0.616
0.001727374013534719,0.617
0.0023369471469863296,0.618
0.0024690230912174883,0.619
0.002111780583978673,0.62
0.0014214008482346956,0.621
0.0006182041789577894,0.622
-0.00012502262363184793,0.623
-0.0007364931822248925,0.624
-0.0012343349748495343,0.625
-0.0016620771209799967,0.626
-0.00201993530703733,0.627
-0.002254452994926116,0.628
-0.0023094866135117548,0.629
-0.0021772738687511313,0.63
-0.0018960880558245054,0.631
-0.001511407237721292,0.632
-0.0010555496562770384,0.633
-0.0005728077657194812,0.634
-0.00014444036689885707,0.635
0.00013933015894621053,0.636
0.00023802420515662298,0.637
0.0002029095325273002,0.638
0.00016941694745554567,0.639
0.0002969753396648351,0.64
0.0006845443416024174,0.641
0.001306323750659661,0.642
0.0020154475772096994,0.643
0.0025972795421988514,0.644
0.0028262548603651553,0.645
0.0025325618917749243,0.646
0.001677619946599262,0.647
0.00039526608693410365,0.648
-0.0010427589534274,0.649
-0.0023198523044618215,0.65
-0.0031668053045558566,0.651
-0.0034195666349395456,0.652
-0.0030383954436287463,0.653
-0.002102206580820482,0.654
-0.0007875322966252035,0.655
0.0006702693536744364,0.656
0.0020269397582887354,0.657
0.0030750384123567715,0.658
0.0036646208321409576,0.659
0.003697935025360068,0.66
0.0031253997653421417,0.661
0.0019763526214936,0.662
0.0004170794944041885,0.663
-0.0012407830370205586,0.664
-0.0026241982225866205,0.665
-0.003428710381600766,0.666
-0.003527030951652955,0.667
-0.0029933732601702162,0.668
-0.002030365272759607,0.669
-0.0008684152148100152,0.67
0.0002891558132786851,0.671
0.0012736111957325855,0.672
0.001958288581747759,0.673
0.0022794057664996662,0.674
0.002237852514832118,0.675
0.001874088464878295,0.676
0.0012445441303069917,0.677
0.00042489007610055715,0.678
-0.0004722922098570679,0.679
-0.0013042521208949656,0.68
-0.0019320418723059478,0.681
-0.0022513280507284717,0.682
-0.0022026375763385952,0.683
-0.001772407161222211,0.684
-0.0010027306785971503,0.685
5.369331146515791e-06,0.686
0.0011090260065874868,0.687
0.0021451797431659607,0.688
0.0029502102750026448,0.689
0.0033813342593735814,0.69
0.0033336595442185375,0.691
0.0027491706148629904,0.692
0.0016383421035599409,0.693
0.00012328182794833724,0.694
-0.001545747387841371,0.695
-0.0030486047449220914,0.696
-0.004106581289004754,0.697
-0.004570860485374027,0.698
-0.004426982920778755,0.699
-0.0037328066506534265,0.7
-0.002568905452308713,0.701
-0.0010445593394002185,0.702
0.0006672489338435743,0.703
0.002310957681511126,0.704
0.003579437836974485,0.705
0.004201282119966366,0.706
0.004050103077221588,0.707
0.003203908652162657,0.708
0.0019067065791774267,0.709
0.00047050331972728847,0.71
-0.0008234917905680019,0.711
-0.0017917919811671478,0.712
-0.0023676700214157243,0.713
-0.00258145829134526,0.714
-0.0025121002046457857,0.715
-0.0022371124556627544,0.716
-0.0018160986603709068,0.717
-0.001290542805104009,0.718
-0.0006738967810266191,0.719
5.076525206618381e-05,0.72
0.0008987716011482199,0.721
0.0018361749612796972,0.722
0.0027649233065519885,0.723
0.0035458115229751452,0.724
0.0040317943573772086,0.725
0.004103612480593084,0.726
0.0037076426382094472,0.727
0.0028758980899781014,0.728
0.001712925555586495,0.729
0.00036989425333156396,0.73
-0.0009814581669291777,0.731
-0.002183375781711883,0.732
-0.0031299120603823856,0.733
-0.0037898644182490756,0.734
-0.004193008972542929,0.735
-0.0043842796774394305,0.736
-0.004385273697841939,0.737
-0.004186727285307519,0.738
-0.003755844907248488,0.739
-0.0030436461162050314,0.74
-0.0020052293874723154,0.741
-0.0006362981614077956,0.742
0.0009883609854411488,0.743
0.0026908297348671446,0.744
0.004203282763577939,0.745
0.005230364510041331,0.746
0.00554133930815614,0.747
0.005047490527969008,0.748
0.003832006964584874,0.749
0.002129186445212387,0.75
0.00027113798749137097,0.751
-0.0013741501477066579,0.752
-0.0024740781740799126,0.753
-0.002813737305811629,0.754
-0.0023589884533625712,0.755
-0.00126491109174759,0.756
0.00017486929820101642,0.757
0.0016119771431879284,0.758
0.002732722812756581,0.759
0.0033243727604747027,0.76
0.0032938440405435292,0.761
0.0026479271891779246,0.762
0.0014690970616464418,0.763
-9.486388968545396e-05,0.764
-0.0018406276930008987,0.765
-0.003525046892565119,0.766
-0.00488528112307334,0.767
-0.005678893863612215,0.768
-0.005743847188666996,0.769
-0.00504402513784247,0.77
-0.0036733424877334053,0.771
-0.0018367989579017874,0.772
0.00017007927700796364,0.773
0.002003831878949805,0.774
0.003359161668576836,0.775
0.004070518665229898,0.776
0.004154366216213028,0.777
0.003760389426864068,0.778
0.0030895108718905747,0.779
0.002329931811705439,0.78
0.0016075494510615124,0.781
0.0009481377374932536,0.782
0.0002816520711371472,0.783
-0.0004983820182167849,0.784
-0.0014557759156498882,0.785
-0.0025494960106281646,0.786
-0.0036184491189492902,0.787
-0.004425080627364253,0.788
-0.004726489423604291,0.789
-0.004342691282416694,0.79
-0.0032153683929074385,0.791
-0.0014492896431520963,0.792
0.0006907520328472755,0.793
0.0028425910886566946,0.794
0.0046475947703059975,0.795
0.005852926591590093,0.796
0.00635565659800842,0.797
0.006161398806461285,0.798
0.00531548865440215,0.799
0.0038770437724598315,0.8
0.0019520680627937307,0.801
-0.00026108223402629736,0.802
-0.002469161432588228,0.803
-0.004335621849322362,0.804
-0.005560875698839561,0.805
-0.005951839531611492,0.806
-0.005462649957534455,0.807
-0.004206014483899421,0.808
-0.002431347389201509,0.809
-0.0004714278982811024,0.81
0.001321534796378777,0.811
0.0026335315407659096,0.812
0.003254166677996888,0.813
0.003134463885480838,0.814
0.0023874720186523777,0.815
0.0012362091043895986,0.816
-4.173296470264611e-05,0.817
-0.001161383084472763,0.818
-0.0018950587421100518,0.819
-0.0021378413176637474,0.82
-0.0019292224640121078,0.821
-0.0014214572405403163,0.822
-0.0008049035722346269,0.823
-0.0002288570853773577,0.824
0.0002315834411195697,0.825
0.0005734648884898416,0.826
0.0008596476891318668,0.827
0.0011929031947901284,0.828
0.0016594027581655153,0.829
0.0022705534474795276,0.83
0.002940197658172119,0.831
0.003505754486044931,0.832
0.0037641780727058014,0.833
0.0035132498972485853,0.834
0.002623143730640619,0.835
0.0011228517918602284,0.836
-0.0007620546076505719,0.837
-0.0026651282632450344,0.838
-0.004195682510290924,0.839
-0.005046192926467098,0.84
-0.005068122037591695,0.841
-0.004307314162509607,0.842
-0.0029844291641851228,0.843
-0.0014359701237746728,0.844
-2.9955799332416802e-05,0.845
0.0009376337098057606,0.846
0.001328698298401282,0.847
0.0011830853275079756,0.848
0.0006685782682053358,0.849
-8.628582275383858e-06,0.85
-0.0006838922752838834,0.851
-0.0012583344657872103,0.852
-0.00167563203287636,0.853
-0.0018842875439333392,0.854
-0.0018113867550676125,0.855
-0.0013741725108295593,0.856
-0.0005300177213644888,0.857
0.0006692298456612833,0.858
0.0020515134574782324,0.859
0.0033455724900885576,0.86
0.004265213283237167,0.861
0.004622363495850805,0.862
0.004394118171404399,0.863
0.0037167025163084176,0.864
0.002822833985819377,0.865
0.0019527736417125842,0.866
0.0012676573801067015,0.867
0.0007892005662144759,0.868
0.0003982293414155166,0.869
-8.44994671863319e-05,0.87
-0.0007649221953717975,0.871
-0.0015885009322810805,0.872
-0.0023700032617503617,0.873
-0.0029030123040778765,0.874
-0.003058926275401149,0.875
-0.0028213215399412322,0.876
-0.002268704378475932,0.877
-0.001547210746951347,0.878
-0.0008589821189375636,0.879
-0.00044066710194552364,0.88
-0.00048633039805534247,0.881
-0.0010423237492665862,0.882
-0.0019636538569999134,0.883
-0.0029684576737982883,0.884
-0.003735687732359495,0.885
-0.003989718667178534,0.886
-0.0035563042089825254,0.887
-0.002392355376320661,0.888
-0.0005990021250693053,0.889
0.001589785251641867,0.89
0.0038464847777612524,0.891
0.005810952984627053,0.892
0.0071631544340266815,0.893
0.007677471243327568,0.894
0.007252927050817891,0.895
0.005936032577795616,0.896
0.003930274033146754,0.897
0.0015679163176981062,0.898
-0.0007639400075067046,0.899
-0.0027157030229301806,0.9
-0.004052521754831312,0.901
-0.004682219346410545,0.902
-0.004631180785905297,0.903
-0.004014229909304825,0.904
-0.00301178389459437,0.905
-0.0018318332161839732,0.906
-0.0006621635353017111,0.907
0.00036233102828082763,0.908
0.0011698502680471342,0.909
0.0017399581031598602,0.91
0.002065742803886868,0.911
0.0021075515719886887,0.912
0.001774364241703625,0.913
0.0009670156686056572,0.914
-0.00031217068761266224,0.915
-0.0018637919468632534,0.916
-0.0033163965815846607,0.917
-0.004261635566985487,0.918
-0.004404290690997869,0.919
-0.003664946468667689,0.92
-0.0021966812150606345,0.921
-0.00031097852091995133,0.922
0.0016235944121803377,0.923
0.003249017184066265,0.924
0.004256676757903516,0.925
0.004442259827274422,0.926
0.0037813633075966953,0.927
0.0024650703163588686,0.928
0.0008510761382693595,0.929
-0.0006464967230412387,0.93
-0.0016886157971370676,0.931
-0.0021210391467015874,0.932
-0.0020021933296768286,0.933
-0.0015332619930750672,0.934
-0.0009311416241399589,0.935
-0.0003199865203766411,0.936
0.00028778362968738026,0.937
0.0009291101801893912,0.938
0.0016100448461667128,0.939
0.002267882798048063,0.94
0.0027829959043747417,0.941
0.0030046100866333073,0.942
0.0027821550414412707,0.943
0.0020158754137935973,0.944
0.0007288593693254414,0.945
-0.0008847893299831386,0.946
-0.0025014767479375564,0.947
-0.0037890596518139804,0.948
-0.004517777798488701,0.949
-0.004596563496572201,0.95
-0.00406136487057885,0.951
-0.0030519757768771804,0.952
-0.0017718944789009408,0.953
-0.00044106094303808437,0.954
0.000734220124630221,0.955
0.0015761433163884566,0.956
0.0019646016951364986,0.957
0.0018861738548408358,0.958
0.0014610801195594008,0.959
0.0009200701250597938,0.96
0.000545593564924504,0.961
0.0005909642898436672,0.962
0.0011792581511270517,0.963
0.0022123528474838356,0.964
0.0033506363485220608,0.965
0.004111599192497305,0.966
0.00406841865527083,0.967
0.0030411594764332326,0.968
0.001174001792802771,0.969
-0.001112101459455356,0.97
-0.003244246361184075,0.971
-0.004667127369001325,0.972
-0.005015285193775423,0.973
-0.004222735431561236,0.974
-0.0025323047865125326,0.975
-0.00042135301537398563,0.976
0.0015156741176959123,0.977
0.0027246667628188104,0.978
0.002868828735463344,0.979
0.0019242496454317986,0.98
0.00014207381763983598,0.981
-0.0020583540102345173,0.982
-0.004191276274927859,0.983
-0.0057814957716011165,0.984
-0.006446322456666266,0.985
-0.006010554536994847,0.986
-0.004587892687158517,0.987
-0.002536355169414991,0.988
-0.00031425758827439504,0.989
0.0016880698202967445,0.99
0.003287164567721149,0.991
0.0045391254580969586,0.992
0.005621020913666433,0.993
0.006643998923325668,0.994
0.007550911406566691,0.995
0.008152217839019734,0.996
0.00823474802232941,0.997
0.00766094990240203,0.998
0.006421177660135392,0.999
0.004654497595101083,1.0
0.0026389068079078616,1.001
0.0007268457685869811,1.002
-0.0007611815591043607,1.003
-0.0016493077472329652,1.004
-0.001985529269538184,1.005
-0.0020346487303665884,1.006
-0.002179456051131555,1.007
-0.002795507358286709,1.008
-0.004140327276703284,1.009
-0.00625889432615764,1.01
-0.008938009889320713,1.011
-0.011749017630973408,1.012
-0.014170916006434994,1.013
-0.015729194302945906,1.014
-0.016077788029326513,1.015
-0.015028707639157536,1.016
-0.012576858705136772,1.017
-0.008897980329612644,1.018
-0.004278137870202084,1.019
0.0009762503597555463,1.02
0.006569595853378808,1.021
0.012160204030800868,1.022
0.017255628107984405,1.023
0.021196016185882204,1.024
0.02331181015663777,1.025
0.023151813320456145,1.026
0.020633363573966286,1.027
0.016062325433182045,1.028
0.010052185492423812,1.029
0.0034104745392295305,1.03
-0.002970177560880137,1.031
-0.008215894469939236,1.032
-0.011569791713516615,1.033
-0.012506365123455647,1.034
-0.010890599040217816,1.035
-0.00713705987652416,1.036
-0.00223689989289276,1.037
0.0024652819244629235,1.038
0.005703498087319173,1.039
0.0067061596576049745,1.04
0.005378648127887116,1.041
0.0022155254024110818,1.042
-0.001942333298840621,1.043
-0.006156618969320158,1.044
-0.00957700483171032,1.045
-0.011576070307870858,1.046
-0.01185233446080423,1.047
-0.01047841644185712,1.048
-0.007846785540080826,1.049
-0.004530255929797234,1.05
-0.0011352968364819322,1.051
0.001801665464193064,1.052
0.003874638078024444,1.053
0.004857056683887583,1.054
0.004747349021271684,1.055
0.003767785483449383,1.056
0.0022847052016,1.057
0.0006834876186826212,1.058
-0.000737124517818229,1.059
-0.00180757079097566,1.06
-0.002453394961811225,1.061
-0.0026197965626566276,1.062
-0.0022261493442153166,1.063
-0.0012003762626641387,1.064
0.0004252468974290636,1.065
0.002432803253870382,1.066
0.004432202341154453,1.067
0.006006981967730976,1.068
0.006914910556454153,1.069
0.007183890366788131,1.07
0.007031667983418818,1.071
0.006689118398775129,1.072
0.006258367447211583,1.073
0.005675045977138032,1.074
0.00476049831371266,1.075
0.003312263717607249,1.076
0.001182790941976423,1.077
-0.0016703856624360313,1.078
-0.005135408564357896,1.079
-0.008895596070450661,1.08
-0.0124186066388773,1.081
-0.015013133023152228,1.082
-0.015977463868076185,1.083
-0.014811844556110837,1.084
-0.01139027845843006,1.085
-0.006031147769412204,1.086
0.0005298894924855048,1.087
0.007261546808608792,1.088
0.013039177183939115,1.089
0.016887153692079063,1.09
0.018199458591104528,1.091
0.016863227366581666,1.092
0.01324623456137856,1.093
0.008077202634246888,1.094
0.0022765001377371137,1.095
-0.003225549233506425,1.096
-0.007661056620370079,1.097
-0.010539417582762584,1.098
-0.01165780107896572,1.099
-0.011040809231238386,1.1
-0.008894105484417021,1.101
-0.005603906854154734,1.102
-0.0017433183987108744,1.103
0.0019783596132286817,1.104
0.004851375778296972,1.105
0.006321270141320867,1.106
0.006075290583343991,1.107
0.0040575736070855885,1.108
0.00047239804496896937,1.109
-0.004194751542149923,1.11
-0.009171803340252124,1.111
-0.01346422904107712,1.112
-0.01601524086817673,1.113
-0.01595690019453704,1.114
-0.012899643548364257,1.115
-0.007144980935004495,1.116
0.0002962464249932485,1.117
0.007926407262311396,1.118
0.01418224306119969,1.119
0.017902299736651257,1.12
0.018641347041530452,1.121
0.016735974345783774,1.122
0.0131269916372408,1.123
0.008990844685268971,1.124
0.005331900696370358,1.125
0.0027281932006332074,1.126
0.0012991425607663093,1.127
0.0008338095483534702,1.128
0.0009718834643308477,1.129
0.0013322572435021636,1.13
0.0015629925650815937,1.131
0.0013681473043377888,1.132
0.0005419776594605825,1.133
-0.0010013919672604166,1.134
-0.0032039491488988292,1.135
-0.005848155297588509,1.136
-0.008572427446277418,1.137
-0.01093599145104929,1.138
-0.012513802215014656,1.139
-0.012984394027536025,1.14
-0.012208501527899384,1.141
-0.010284449883535926,1.142
-0.007522757218510532,1.143
-0.0043379146986078105,1.144
-0.001126324416344586,1.145
0.0018139754317461655,1.146
0.0042971897673232526,1.147
0.006202542841350356,1.148
0.0074218068013601176,1.149
0.007868523154297228,1.15
0.0075390341746958255,1.151
0.006552060306609451,1.152
0.005142288334724252,1.153
0.0036309007226448375,1.154
0.0023649851299604747,1.155
0.0016159067194681863,1.156
0.0014808117348536778,1.157
0.001854540467255562,1.158
0.002486562118797837,1.159
0.0030735474378343268,1.16
0.0033397501208675675,1.161
0.0030895565270002297,1.162
0.002234845570273126,1.163
0.0008037402034052883,1.164
-0.0010641407453315592,1.165
-0.0031343415851538365,1.166
-0.00511122903937826,1.167
-0.006694364189515755,1.168
-0.007657350025366375,1.169
-0.007923499816143474,1.17
-0.007591674762985626,1.171
-0.006873303465705907,1.172
-0.005944867026392326,1.173
-0.004811464355676855,1.174
-0.003301668537501531,1.175
-0.0012111948131883234,1.176
0.0015144498421566185,1.177
0.004692299723069072,1.178
0.00792780485507513,1.179
0.010692389563320788,1.18
0.01242336746942536,1.181
0.012643206652645435,1.182
0.011076916306962808,1.183
0.007734903045324815,1.184
0.002947726243452268,1.185
-0.0026617127043749686,1.186
-0.008275182063099367,1.187
-0.013007417810557158,1.188
-0.016032623461510926,1.189
-0.016725128073965822,1.19
-0.014824441705886371,1.191
-0.010547517501542312,1.192
-0.00455917921674054,1.193
0.002172141134023774,1.194
0.008553298110246807,1.195
0.01354038199884482,1.196
0.016297919646225657,1.197
0.016347722015095944,1.198
0.013702041903327963,1.199
0.008916103011430417,1.2
0.002997874364719955,1.201
-0.0027974515781420076,1.202
-0.007239262174284093,1.203
-0.00941354887185684,1.204
-0.00895427641729598,1.205
-0.006144794873044167,1.206
-0.0018551073310975586,1.207
0.0027039470149287366,1.208
0.006359877324133952,1.209
0.008323225210811951,1.21
0.008329672423013806,1.211
0.0065620498989718366,1.212
0.003481671149731848,1.213
-0.00030473842490529046,1.214
