VaMe,time
0.00014136338729047777,0.001
0.0026110134412879005,0.002
0.0046150876961007,0.003
0.0057945082000197155,0.004
0.005973649167201922,0.005
0.005215082217062118,0.006
0.0038077351742198846,0.007
0.0021673239919305894,0.008
0.0006960543328946879,0.009
-0.000330635336154979,0.01
-0.0008087755720214341,0.011
-0.0007894524639877074,0.012
-0.00043566641979678015,0.013
2.956698317551002e-05,0.014
0.0003863604684514614,0.015
0.00048420050797439243,0.016
0.00028365287092303173,0.017
-0.0001461065582175556,0.018
-0.0006653495097736441,0.019
-0.001106272346681141,0.02
-0.001308457616659342,0.021
-0.0011583077009615465,0.022
-0.0006290933013365776,0.023
0.0001938839810581448,0.024
0.0011290765959826637,0.025
0.0019653763600872677,0.026
0.0025430944628381125,0.027
0.002805939703002051,0.028
0.0028067380041272494,0.029
0.002659572991730154,0.03
0.002456566672560751,0.031
0.0022089530109106314,0.032
0.0018499186678364822,0.033
0.0012883815083390613,0.034
0.00048332901557849727,0.035
-0.0005108278225700641,0.036
-0.001562620911500585,0.037
-0.002518930341385446,0.038
-0.003245401315690346,0.039
-0.0036434684830622377,0.04
-0.0036649283597854493,0.041
-0.003330043615276293,0.042
-0.0027327372851320545,0.043
-0.002008784807073636,0.044
-0.0012805949565281478,0.045
-0.000620586854882206,0.046
-4.5626266697561794e-05,0.047
0.00046947632811695204,0.048
0.000960256810582351,0.049
0.0014372378317242126,0.05
0.001880635524421282,0.051
0.0022505931215024157,0.052
0.002480844437712724,0.053
0.0024772863112427178,0.054
0.002152826975956303,0.055
0.0014827803156460327,0.056
0.000539393419345362,0.057
-0.0005180722755840329,0.058
-0.001496382822469622,0.059
-0.0022278534267654933,0.06
-0.0026027045265589193,0.061
-0.002582833797400171,0.062
-0.0021995388397742905,0.063
-0.0015357984156465663,0.064
-0.0007017750666236617,0.065
0.00019613164563717534,0.066
0.0010737670025970205,0.067
0.0018631562352834237,0.068
0.0025010875443577923,0.069
0.0029230973705367813,0.07
0.0030610178272617266,0.071
0.0028598485375038833,0.072
0.0023240629592982546,0.073
0.0015532648281543747,0.074
0.0007176274319718446,0.075
-1.474909383277257e-05,0.076
-0.0005375474798967599,0.077
-0.0008171688140868372,0.078
-0.000883834742325287,0.079
-0.000832042859868114,0.08
-0.0007982389428662346,0.081
-0.0008952604461607682,0.082
-0.0011518042567147915,0.083
-0.0014955373131353988,0.084
-0.0017732247625878307,0.085
-0.0018124757024290125,0.086
-0.0015110563151537351,0.087
-0.0008910956356887236,0.088
-8.626096034720769e-05,0.089
0.0007184769340427488,0.09
0.0013585866263455036,0.091
0.001740915137592699,0.092
0.001863380259707304,0.093
0.0018051993876880212,0.094
0.0016881424595534518,0.095
0.0016127686194753518,0.096
0.0016016428727411147,0.097
0.0015921383790106214,0.098
0.0014832595659442773,0.099
0.0012058536393310096,0.1
0.0007621574684978639,0.101
0.0001995836249661262,0.102
-0.00044102110361126127,0.103
-0.0011341583017321537,0.104
-0.001829608022475879,0.105
-0.002420937948870242,0.106
-0.002766847419218826,0.107
-0.002751032389578596,0.108
-0.0023318700410014585,0.109
-0.0015520509366877008,0.11
-0.0005235875585783257,0.111
0.0005800745112218652,0.112
0.0015373284356380522,0.113
0.0021395591164665123,0.114
0.0022747880761435284,0.115
0.001970683807364339,0.116
0.0013874798574749078,0.117
0.0007651751123915179,0.118
0.0003318799751670698,0.119
0.00021693307240892962,0.12
0.00041604975520040984,0.121
0.0008069136173994524,0.122
0.0011807414635243076,0.123
0.001303408861180105,0.124
0.0010187293184081452,0.125
0.000333356906428358,0.126
-0.0005715245269564599,0.127
-0.0014092121402864172,0.128
-0.0019015933594473398,0.129
-0.0018831255015097153,0.13
-0.0013629522946061352,0.131
-0.0005224969750011441,0.132
0.0003533072381963107,0.133
0.0009817349155892714,0.134
0.0011870990731004689,0.135
0.0009594697267576056,0.136
0.00043694536543894364,0.137
-0.00017293215950837007,0.138
-0.0006791001968207785,0.139
-0.0009621617753421648,0.14
-0.000987072685410848,0.141
-0.0007711605994262657,0.142
-0.0003489485155038905,0.143
0.0002211399623985521,0.144
0.0008291328684317574,0.145
0.0013180889748545025,0.146
0.001535762753809523,0.147
0.0013979529299211974,0.148
0.0009323464259520212,0.149
0.00028590460446051237,0.15
-0.0003201518846687988,0.151
-0.000676703361425175,0.152
-0.0006705647028341002,0.153
-0.0003196616349417711,0.154
0.0002497095440819265,0.155
0.0008661266141337745,0.156
0.0013864214652505686,0.157
0.001734655565618379,0.158
0.0018878051493464029,0.159
0.0018318471000065512,0.16
0.001534170317364462,0.161
0.0009658718982729118,0.162
0.0001601711100105985,0.163
-0.0007534526628242818,0.164
-0.0015834337027614903,0.165
-0.002146678761377467,0.166
-0.0023286974485783765,0.167
-0.0021185714334021645,0.168
-0.0016025062572328408,0.169
-0.0009212686996664897,0.17
-0.0002304121005874924,0.171
0.0003193098415696904,0.172
0.00060932273242277,0.173
0.0006009730247894203,0.174
0.00035984313284495454,0.175
2.6960288069264243e-05,0.176
-0.00024061824261527518,0.177
-0.0003302406985647129,0.178
-0.00021940324371212517,0.179
1.0695557026937154e-05,0.18
0.0002155093504930934,0.181
0.00027523094021001955,0.182
0.00017975626768584858,0.183
4.5471622097341006e-05,0.184
5.000764907045534e-05,0.185
0.00034006552312192763,0.186
0.0009619351532251864,0.187
0.0018279797719417288,0.188
0.002729763373306772,0.189
0.0033986961393416494,0.19
0.003588500156787802,0.191
0.0031535080408037564,0.192
0.0021132169100898115,0.193
0.0006748045121840222,0.194
-0.0008310779085658719,0.195
-0.0020839914798845218,0.196
-0.0028927463721297366,0.197
-0.0032337857919113883,0.198
-0.003199676165199209,0.199
-0.0029023545282158953,0.2
-0.0024022183922272327,0.201
-0.001700667303676124,0.202
-0.0007816012828296946,0.203
0.00033792165946124866,0.204
0.0015782979339258815,0.205
0.0027905910908913455,0.206
0.0037669160428696865,0.207
0.004273975238579555,0.208
0.004118780483970216,0.209
0.0032323676063207452,0.21
0.0017211567370804114,0.211
-0.00014544186779779362,0.212
-0.002004335172267704,0.213
-0.0035076349229283808,0.214
-0.00442016390207952,0.215
-0.004651308243315281,0.216
-0.004237332744036568,0.217
-0.0033151848450905666,0.218
-0.0020815011414595584,0.219
-0.0007372388644535743,0.22
0.0005442200128018698,0.221
0.001612453850680339,0.222
0.002331078447518609,0.223
0.0026087336059622563,0.224
0.0024581991973657027,0.225
0.0020241788080679144,0.226
0.0015475240800443886,0.227
0.0012635626573405316,0.228
0.0012790631973407488,0.229
0.001520159347886289,0.23
0.001795965168689807,0.231
0.001915793242993806,0.232
0.0017716914782566252,0.233
0.001353113779246959,0.234
0.0007077952869915169,0.235
-9.378886286343682e-05,0.236
-0.0009505587194688636,0.237
-0.0017081294585087282,0.238
-0.00217402106497969,0.239
-0.002189689755447538,0.24
-0.0017104031866592006,0.241
-0.0008335843002328802,0.242
0.00023705513916573732,0.243
0.0012638449323167887,0.244
0.0020417978840793958,0.245
0.002435984942575401,0.246
0.002386730715318208,0.247
0.0018984078709735448,0.248
0.001030569570591159,0.249
-9.847578990929669e-05,0.25
-0.001304371999054457,0.251
-0.002359378962459451,0.252
-0.003043664577067148,0.253
-0.003196157828703588,0.254
-0.002766036813765155,0.255
-0.001853840286040793,0.256
-0.0007041187110358385,0.257
0.00037108818015100956,0.258
0.001112895485183796,0.259
0.001402662575984445,0.26
0.0012651760607406,0.261
0.0008205925971645274,0.262
0.00022774536608019365,0.263
-0.00037420429855371305,0.264
-0.0009036590077216012,0.265
-0.0013151708127456308,0.266
-0.0015430181079273309,0.267
-0.0014844211008195642,0.268
-0.0010463851710432405,0.269
-0.00021221993383664544,0.27
0.0009160857456631739,0.271
0.002121757160904628,0.272
0.003132206969803604,0.273
0.003708557595705663,0.274
0.0037261697726939393,0.275
0.003212969883621258,0.276
0.002328990741993413,0.277
0.0012966760706491429,0.278
0.00031661099040307725,0.279
-0.0004709889093056441,0.28
-0.0009721001832892959,0.281
-0.0011303704498138612,0.282
-0.0009387924038983856,0.283
-0.00044131066117371353,0.284
0.00028565718409823864,0.285
0.0011429096689618825,0.286
0.0019902802839315485,0.287
0.0026396421983110167,0.288
0.0028956842107215447,0.289
0.002619731322803152,0.29
0.0017726243927887173,0.291
0.00042896887686360826,0.292
-0.0012260522978979795,0.293
-0.002918737257615973,0.294
-0.004339540612596481,0.295
-0.005224326222318189,0.296
-0.005424218217499968,0.297
-0.0049363789622237,0.298
-0.003894951118736688,0.299
-0.0025084637080143883,0.3
-0.0009694646267844082,0.301
0.0005910922945774632,0.302
0.0020727464658111547,0.303
0.0033395371473133252,0.304
0.004195369803072609,0.305
0.0044365553123779785,0.306
0.003951141224480877,0.307
0.002806683440172494,0.308
0.0012687024219567799,0.309
-0.00027451892595183687,0.31
-0.0014586857982212174,0.311
-0.0020938025413615963,0.312
-0.002211432932072538,0.313
-0.001974614139327108,0.314
-0.001553135552892409,0.315
-0.0010684184544475534,0.316
-0.0005945194696764802,0.317
-0.000161077036577665,0.318
0.00023938980127201983,0.319
0.0006271954964466018,0.32
0.0010088929800754084,0.321
0.0013643984146870683,0.322
0.00165616722440228,0.323
0.001852420419199426,0.324
0.0019426571998625785,0.325
0.0019279485024603807,0.326
0.0017969926762050033,0.327
0.0015267249570350204,0.328
0.0011215522343398078,0.329
0.0006475895469381166,0.33
0.00021354341664839836,0.331
-8.890837479717394e-05,0.332
-0.00023826300940419528,0.333
-0.0002956925703178295,0.334
-0.00036311503991539673,0.335
-0.0005134908076908325,0.336
-0.0007451782551727075,0.337
-0.0009809330807615286,0.338
-0.0010969501407704675,0.339
-0.0009740567617632463,0.34
-0.0005653689042512867,0.341
5.7646202276267266e-05,0.342
0.0007206666282522654,0.343
0.0012200277898696892,0.344
0.0014100210280833315,0.345
0.0012510683772399384,0.346
0.0008001269807205006,0.347
0.00016568333180189362,0.348
-0.0005365820018607123,0.349
-0.0012042880670422595,0.35
-0.0017495656323439034,0.351
-0.0021016220572588097,0.352
-0.0022134507636926925,0.353
-0.0020601962139982434,0.354
-0.0016399586429317978,0.355
-0.0009872988013871992,0.356
-0.00018061200113950618,0.357
0.0006681027175410199,0.358
0.0014315335307231647,0.359
0.001983321395295481,0.36
0.002219054409042711,0.361
0.0020913249683577654,0.362
0.001641683691756409,0.363
0.0010061763563287936,0.364
0.00038289964732369966,0.365
-4.112142713616536e-05,0.366
-0.0001699804534264517,0.367
-2.7080849487380007e-05,0.368
0.0002871801597696406,0.369
0.0006687114934427558,0.37
0.001050372466972003,0.371
0.0013809930618125614,0.372
0.0015869939092671222,0.373
0.0015754766993201507,0.374
0.0012822587087940804,0.375
0.0007209588861977243,0.376
-7.3482256140882415e-06,0.377
-0.0007473032388379722,0.378
-0.0013501394708360728,0.379
-0.00173130962520608,0.38
-0.0018851992441248396,0.381
-0.0018599192040367242,0.382
-0.001724023035761278,0.383
-0.0015350394482198753,0.384
-0.0013111965129018114,0.385
-0.001020823954274064,0.386
-0.0006028049550212555,0.387
-1.6256198415955488e-05,0.388
0.0007081247138288803,0.389
0.001454100583161908,0.39
0.0020585734459756385,0.391
0.002383216015381197,0.392
0.002370376965148601,0.393
0.0020435501799445045,0.394
0.0014743958394018788,0.395
0.0007713912833115002,0.396
9.098673810747573e-05,0.397
-0.0003786365922399239,0.398
-0.0004812901372378681,0.399
-0.00017171988221095332,0.4
0.00044330563716079435,0.401
0.0011366040869418544,0.402
0.0016487608128779065,0.403
0.0017818455832855633,0.404
0.0014577978253306164,0.405
0.0007240179784299043,0.406
-0.0002796678189970446,0.407
-0.001359964087127084,0.408
-0.0023098355956851172,0.409
-0.00295847751352918,0.41
-0.003218532284173893,0.411
-0.003100057348314989,0.412
-0.002675127985440576,0.413
-0.0020245373312128257,0.414
-0.0012175562398290367,0.415
-0.00032897944278403965,0.416
0.0005495219480526445,0.417
0.0013285094520943516,0.418
0.0019535217482257844,0.419
0.0024168729442422265,0.42
0.0027249766801129825,0.421
0.0028532568648676543,0.422
0.002752589429749651,0.423
0.0024107248762629146,0.424
0.0018889958047857193,0.425
0.001278771145705382,0.426
0.0006361723557997969,0.427
-2.0772955775875582e-05,0.428
-0.0006568864731869454,0.429
-0.001184707792827854,0.43
-0.001499314220957642,0.431
-0.0015432522429660886,0.432
-0.0013399430264777925,0.433
-0.0009768649724062703,0.434
-0.0005587301596870792,0.435
-0.0001740360739879965,0.436
0.00010641838390879895,0.437
0.0002318909713861894,0.438
0.00018988003719704424,0.439
5.900703757743793e-06,0.44
-0.00027782565414235377,0.441
-0.0006093136609313785,0.442
-0.0009181946676552317,0.443
-0.0011208014306006518,0.444
-0.0011455688233035755,0.445
-0.000951205203762286,0.446
-0.0005255227302878508,0.447
0.0001110461950635244,0.448
0.0008918621586540178,0.449
0.0017060144725389308,0.45
0.0024169280269335045,0.451
0.00288389916997952,0.452
0.0029908485143082275,0.453
0.0026790424935811672,0.454
0.001979372440962169,0.455
0.0010363201428268847,0.456
8.4602439017715e-05,0.457
-0.0006368538543172565,0.458
-0.0009797922931737114,0.459
-0.000928166933711711,0.46
-0.0005809858920061018,0.461
-0.00011041011532237464,0.462
0.0002873750081844316,0.463
0.00044823869540731626,0.464
0.0002838360015286217,0.465
-0.00020069160466679699,0.466
-0.0009031043814224254,0.467
-0.001639111675817315,0.468
-0.002192782342215519,0.469
-0.002389750725926621,0.47
-0.0021556551300795554,0.471
-0.0015370032691682976,0.472
-0.0006825042282775099,0.473
0.00022241834796429976,0.474
0.0010387033176706493,0.475
0.0017061338579720195,0.476
0.002216275585361641,0.477
0.0025655805919697424,0.478
0.002718279362019078,0.479
0.002609014882689244,0.48
0.0021915111259026812,0.481
0.0014909255078360626,0.482
0.0006051657577704894,0.483
-0.0003352809234016252,0.484
-0.0011857064320690274,0.485
-0.001789938090529824,0.486
-0.002020010710454495,0.487
-0.0018373685178649038,0.488
-0.0013185798576981819,0.489
-0.0006199977966411981,0.49
9.049696726456769e-05,0.491
0.0006852093345169494,0.492
0.001093892834257571,0.493
0.0013042635705541104,0.494
0.0013569893632329204,0.495
0.0013198296329553483,0.496
0.0012419609445555794,0.497
0.0011279966143991557,0.498
0.000953390426692512,0.499
0.0006878426836448799,0.5
0.000294703450325446,0.501
-0.000265015307706526,0.502
-0.0009845537248138923,0.503
-0.0017547016311176555,0.504
-0.0023776698319661707,0.505
-0.002658324534778547,0.506
-0.002494294165653694,0.507
-0.0019032181516387308,0.508
-0.0009985621251673814,0.509
4.7792576966649105e-05,0.51
0.0010467835661631538,0.511
0.0018281325126628758,0.512
0.0022563794754421242,0.513
0.002246062736377026,0.514
0.00178624538116012,0.515
0.0009609873835490985,0.516
-4.185927807142387e-05,0.517
-0.0009563851836110746,0.518
-0.0015105315384524862,0.519
-0.0015130790098941225,0.52
-0.0009188210532348289,0.521
0.00014631960139002798,0.522
0.0014067858972977348,0.523
0.002507282855540126,0.524
0.0031127559211890387,0.525
0.0029995785667448825,0.526
0.0021152337793480048,0.527
0.0006063888983816825,0.528
-0.001191396216328209,0.529
-0.0028193154202957116,0.53
-0.0038161280186516074,0.531
-0.0038594448269817574,0.532
-0.0028654959974254587,0.533
-0.0010035900193908628,0.534
0.0013509281978837289,0.535
0.0036813534751082067,0.536
0.005419105162221437,0.537
0.0060770997322265345,0.538
0.005401450767521689,0.539
0.003478694765664125,0.54
0.000733838523635555,0.541
-0.002189205335800722,0.542
-0.004608866654946962,0.543
-0.0059906131226260435,0.544
-0.006087428536251699,0.545
-0.004986268384664033,0.546
-0.0030397515059179263,0.547
-0.000722451246753128,0.548
0.001510053950496614,0.549
0.0033119770862130365,0.55
0.004481774991766914,0.551
0.004947450939180037,0.552
0.004735534128425114,0.553
0.003951262802721092,0.554
0.0027626239422703365,0.555
0.001379262704317902,0.556
2.4098582723061914e-05,0.557
-0.001112946742443685,0.558
-0.001933987402554175,0.559
-0.0024595692060964155,0.56
-0.002788051280765153,0.561
-0.003013011637398509,0.562
-0.0031573549912198833,0.563
-0.0031670378846823644,0.564
-0.0029495561838832735,0.565
-0.00241915889799149,0.566
-0.0015473807509822919,0.567
-0.00041189145029939755,0.568
0.0007971236320674232,0.569
0.001830957584784084,0.57
0.0024716439041835903,0.571
0.002615651423701118,0.572
0.002312445183873834,0.573
0.0017318426376211258,0.574
0.0010763968948490593,0.575
0.0005010729406364224,0.576
8.483868628799268e-05,0.577
-0.0001525289693478638,0.578
-0.00021345943806082857,0.579
-9.469653892589012e-05,0.58
0.00020532633123526554,0.581
0.0006539680056125084,0.582
0.0011678175976007068,0.583
0.0016243086717853236,0.584
0.0018845580573198695,0.585
0.0018338515226703296,0.586
0.0014367728375316749,0.587
0.0007611726397284599,0.588
-4.332889479569498e-05,0.589
-0.0007849008123695872,0.59
-0.0012792592393709506,0.591
-0.0014024434188840153,0.592
-0.0011253588628273993,0.593
-0.0005184679131005874,0.594
0.0002685939748307769,0.595
0.0010392814149228914,0.596
0.0015908082945418664,0.597
0.0017597435015868394,0.598
0.0014620295276003292,0.599
0.0007263563687268967,0.6
-0.00028920242088994444,0.601
-0.0013309965985305588,0.602
-0.002135682426036392,0.603
-0.002511161432162822,0.604
-0.002371649419058761,0.605
-0.0017420954263895466,0.606
-0.000749121300030474,0.607
0.00040976720334634487,0.608
0.0015116296213851371,0.609
0.002347966435581512,0.61
0.002761246179475458,0.611
0.0026714263445821317,0.612
0.0020811463998962015,0.613
0.0010757921766246287,0.614
-0.00018341283679732865,0.615
-0.001489630126145922,0.616
-0.0026320420373355364,0.617
-0.003424923129908287,0.618
-0.003722649994176659,0.619
-0.0034457918746826294,0.62
-0.0026132329914014913,0.621
-0.0013459786711406871,0.622
0.00015685804359688864,0.623
0.001643954606820747,0.624
0.00283344190466445,0.625
0.0034620115821151322,0.626
0.0033811929864615443,0.627
0.002654857087581767,0.628
0.0015781198074781863,0.629
0.0005759877762829828,0.63
2.6948552787987246e-05,0.631
0.00010782771050955697,0.632
0.0007394121249723374,0.633
0.0016492196656058677,0.634
0.002493294256347326,0.635
0.002968939056069468,0.636
0.0028840993782702925,0.637
0.002180945613203044,0.638
0.0009343347243458507,0.639
-0.000668657496817041,0.64
-0.002368167769359856,0.641
-0.003876657083007157,0.642
-0.004929031710724976,0.643
-0.005335368027906407,0.644
-0.005018219727330003,0.645
-0.004021194403233102,0.646
-0.002484877399365904,0.647
-0.0006069786077466204,0.648
0.0013793980709171615,0.649
0.0032062818795819217,0.65
0.004592248304231348,0.651
0.005301565614702302,0.652
0.005199453398564546,0.653
0.004283023117226772,0.654
0.002707762165731724,0.655
0.0007941371540039523,0.656
-0.0010275564109412008,0.657
-0.0023414535045583073,0.658
-0.0028901695676225446,0.659
-0.0026597308486342184,0.66
-0.0018709594808335292,0.661
-0.0008875301786943589,0.662
-6.739354104959972e-05,0.663
0.0003743662813101499,0.664
0.00041582661354720046,0.665
0.00017562217353521626,0.666
-0.00018140394062497297,0.667
-0.0005079816130391473,0.668
-0.0006988373945569633,0.669
-0.0006977868265477429,0.67
-0.0004959624798793067,0.671
-0.0001148796839244088,0.672
0.0004196882618684271,0.673
0.001074734647370438,0.674
0.0017727774519084025,0.675
0.0023767756554908545,0.676
0.002723650728732686,0.677
0.002670791432875805,0.678
0.0021420330066249343,0.679
0.0011820440158521962,0.68
-2.501555920809433e-05,0.681
-0.0012126647322956345,0.682
-0.0021225142408567046,0.683
-0.002567185374604017,0.684
-0.002461185222580407,0.685
-0.0018387888275296996,0.686
-0.0008440075481626103,0.687
0.00032867127289564087,0.688
0.0015040233006523836,0.689
0.0025372836130304124,0.69
0.0032798598278248672,0.691
0.0035714599855509433,0.692
0.0032753209191789226,0.693
0.0023348131106431217,0.694
0.0008230633729167213,0.695
-0.0010432710748838852,0.696
-0.0029345839065748913,0.697
-0.004480561606823536,0.698
-0.005367888200052351,0.699
-0.005430269768866899,0.7
-0.004679703767925153,0.701
-0.0032637697093319965,0.702
-0.001404617900746008,0.703
0.0006308287174774685,0.704
0.0025380020251633186,0.705
0.004007864645050803,0.706
0.004800676647058092,0.707
0.004820865891505894,0.708
0.0041553341674620825,0.709
0.003048404517111057,0.71
0.0018095849916108353,0.711
0.0007015081612691443,0.712
-0.0001221634764449829,0.713
-0.0006247427470277552,0.714
-0.0008698212076612669,0.715
-0.0009736314744252462,0.716
-0.0010562073571173348,0.717
-0.001220079740141136,0.718
-0.0015214398577678213,0.719
-0.0019204274972838907,0.72
-0.0022567753966788854,0.721
-0.0022985625979709892,0.722
-0.0018584075510920943,0.723
-0.0009063164522566517,0.724
0.0004048049444513067,0.725
0.0017967201166188991,0.726
0.0029524200419805665,0.727
0.0036134119872021646,0.728
0.00366258110325481,0.729
0.0031508732456915992,0.73
0.002246372975740577,0.731
0.0011433770615095038,0.732
-5.5564263515409985e-06,0.733
-0.0011091315475735062,0.734
-0.0021038229446204908,0.735
-0.002897563704805955,0.736
-0.0033525444997804274,0.737
-0.003336556653971436,0.738
-0.002792276672770803,0.739
-0.0017614437338890434,0.74
-0.0003799862517461526,0.741
0.0011325288359020783,0.742
0.0025078797999453627,0.743
0.003498847100660717,0.744
0.003954545011742079,0.745
0.0038529465513277,0.746
0.0032805564471231267,0.747
0.0023890960644293163,0.748
0.0013521842915880356,0.749
0.0003233052998718184,0.75
-0.0005967338160577868,0.751
-0.0013657719564966636,0.752
-0.0019830055083153646,0.753
-0.0024591376434790055,0.754
-0.002780560153918217,0.755
-0.0028863188070080838,0.756
-0.002686022108807988,0.757
-0.0021159011596883887,0.758
-0.001186994134376636,0.759
1.7388336888991818e-06,0.76
0.001267789175391334,0.761
0.0023642108253547674,0.762
0.0030389030380119477,0.763
0.0031125393693928424,0.764
0.0025233377021936457,0.765
0.0013447392789025774,0.766
-0.0002049318165464983,0.767
-0.0017890482404649194,0.768
-0.0030340806734190256,0.769
-0.0036381004348040253,0.77
-0.0034656863705386843,0.771
-0.0025843572905837444,0.772
-0.001215367183426101,0.773
0.00036132299127413533,0.774
0.001888271375404211,0.775
0.003175469341154212,0.776
0.004103665839637669,0.777
0.004604555964013037,0.778
0.004653374094150923,0.779
0.004266620112300347,0.78
0.003484557393990017,0.781
0.0023649936346965424,0.782
0.0010005301272130033,0.783
-0.000464133070522432,0.784
-0.0018308532040133471,0.785
-0.002877418287548586,0.786
-0.0034191646654413554,0.787
-0.0033771413585222372,0.788
-0.0028191487122699753,0.789
-0.0019479569839300993,0.79
-0.0010325291967416266,0.791
-0.0003192850306075704,0.792
3.225887720620179e-05,0.793
-2.384688323012516e-05,0.794
-0.0004258989578324521,0.795
-0.0010140021162002829,0.796
-0.0015438696129080386,0.797
-0.0017449689148422317,0.798
-0.0014122761338984805,0.799
-0.0004898547465029937,0.8
0.0008897404065827795,0.801
0.002443993046086004,0.802
0.0038419118628364567,0.803
0.004799574326205857,0.804
0.005126218419329615,0.805
0.004736432146664627,0.806
0.0036580560940076825,0.807
0.0020461430454709983,0.808
0.00017798569194209785,0.809
-0.0016085330787148082,0.81
-0.003020754616535932,0.811
-0.003886840185054641,0.812
-0.004160838351637346,0.813
-0.0039019585804461318,0.814
-0.003251096266942351,0.815
-0.0023844768812724235,0.816
-0.0014575723609838367,0.817
-0.0005713271088733595,0.818
0.00021888332751986183,0.819
0.0008674974413733962,0.82
0.0013216485220454567,0.821
0.001528749697288622,0.822
0.0014490802203457605,0.823
0.0010802757073622542,0.824
0.0004904248759417399,0.825
-0.000170827969816954,0.826
-0.0006959366810512258,0.827
-0.0008762262341023366,0.828
-0.000588230695685775,0.829
0.000134867811631623,0.83
0.0010978622682633985,0.831
0.0020059428758018834,0.832
0.0025829767908499106,0.833
0.0026953860265000813,0.834
0.0023910309778377406,0.835
0.0018481385598294322,0.836
0.0012952221192405215,0.837
0.000916095015670909,0.838
0.0007643492568290183,0.839
0.0007514940674002849,0.84
0.0007109883134107271,0.841
0.0004929678543043935,0.842
5.181474557856879e-05,0.843
-0.0005284244025083149,0.844
-0.0010916803081209576,0.845
-0.0014941082557232024,0.846
-0.0016517316159992586,0.847
-0.0015424590009012842,0.848
-0.001194781698304804,0.849
-0.0006778021451450339,0.85
-8.517962306504192e-05,0.851
0.00047743994281010827,0.852
0.0009062360167142075,0.853
0.0011353072480273685,0.854
0.0011748160121804005,0.855
0.0011113967776339446,0.856
0.001052940314049082,0.857
0.0010344173761719225,0.858
0.0009585317245959085,0.859
0.0006409364906507633,0.86
-6.399422659959632e-05,0.861
-0.0011476241842766745,0.862
-0.0024225838097804877,0.863
-0.0036008551237733132,0.864
-0.0044082756057199825,0.865
-0.00466048141593752,0.866
-0.00428328589155667,0.867
-0.0033074737231836996,0.868
-0.0018572858639714222,0.869
-0.00013074931956026477,0.87
0.0016273589718596342,0.871
0.003153008502694041,0.872
0.004198229818703777,0.873
0.004594476518293884,0.874
0.004319726267793583,0.875
0.003509995025743693,0.876
0.002398076530112722,0.877
0.001220137394477859,0.878
0.00015963567576593557,0.879
-0.0006389361542773694,0.88
-0.001044825633804608,0.881
-0.0009750746270056454,0.882
-0.00046366819860943086,0.883
0.00031356641305445,0.884
0.0010913518752591214,0.885
0.00161957995386514,0.886
0.0017733342492235,0.887
0.0016048141373699318,0.888
0.001290671654367517,0.889
0.0010070801732338075,0.89
0.0008212137531236573,0.891
0.0006653172103295635,0.892
0.00039181768744004947,0.893
-0.00012720420249243703,0.894
-0.0008973910369263662,0.895
-0.0017668792392045308,0.896
-0.0024900035437032736,0.897
-0.002833188859132643,0.898
-0.0026642963811373092,0.899
-0.0020012029409448425,0.9
-0.0010044413821226653,0.901
9.256406164717793e-05,0.902
0.0010768319303894665,0.903
0.0018124614802148518,0.904
0.0022510778471371714,0.905
0.002416377627684156,0.906
0.0023776877251545964,0.907
0.002208933296195338,0.908
0.0019364814593182322,0.909
0.0015257320834411272,0.91
0.0009315140914735527,0.911
0.00017364469253546662,0.912
-0.0006212444353787978,0.913
-0.0012533284039831184,0.914
-0.0015395127987460429,0.915
-0.0014002448922400576,0.916
-0.0009084416880227712,0.917
-0.0002877080832202403,0.918
0.00014988006935896158,0.919
0.0001113733895651774,0.92
-0.0005658662713055577,0.921
-0.0018490840467920205,0.922
-0.003503103616007144,0.923
-0.00512597252513813,0.924
-0.006251817352351177,0.925
-0.006508151345898081,0.926
-0.005746631635984622,0.927
-0.004097775057606567,0.928
-0.0019398372353284907,0.929
0.00021728763478538334,0.93
0.0019176300171119588,0.931
0.002938475035120438,0.932
0.0033572795133946383,0.933
0.0034848617831872,0.934
0.0037215345775205044,0.935
0.0043905691998747,0.936
0.005593385826690396,0.937
0.0071528122795517825,0.938
0.0086720742543184,0.939
0.009670460568710373,0.94
0.009758176842452487,0.941
0.008784538012863262,0.942
0.0068799974289289354,0.943
0.00438675094569033,0.944
0.0017283248069804682,0.945
-0.0007225878232974553,0.946
-0.0027275327743727816,0.947
-0.004195080460539049,0.948
-0.005146994061641944,0.949
-0.005678012723362489,0.95
-0.0059165127505687925,0.951
-0.00595839687721415,0.952
-0.005787980152450757,0.953
-0.00527268728984332,0.954
-0.0042684179645263234,0.955
-0.0027789603536528523,0.956
-0.0010675570508341802,0.957
0.00038246460397296485,0.958
0.001061610064623134,0.959
0.0006785473242923764,0.96
-0.000688612768808664,0.961
-0.002621990434040883,0.962
-0.004532737631676897,0.963
-0.005878203859512284,0.964
-0.006347807054927937,0.965
-0.005942987820296344,0.966
-0.004919281500028399,0.967
-0.0036271795919034238,0.968
-0.0023372332337806925,0.969
-0.0011192764608162476,0.97
0.00017323953425772573,0.971
0.0017684786425900686,0.972
0.003759089916023995,0.973
0.005963139236855447,0.974
0.00794449298065201,0.975
0.00917648733385702,0.976
0.00927126109324771,0.977
0.008142247294288096,0.978
0.006011009989889393,0.979
0.0033005397686541524,0.98
0.000515769203037769,0.981
-0.0018363322760439826,0.982
-0.003290792627293901,0.983
-0.0034757577268491146,0.984
-0.0021865032332970716,0.985
0.0005408261624487781,0.986
0.004349268095583351,0.987
0.008518123109704573,0.988
0.012058383603197685,0.989
0.01397575877331063,0.99
0.013607369854246118,0.991
0.010842239440392266,0.992
0.006108724538745584,0.993
0.0001966070704776373,0.994
-0.00595890166642817,0.995
-0.011456582121434914,0.996
-0.015548177211685187,0.997
-0.017710961026947407,0.998
-0.017709350142470184,0.999
-0.015647523571406963,1.0
-0.011975999031134124,1.001
-0.0074325773166962926,1.002
-0.002908463010727204,1.003
0.0007578333233437349,1.004
0.002994401656435932,1.005
0.0036319097960920404,1.006
0.0029335893176381635,1.007
0.0015316430672190622,1.008
0.000250741489364418,1.009
-0.0001888390670115688,1.01
0.0005344362382401048,1.011
0.0022233765197300476,1.012
0.004267432671347497,1.013
0.005908889748161238,1.014
0.006551244289756827,1.015
0.0059688507735679895,1.016
0.004330376931212829,1.017
0.002064930697676448,1.018
-0.00031879420488653944,1.019
-0.002365568045233304,1.02
-0.0037298614956943555,1.021
-0.004180008716124958,1.022
-0.0036063837287842377,1.023
-0.0020561877545475886,1.024
0.00023519293925701812,1.025
0.002839000831378543,1.026
0.005183017859681919,1.027
0.006687724981855499,1.028
0.00695804075262456,1.029
0.00594417316695229,1.03
0.003973684699542781,1.031
0.001616152470403971,1.032
-0.0005407213296524773,1.033
-0.00207157693112953,1.034
-0.002775418442905783,1.035
-0.002629579448547398,1.036
-0.0017090004127397098,1.037
-0.00015059131583394073,1.038
0.00182564333066991,1.039
0.0038845976084517847,1.04
0.0055818933713068074,1.041
0.006438003862173152,1.042
0.006076844743756633,1.043
0.0043777913329288995,1.044
0.0015595810972061127,1.045
-0.0018546022161757927,1.046
-0.005184750771044058,1.047
-0.007809792202288596,1.048
-0.009367398064217113,1.049
-0.009854295978074284,1.05
-0.009594983609054242,1.051
-0.009090688091447023,1.052
-0.008788214264065822,1.053
-0.008859563794476982,1.054
-0.009114985814298131,1.055
-0.009092596818205144,1.056
-0.008256713115173354,1.057
-0.006201788819737566,1.058
-0.002786672293046711,1.059
0.001813941731346606,1.06
0.007108376318785492,1.061
0.012325922485580773,1.062
0.016527015099993193,1.063
0.018817293578485886,1.064
0.018648853329935426,1.065
0.016090546207488607,1.066
0.011877050032848458,1.067
0.00714621188454599,1.068
0.0029922461852050697,1.069
8.594221904711757e-05,1.07
-0.0014719414469044796,1.071
-0.002052281281665773,1.072
-0.00224779611752944,1.073
-0.0026218350565241143,1.074
-0.003548546351417197,1.075
-0.0051281437842987145,1.076
-0.0071368316254057105,1.077
-0.009024875453614911,1.078
-0.010022245754541593,1.079
-0.009370687487234715,1.08
-0.006623355181381945,1.081
-0.0018998199518632452,1.082
0.004026652083474678,1.083
0.009854211039461727,1.084
0.014061684336253717,1.085
0.015338526458600742,1.086
0.01300673720189179,1.087
0.007289507788646542,1.088
-0.0006765834787303112,1.089
-0.009115672069609452,1.09
-0.016103822836417092,1.091
-0.020129430816680793,1.092
-0.02051337390564689,1.093
-0.01750267484114695,1.094
-0.01200861877414389,1.095
-0.005159734506048215,1.096
0.0020677776612195477,1.097
0.008969265777237724,1.098
0.0149981031668933,1.099
0.019599294497136474,1.1
0.022159355152331184,1.101
0.022113995691206357,1.102
0.019174788635492806,1.103
0.013546761934127526,1.104
0.005975234232935392,1.105
-0.0024038679369628372,1.106
-0.010317353605009344,1.107
-0.016621963458476226,1.108
-0.020510740297716896,1.109
-0.021606916625457658,1.11
-0.019959492349757933,1.111
-0.015989632388412094,1.112
-0.010417590765767303,1.113
-0.0041615832984588,1.114
0.001831784233546,1.115
0.006803221925804507,1.116
0.01031628473978456,1.117
0.012247047527463608,1.118
0.012702868088538901,1.119
0.011939071368475267,1.12
0.010267232832274532,1.121
0.007964872153177928,1.122
0.00524397846354755,1.123
0.0022990349472726762,1.124
-0.0006258591958846249,1.125
-0.0032243395037184126,1.126
-0.005173512701040697,1.127
-0.006177043833979487,1.128
-0.005985848368712409,1.129
-0.0044604409885548235,1.13
-0.0017064637805359998,1.131
0.0017826361150147187,1.132
0.005092641404085945,1.133
0.007079759906571395,1.134
0.006786494935225126,1.135
0.003883143583122956,1.136
-0.0011204292300617453,1.137
-0.0069941444977289465,1.138
-0.012174032183683223,1.139
-0.01524999399680066,1.14
-0.015354783155588468,1.141
-0.01236061358985169,1.142
-0.006908034171722228,1.143
-0.00025670112159836465,1.144
0.006094217239244587,1.145
0.010935058262818455,1.146
0.013772775904261549,1.147
0.014923248853090309,1.148
0.01520020139692989,1.149
0.015335956799653645,1.15
0.015469251702511582,1.151
0.015036635029357138,1.152
0.013111416562843191,1.153
0.008942293580206737,1.154
0.002404725821799416,1.155
-0.005810351816950193,1.156
-0.014320338153248492,1.157
-0.021439754261008824,1.158
-0.025707932012741564,1.159
-0.026342290159255214,1.16
-0.023418439550855725,1.161
-0.017750986502223287,1.162
-0.010598423536259668,1.163
-0.003305519570215804,1.164
0.00304729359359748,1.165
0.007884224567679279,1.166
0.011171259514194199,1.167
0.013249080855053713,1.168
0.014536205735259817,1.169
0.01523522210833459,1.17
0.015205402498659032,1.171
0.014083763960767971,1.172
0.011576951372772018,1.173
0.007751599735224593,1.174
0.0031475876527859836,1.175
-0.0013591948565401019,1.176
-0.004855465878451052,1.177
-0.006704934289042335,1.178
-0.006745550610085972,1.179
-0.005296077795571427,1.18
-0.002996353482418803,1.181
-0.0005362774370208905,1.182
0.0016271489453645043,1.183
0.0034238296262258066,1.184
0.005110240872829953,1.185
0.007019867696596616,1.186
0.00926684294139563,1.187
0.01157809853874198,1.188
0.0133303013760765,1.189
0.013725460430710577,1.19
0.012011564854116783,1.191
0.007716686992583454,1.192
0.0008615034512510756,1.193
-0.007925626867719039,1.194
-0.0174668663107264,1.195
-0.026289661488718214,1.196
-0.033015372012164666,1.197
-0.03673157158414323,1.198
-0.037183836999143946,1.199
-0.03472976400050217,1.2
-0.03013567688381363,1.201
-0.024337646116333225,1.202
-0.018190349842369884,1.203
-0.012209571596054547,1.204
-0.006453541609841127,1.205
