VaMe,time
0.00048620326076831226,0.001
-0.008473886875953235,0.002
-0.016539956013232836,0.003
-0.022731933860515252,0.004
-0.02609951796093612,0.005
-0.025936931196182345,0.006
-0.021981678024139337,0.007
-0.014540787049852762,0.008
-0.004528251368361893,0.009
0.006595822526909313,0.01
0.017031958595830347,0.011
0.025005896962000684,0.012
0.029193159120350615,0.013
0.029036109725746533,0.014
0.02479932443609738,0.015
0.017366477509681854,0.016
0.00794539033610978,0.017
-0.0021505367069164713,0.018
-0.011608439794262987,0.019
-0.019193711150934812,0.02
-0.023860874272288814,0.021
-0.024892313752923518,0.022
-0.022048326752039323,0.023
-0.01567940279926395,0.024
-0.006702037052808751,0.025
0.003586238708997237,0.026
0.013723353122836433,0.027
0.02223572823370354,0.028
0.02778843078865808,0.029
0.029365465846362963,0.03
0.026422028180528048,0.031
0.018971232455851257,0.032
0.007596847558912445,0.033
-0.006585475889947714,0.034
-0.021982476448693666,0.035
-0.036597552818032925,0.036
-0.04817588826773852,0.037
-0.05449578978347438,0.038
-0.05382425117775641,0.039
-0.045439362023608786,0.04
-0.03001113668645423,0.041
-0.009630298801379784,0.042
0.012565071064004936,0.043
0.03306037632747381,0.044
0.0487266174720683,0.045
0.05742568983138419,0.046
0.05829898960973586,0.047
0.05172898395223478,0.048
0.03908474522575275,0.049
0.022388044685191417,0.05
0.003984204578175127,0.051
-0.013733860506496921,0.052
-0.028538188464277706,0.053
-0.03855617174921446,0.054
-0.042472841595640534,0.055
-0.03972584531173881,0.056
-0.030612922302247325,0.057
-0.016257849421153787,0.058
0.0014844645642877693,0.059
0.020121015034668593,0.06
0.03672446902840056,0.061
0.04835592083008404,0.062
0.05261328469710785,0.063
0.04814638564999188,0.064
0.03506102808034475,0.065
0.015102586325758059,0.066
-0.008514474456612743,0.067
-0.03166259541213729,0.068
-0.05014128037214244,0.069
-0.06058263703989047,0.07
-0.06119633759576241,0.071
-0.05219091719926683,0.072
-0.03575382497565756,0.073
-0.015542189116779067,0.074
0.004238297529581737,0.075
0.019917622476340508,0.076
0.02923543084675395,0.077
0.03170177452026422,0.078
0.028410658101474473,0.079
0.02149759513600681,0.08
0.013456261048743867,0.081
0.00647441137157946,0.082
0.001931571482743775,0.083
0.0001669397867819639,0.084
0.0005438350201633866,0.085
0.0017733485271556042,0.086
0.0024106653857061382,0.087
0.0013949344844376946,0.088
-0.0015495811586566835,0.089
-0.005862973576962813,0.09
-0.010462691851315006,0.091
-0.014172922613453194,0.092
-0.016069734684634157,0.093
-0.015677786306579292,0.094
-0.012967415440997191,0.095
-0.008206892937869041,0.096
-0.0018554892212299231,0.097
0.005416037015406548,0.098
0.012705883427086296,0.099
0.01903161157994232,0.1
0.023629596603614748,0.101
0.02620076940558688,0.102
0.02693659077506201,0.103
0.026333697959460334,0.104
0.024893139299934218,0.105
0.02283509239215201,0.106
0.020017428207922777,0.107
0.01611029111564269,0.108
0.010844751389106013,0.109
0.004146921149064408,0.11
-0.0038826666442553096,0.111
-0.013054037670189922,0.112
-0.023087464749598392,0.113
-0.03347978559995327,0.114
-0.0433768811936706,0.115
-0.051594920597761114,0.116
-0.05678929266631274,0.117
-0.05770347027090529,0.118
-0.0534371815484492,0.119
-0.043716012067626875,0.12
-0.029143922040003198,0.121
-0.01132626104564345,0.122
0.007292558524500518,0.123
0.02392849941943582,0.124
0.03615454098635196,0.125
0.04250675557331898,0.126
0.042739709250628914,0.127
0.037708312006397494,0.128
0.029079774928494697,0.129
0.019056777243798315,0.13
0.010115461647936735,0.131
0.004650080699976487,0.132
0.004469756994949048,0.133
0.010228231483330153,0.134
0.020975770595089697,0.135
0.03408089065302873,0.136
0.045703691151918066,0.137
0.051771510600076905,0.138
0.04913438819871623,0.139
0.03651780230555295,0.14
0.015015804295234707,0.141
-0.0120829774378241,0.142
-0.04017007560588843,0.143
-0.0645348172716322,0.144
-0.0814019522112402,0.145
-0.08846916638883008,0.146
-0.08495173114483545,0.147
-0.07136537490301463,0.148
-0.04931474841324152,0.149
-0.021426674929290984,0.15
0.008657895296728038,0.151
0.03649656801548918,0.152
0.05750742877707646,0.153
0.0680205134068709,0.154
0.06632561670752345,0.155
0.05329937792952032,0.156
0.03235854671339068,0.157
0.008680284636352037,0.158
-0.012120153486531414,0.159
-0.025414955912247045,0.16
-0.02862361528302521,0.161
-0.021672200303818858,0.162
-0.006876099295181415,0.163
0.011549941733986534,0.164
0.02822624989793433,0.165
0.03772962613506489,0.166
0.036134096481689075,0.167
0.02247634814266733,0.168
-0.0006386383159403184,0.169
-0.027697824873322053,0.17
-0.05190650146570648,0.171
-0.06709240714910235,0.172
-0.06927628560086813,0.173
-0.0575791341323657,0.174
-0.034333766253761805,0.175
-0.00441320018153753,0.176
0.02599228725229169,0.177
0.050813617275717475,0.178
0.0654606139783182,0.179
0.0677814167407163,0.18
0.05833434181207372,0.181
0.03994507611615854,0.182
0.01679577908086208,0.183
-0.006629429674221495,0.184
-0.026462087811023854,0.185
-0.04005921954093101,0.186
-0.04624133282290644,0.187
-0.04517427672454315,0.188
-0.03800873658878271,0.189
-0.02646559554001961,0.19
-0.012531005598016098,0.191
0.001704608328876273,0.192
0.01417170404856355,0.193
0.023052732864297626,0.194
0.02713256945622229,0.195
0.02613170304440498,0.196
0.020861712443257185,0.197
0.01310357571962365,0.198
0.005207111758871855,0.199
-0.0005145807970141453,0.2
-0.0024771743079251684,0.201
-0.00039816248274774594,0.202
0.004523067365324968,0.203
0.009986238099553991,0.204
0.013417133584243287,0.205
0.012889550264039273,0.206
0.007780890970991534,0.207
-0.001019725961833009,0.208
-0.011339335789370755,0.209
-0.020314431965332388,0.21
-0.025241751377326017,0.211
-0.02443691934289296,0.212
-0.017767811540117202,0.213
-0.006685580619497151,0.214
0.006165541705859667,0.215
0.017559531280094083,0.216
0.02434855255886573,0.217
0.024074813144888147,0.218
0.01549748729961118,0.219
-0.0009983495778295918,0.22
-0.0232011132022586,0.221
-0.04720751589512058,0.222
-0.06796571576905122,0.223
-0.08019711234169001,0.224
-0.07951493975022325,0.225
-0.0634695212106339,0.226
-0.0323328161661571,0.227
0.010528032682341341,0.228
0.058872142335308894,0.229
0.10449364392809968,0.23
0.13876391324884768,0.231
0.15456537333044082,0.232
0.14807292726745475,0.233
0.11975682696066191,0.234
0.07432991179365096,0.235
0.0197651186178853,0.236
-0.03439815543275313,0.237
-0.07924792035707523,0.238
-0.10864035288034686,0.239
-0.12041678541841093,0.24
-0.11620460701488201,0.241
-0.10006086997125134,0.242
-0.07672640084289405,0.243
-0.05030141140997995,0.244
-0.023765289049265968,0.245
0.0007975137277574891,0.246
0.021808343658138676,0.247
0.038054454498460996,0.248
0.048684159827997675,0.249
0.05309606541503863,0.25
0.0508454241959003,0.251
0.04178780849535354,0.252
0.02637355588963187,0.253
0.005887932620495271,0.254
-0.017400227491486696,0.255
-0.04020474696906595,0.256
-0.05848332001319546,0.257
-0.06814716610062822,0.258
-0.06610509481853839,0.259
-0.05127950073372942,0.26
-0.025200226274336497,0.261
0.008050946904533578,0.262
0.042563356885854074,0.263
0.07186028229162271,0.264
0.09041765670902509,0.265
0.09498410736235975,0.266
0.08527922620936751,0.267
0.06394403285105035,0.268
0.03585317026646358,0.269
0.006953031959357764,0.27
-0.017076732728711623,0.271
-0.031958633316732356,0.272
-0.03559263554878544,0.273
-0.028497993742401948,0.274
-0.013807215005835113,0.275
0.0033964374600888147,0.276
0.017409851153108228,0.277
0.02353045982762801,0.278
0.019246633532847113,0.279
0.004592236579379783,0.28
-0.018035148602221617,0.281
-0.04426358188565922,0.282
-0.06849810421526142,0.283
-0.0851910202436275,0.284
-0.0902824305380626,0.285
-0.0822360109399871,0.286
-0.06232589561898251,0.287
-0.034143479855912526,0.288
-0.0025995662814907814,0.289
0.027111803128865644,0.29
0.05030128444960305,0.291
0.06337047137058195,0.292
0.0643052361800122,0.293
0.05315418871806582,0.294
0.03247693682070804,0.295
0.00738768624471462,0.296
-0.015254023336249077,0.297
-0.028477026227260983,0.298
-0.027161934815982836,0.299
-0.009734233694687875,0.3
0.02090309772239206,0.301
0.05755274864490145,0.302
0.09016532187392612,0.303
0.10838030751319842,0.304
0.10456464232074889,0.305
0.0763231049218963,0.306
0.027578397181743097,0.307
-0.0321134665550043,0.308
-0.0898427156101143,0.309
-0.13263230500858636,0.31
-0.15077280446716315,0.311
-0.14017614330365874,0.312
-0.10309707183525396,0.313
-0.04717347838935279,0.314
0.016683529501869014,0.315
0.07676458276845001,0.316
0.12277157468905349,0.317
0.1473340335355681,0.318
0.14674749103449694,0.319
0.12121242277199336,0.32
0.0747419836904043,0.321
0.014644139965556767,0.322
-0.04949438769161453,0.323
-0.107251306178395,0.324
-0.1491462094354861,0.325
-0.16848776692305528,0.326
-0.16271192184483724,0.327
-0.1337810727062534,0.328
-0.0876314563815143,0.329
-0.03283402368965999,0.33
0.021274616398197055,0.331
0.06650129453587642,0.332
0.09719854311233982,0.333
0.11094100428987642,0.334
0.10848576911154993,0.335
0.09311120432486017,0.336
0.06959229210753816,0.337
0.04311824869780067,0.338
0.018363860643939654,0.339
-0.0011640062529644918,0.34
-0.013451107618898225,0.341
-0.01805153028346346,0.342
-0.01604963199763871,0.343
-0.009847589736125597,0.344
-0.0025588819158126937,0.345
0.002930832241500438,0.346
0.004771928244863771,0.347
0.002469207872775354,0.348
-0.0033101534913149095,0.349
-0.011255804888867103,0.35
-0.01998373000128599,0.351
-0.028458009183400232,0.352
-0.036143597372223626,0.353
-0.042778670006670655,0.354
-0.04782050767468487,0.355
-0.05000456505752355,0.356
-0.04752232395105238,0.357
-0.03876558387882962,0.358
-0.023181757806689934,0.359
-0.00180413589553733,0.36
0.022848335050746554,0.361
0.04749496094760634,0.362
0.06907936701837662,0.363
0.08552606813198704,0.364
0.09594330756432902,0.365
0.10019868626142478,0.366
0.09800697054454545,0.367
0.08809711311541285,0.368
0.06831444909516877,0.369
0.036981314282805315,0.37
-0.005129162731818694,0.371
-0.05340335263307374,0.372
-0.0996380290705817,0.373
-0.13413244048101425,0.374
-0.14878755592880435,0.375
-0.1399392870470679,0.376
-0.10973058406682941,0.377
-0.06534853694450825,0.378
-0.016493748124119145,0.379
0.027606759978302864,0.38
0.06025478361851887,0.381
0.07789867743016289,0.382
0.07977882907402893,0.383
0.06737986810434514,0.384
0.0441430677807498,0.385
0.015137095722879293,0.386
-0.013835125980076723,0.387
-0.03743876676009267,0.388
-0.05177271913631335,0.389
-0.05502876566937706,0.39
-0.047700426540456246,0.391
-0.032048446977639936,0.392
-0.01111517622656522,0.393
0.011974100672667779,0.394
0.034051300197123054,0.395
0.051657382983110636,0.396
0.061225086391361726,0.397
0.060025786487654,0.398
0.04742667461760268,0.399
0.025559499181362935,0.4
-0.0010968606806585032,0.401
-0.026902471340956136,0.402
-0.046357287203278426,0.403
-0.05518680223209834,0.404
-0.051187829375715165,0.405
-0.03474608119644559,0.406
-0.00886074000348786,0.407
0.021367065238290045,0.408
0.049685505161333646,0.409
0.06997080810101237,0.41
0.07762790951334098,0.411
0.07072651307432898,0.412
0.05053661422475328,0.413
0.021325221212662896,0.414
-0.010594357698796174,0.415
-0.03837403318040664,0.416
-0.056249377754862356,0.417
-0.06078433200575169,0.418
-0.051480559155039504,0.419
-0.030681426924550868,0.42
-0.002851508407221077,0.421
0.02651587553791129,0.422
0.051870208314674794,0.423
0.0679758565336608,0.424
0.06994645846731909,0.425
0.05390616332955178,0.426
0.01875539382930094,0.427
-0.031829976715609686,0.428
-0.08876378785685256,0.429
-0.13917994388250055,0.43
-0.1699312169062962,0.431
-0.17167948813045403,0.432
-0.14207337574899623,0.433
-0.08676203251478466,0.434
-0.01758827175989431,0.435
0.051408632033823294,0.436
0.10814564434381418,0.437
0.14499328636168096,0.438
0.15932854492020004,0.439
0.1526993742181164,0.44
0.1291987416882582,0.441
0.09379995366185594,0.442
0.05149899639290928,0.443
0.007479576895357327,0.444
-0.03255199947103211,0.445
-0.06294266063731545,0.446
-0.0795380848143615,0.447
-0.08088041997315415,0.448
-0.06846009936031858,0.449
-0.046287220506038396,0.45
-0.020130931265435848,0.451
0.0035441836634887243,0.452
0.019014091398516005,0.453
0.022961271857643656,0.454
0.015757014425670356,0.455
0.0015604346181591737,0.456
-0.013133098881886433,0.457
-0.0219599206676773,0.458
-0.020957595092943624,0.459
-0.009784763683022512,0.46
0.008206088088318927,0.461
0.027018736988220826,0.462
0.04003423712246215,0.463
0.04228921936703876,0.464
0.03213535850350429,0.465
0.011871035927656056,0.466
-0.0126439071419292,0.467
-0.033340863279780454,0.468
-0.042193504010634736,0.469
-0.03409083186239859,0.47
-0.009527706905287767,0.471
0.024406220097565087,0.472
0.055913273770609145,0.473
0.07269684137498866,0.474
0.06656046736470934,0.475
0.03653923772824778,0.476
-0.010480147415574046,0.477
-0.06179420559923403,0.478
-0.10283491251240207,0.479
-0.12176675785374584,0.48
-0.11323149185772431,0.481
-0.07987499689257543,0.482
-0.031121761775030562,0.483
0.020185288181345937,0.484
0.061805405854758376,0.485
0.08527377542735304,0.486
0.08748988190966095,0.487
0.07070190575568303,0.488
0.041263188091291605,0.489
0.007703996730202545,0.49
-0.021472293181961276,0.491
-0.03988001804433187,0.492
-0.04462265544836016,0.493
-0.036438771757674994,0.494
-0.01868363712751969,0.495
0.004255843724131334,0.496
0.02842053482900879,0.497
0.05109218829230412,0.498
0.07062045760045833,0.499
0.08538251774930149,0.5
0.09271141772530238,0.501
0.08879983672661616,0.502
0.0699038477595036,0.503
0.03433985157858419,0.504
-0.015657522859616375,0.505
-0.07320987472050673,0.506
-0.12784446375176398,0.507
-0.16816073824280175,0.508
-0.18516548865200133,0.509
-0.1750164332684757,0.51
-0.14014307830381564,0.511
-0.08830578414020195,0.512
-0.02997242202821227,0.513
0.024908825220680608,0.514
0.06953022530410352,0.515
0.10135139094715974,0.516
0.12151504584429794,0.517
0.13309121258615259,0.518
0.1389987676523258,0.519
0.1404334299570982,0.52
0.1362853021247611,0.521
0.1234832478638812,0.522
0.09813960832168554,0.523
0.05751498029139535,0.524
0.0024324607024493565,0.525
-0.06094462336321097,0.526
-0.12131023911309174,0.527
-0.16501098867714942,0.528
-0.18059051520817088,0.529
-0.16319821068716683,0.53
-0.11719688184696558,0.531
-0.05580877403744397,0.532
0.0029094779404699777,0.533
0.042706559475087155,0.534
0.055116288299207325,0.535
0.04170996170493837,0.536
0.012076784774769105,0.537
-0.020682585208100884,0.538
-0.044533091823443983,0.539
-0.051646872239891374,0.54
-0.03965979609919664,0.541
-0.01117722822187167,0.542
0.027820837491913674,0.543
0.06975239964863271,0.544
0.10678810251190868,0.545
0.13187424753501642,0.546
0.13975152724804799,0.547
0.12795585464999376,0.548
0.09759519416378504,0.549
0.0537080220977367,0.55
0.004745698920858088,0.551
-0.039422750055902914,0.552
-0.07083688694469419,0.553
-0.08661817955750391,0.554
-0.08979627811732019,0.555
-0.0868162350979535,0.556
-0.08340865100117724,0.557
-0.08163707901397,0.558
-0.07953932934186797,0.559
-0.07298579501619126,0.56
-0.058379196509238965,0.561
-0.034797293216186555,0.562
-0.004851773786851628,0.563
0.026048290498009007,0.564
0.05174766732874408,0.565
0.06758853593117092,0.566
0.07183266370433367,0.567
0.06590028684498093,0.568
0.05344207664825617,0.569
0.03869952750697462,0.57
0.02499410012309594,0.571
0.014037417887836736,0.572
0.006191977528927756,0.573
0.001202285216446402,0.574
-0.0012726206963281927,0.575
-0.0015884230222218412,0.576
-0.00033620628285160404,0.577
0.0013538181222067388,0.578
0.0017433316152003036,0.579
-0.0008407624085918618,0.58
-0.006746099554002654,0.581
-0.01418565911332522,0.582
-0.01959081679010484,0.583
-0.019077130369698776,0.584
-0.01059677674817212,0.585
0.0043364047123119415,0.586
0.020763754447040254,0.587
0.03234332333129866,0.588
0.03401258732570544,0.589
0.023866425913751637,0.59
0.003509878377982288,0.591
-0.022926047621768537,0.592
-0.05009797277964649,0.593
-0.07246655432500773,0.594
-0.08522636330463973,0.595
-0.08524491587327254,0.596
-0.07174335445384993,0.597
-0.04660447156148305,0.598
-0.014156372022125044,0.599
0.019786255105310232,0.6
0.04939413798867729,0.601
0.07025812078321053,0.602
0.08029342942561882,0.603
0.07983779525732888,0.604
0.07101551575674622,0.605
0.05676505638879785,0.606
0.039984191230674856,0.607
0.023053030705571884,0.608
0.007898718349538857,0.609
-0.003532888465813808,0.61
-0.009171361376380357,0.611
-0.007803965269124435,0.612
-0.0006716494588346179,0.613
0.007771211914299829,0.614
0.01082676626540827,0.615
0.0020163607685017744,0.616
-0.021740756683472418,0.617
-0.05743752372823969,0.618
-0.09542152421590547,0.619
-0.12206634269803728,0.62
-0.12487092201084557,0.621
-0.09741798969274401,0.622
-0.04197074899214259,0.623
0.030566581619145036,0.624
0.10273957621009065,0.625
0.15458964435780123,0.626
0.16924665411663925,0.627
0.13845244352393096,0.628
0.06598586008574754,0.629
-0.032246345842634035,0.63
-0.13166803281521217,0.631
-0.2054393973115253,0.632
-0.23225051225579438,0.633
-0.2026958094166762,0.634
-0.12120929150794707,0.635
-0.003260374062323234,0.636
0.1293834558816945,0.637
0.25285687537420665,0.638
0.3444548360896585,0.639
0.38560286981323033,0.64
0.36499876390171004,0.641
0.2814097646280402,0.642
0.14506804135300602,0.643
-0.023107923952232066,0.644
-0.19475927564465678,0.645
-0.3394269353136,0.646
-0.43085661090351146,0.647
-0.45299063605010165,0.648
-0.4043546363364569,0.649
-0.2988056480798717,0.65
-0.16124155741258517,0.651
-0.01990148549500624,0.652
0.10119314987117128,0.653
0.18701948132926932,0.654
0.2327915813085344,0.655
0.24224951536730122,0.656
0.22420355839770698,0.657
0.1887186209108741,0.658
0.14418942351558564,0.659
0.09601636229598635,0.66
0.04696401694086287,0.661
-0.001195799872459024,0.662
-0.04578880460361901,0.663
-0.08249233010832119,0.664
-0.10633673983713629,0.665
-0.11374008192110076,0.666
-0.10424438321820927,0.667
-0.08087115975132182,0.668
-0.04896853002457184,0.669
-0.014446609307425369,0.67
0.017529723977899432,0.671
0.042923818187678514,0.672
0.05865168445096121,0.673
0.06274886387668677,0.674
0.05524615596532227,0.675
0.03904654067899921,0.676
0.01985402953011924,0.677
0.004779236604300136,0.678
-7.901355834794477e-05,0.679
0.007761957111829379,0.68
0.0256445575222649,0.681
0.04636671895242866,0.682
0.060790188547030125,0.683
0.061342771267081674,0.684
0.04487341906654199,0.685
0.013487680546216194,0.686
-0.02678088355857281,0.687
-0.06814775636255697,0.688
-0.10271060079709957,0.689
-0.12341960228186612,0.69
-0.12522701774294093,0.691
-0.10692089514725027,0.692
-0.07278578513769526,0.693
-0.03216767098929169,0.694
0.003730013588245303,0.695
0.026025727673751352,0.696
0.031105734938483884,0.697
0.021363905200255114,0.698
0.003716537656085421,0.699
-0.013339136419876973,0.7
-0.022589223022115145,0.701
-0.01950513513433851,0.702
-0.0023453155340567708,0.703
0.02777249896549575,0.704
0.06641263315325364,0.705
0.10577975971942143,0.706
0.1359655005466299,0.707
0.14745205661489566,0.708
0.13400258332822157,0.709
0.09494213183389247,0.71
0.03611532491223026,0.711
-0.03079553440302216,0.712
-0.09077596316027793,0.713
-0.1297400261407456,0.714
-0.13940666961569037,0.715
-0.12066311293678303,0.716
-0.0835697756286331,0.717
-0.04344827386683892,0.718
-0.014311857758354626,0.719
-0.002773857022914197,0.72
-0.005599171075736785,0.721
-0.012057851395167763,0.722
-0.010044295734956894,0.723
0.00727080744909041,0.724
0.038215315924240184,0.725
0.07406582518206428,0.726
0.1032390860358636,0.727
0.11584435232304353,0.728
0.10713042724211098,0.729
0.0789987286774164,0.73
0.03915108658068585,0.731
-0.0021153158851834625,0.732
-0.03629971200709906,0.733
-0.059797641008245916,0.734
-0.07384055165301794,0.735
-0.0819445490041357,0.736
-0.08712558234741331,0.737
-0.09038321192967738,0.738
-0.0905166085382859,0.739
-0.08483486556436996,0.74
-0.07056435773716527,0.741
-0.0465853650084133,0.742
-0.014624217944037838,0.743
0.020858650331294894,0.744
0.054005489589611044,0.745
0.07927431067306423,0.746
0.09281726158415282,0.747
0.09327469822683786,0.748
0.08188699266127655,0.749
0.06195765269666703,0.75
0.03785466362069756,0.751
0.013862417305720924,0.752
-0.006817205924795745,0.753
-0.02265031031464654,0.754
-0.03362520114922788,0.755
-0.04022770177413022,0.756
-0.042004585240317464,0.757
-0.036800440244240264,0.758
-0.0215170489694478,0.759
0.005663771868069995,0.76
0.04261840106098535,0.761
0.08194649000058049,0.762
0.11236115817816297,0.763
0.12249314942905516,0.764
0.10526719331945635,0.765
0.060861758375632964,0.766
-0.002848528059547048,0.767
-0.07243674647047527,0.768
-0.13292011371868306,0.769
-0.17209452084061586,0.77
-0.18349887004556975,0.771
-0.16716185796542682,0.772
-0.12835995952438425,0.773
-0.0755188184812507,0.774
-0.018498107161829903,0.775
0.03270196928516481,0.776
0.06959844237510032,0.777
0.08734847103816844,0.778
0.08634934510313289,0.779
0.07222482207094601,0.78
0.05396862770910756,0.781
0.04077287804831251,0.782
0.03852440432844067,0.783
0.047278459827354555,0.784
0.060955289797336255,0.785
0.06967038164193311,0.786
0.06375523324861876,0.787
0.037894173628707936,0.788
-0.005951493128105481,0.789
-0.05782090719277615,0.79
-0.10195245939175852,0.791
-0.12201515872785755,0.792
-0.10794135159435182,0.793
-0.061177475136792225,0.794
0.0048630322397643306,0.795
0.06977817461681182,0.796
0.11393440148840736,0.797
0.12522912512531187,0.798
0.10229735621033899,0.799
0.05357504079634111,0.8
-0.006699016355113111,0.801
-0.06357098740428249,0.802
-0.10564307453500603,0.803
-0.12735042038254368,0.804
-0.12885680600532096,0.805
-0.11416071340671771,0.806
-0.08876040408828151,0.807
-0.05786861706890058,0.808
-0.02541751455473366,0.809
0.00629047697412285,0.81
0.03645844017170929,0.811
0.06519323774490066,0.812
0.09253552897013592,0.813
0.11750445361534013,0.814
0.1375439819637248,0.815
0.1486005748803834,0.816
0.14597280438057467,0.817
0.12595480578382,0.818
0.08781278183914473,0.819
0.034997258162023266,0.82
-0.02534678824972985,0.821
-0.0842050568386587,0.822
-0.1325820530675157,0.823
-0.16286931593282408,0.824
-0.17006993613339005,0.825
-0.15316572050001084,0.826
-0.11616436043110268,0.827
-0.06776874167625767,0.828
-0.018957263635597105,0.829
0.020702171942057816,0.83
0.046044732065607136,0.831
0.05724704376498477,0.832
0.058511556514155974,0.833
0.05509955441487619,0.834
0.05024656700209301,0.835
0.04392397067132266,0.836
0.03417816500076947,0.837
0.019886851592990487,0.838
0.0030236857963402133,0.839
-0.011058689286135797,0.84
-0.015673300756138705,0.841
-0.006136961110785134,0.842
0.017261647332303558,0.843
0.0480962186805572,0.844
0.07521866675121998,0.845
0.08650374065220282,0.846
0.07346561090006413,0.847
0.03481534002485521,0.848
-0.022445450912632937,0.849
-0.08490332573872708,0.85
-0.13707908351869416,0.851
-0.16665047123930013,0.852
-0.16806807012525385,0.853
-0.14275840164202308,0.854
-0.0966056988458815,0.855
-0.037050612633296905,0.856
0.028415823428648016,0.857
0.09218865076928445,0.858
0.14594665697033346,0.859
0.18072936229892053,0.86
0.1883878595657616,0.861
0.16426649250895856,0.862
0.11015883388096596,0.863
0.0360461230487261,0.864
-0.04077118034896454,0.865
-0.09959938604470871,0.866
-0.12253664326224914,0.867
-0.10100860541497732,0.868
-0.04001242527605214,0.869
0.041968826580445415,0.87
0.11756153194853293,0.871
0.15857622835293372,0.872
0.14557935761349952,0.873
0.07555786661757104,0.874
-0.03568310837818006,0.875
-0.15799879785056148,0.876
-0.25718720209316137,0.877
-0.3069278645426662,0.878
-0.2969120452993359,0.879
-0.23386456932779429,0.88
-0.13643742811041704,0.881
-0.027637752297175636,0.882
0.07172139317555777,0.883
0.14688051768699528,0.884
0.19056822685747504,0.885
0.20273494794286864,0.886
0.18906993325921503,0.887
0.15878707019881677,0.888
0.12214711869622814,0.889
0.08807848246847289,0.89
0.062111445036998954,0.891
0.04507721095422413,0.892
0.03318854907284814,0.893
0.019866244349056046,0.894
-0.0009097668885466963,0.895
-0.031062984930885,0.896
-0.06668724156092547,0.897
-0.09927073441365875,0.898
-0.1191984198473216,0.899
-0.11964533284547925,0.9
-0.09924909790821422,0.901
-0.06283155652213394,0.902
-0.02001180320203381,0.903
0.017935668362726292,0.904
0.04180527751357882,0.905
0.04735015979221168,0.906
0.03649933737108151,0.907
0.016544715907311755,0.908
-0.0026622158987294102,0.909
-0.012660609875628046,0.91
-0.009675633737983823,0.911
0.004326338182879558,0.912
0.022896653514118036,0.913
0.03780206853641653,0.914
0.04219043131387495,0.915
0.03319912717473195,0.916
0.013077389741942344,0.917
-0.011637679309023971,0.918
-0.03264745335003678,0.919
-0.04327322527358351,0.92
-0.041302150667056246,0.921
-0.029670205742806103,0.922
-0.014438584046202232,0.923
-0.0014916057156887548,0.924
0.005897424373663581,0.925
0.007495394164084067,0.926
0.004819692022136248,0.927
-0.0005117312910870043,0.928
-0.007515090435516419,0.929
-0.015497479400858244,0.93
-0.023200446433690996,0.931
-0.028127246220213564,0.932
-0.026688565107090945,0.933
-0.015476160379427966,0.934
0.006842352736679965,0.935
0.038231995743191,0.936
0.07337165151849974,0.937
0.10483798499107157,0.938
0.12470382258700331,0.939
0.12620927594338,0.94
0.10550343691125949,0.941
0.0631415557621924,0.942
0.004686840640422404,0.943
-0.05996302531150438,0.944
-0.11838768373924335,0.945
-0.15830290851693699,0.946
-0.17092296387908898,0.947
-0.15424934824636977,0.948
-0.11424087777635131,0.949
-0.062475491152971546,0.95
-0.01169625958023988,0.951
0.028191766183107012,0.952
0.05244097964323228,0.953
0.06198549218475611,0.954
0.062255184597844966,0.955
0.06055223886153272,0.956
0.06272903676744154,0.957
0.07040123874335494,0.958
0.07997945166862507,0.959
0.08411053701846515,0.96
0.07496279002819387,0.961
0.047949510280227384,0.962
0.004288569208150266,0.963
-0.0486471646762948,0.964
-0.09924325486828094,0.965
-0.1351545831320694,0.966
-0.1471247550143863,0.967
-0.1317343227501781,0.968
-0.09239205917902145,0.969
-0.03829124175060298,0.97
0.01853172450321926,0.971
0.06695927122105093,0.972
0.09979034006869776,0.973
0.11485891345442713,0.974
0.11426024478880324,0.975
0.10247902969353469,0.976
0.08421974968041354,0.977
0.06263154172327416,0.978
0.03863347241155404,0.979
0.01167283414724356,0.98
-0.01854687835634942,0.981
-0.05045262888048669,0.982
-0.08006673493211466,0.983
-0.10177897461976701,0.984
-0.11002840739597348,0.985
-0.10137273423485783,0.986
-0.07625281563557426,0.987
-0.03951782175974468,0.988
0.0007710193185662959,0.989
0.03572076451610659,0.99
0.058057441851333116,0.991
0.0638980727574598,0.992
0.05358510060167421,0.993
0.03143310809595052,0.994
0.004440266461518198,0.995
-0.019581582236501062,0.996
-0.033804847993262485,0.997
-0.03378652480456875,0.998
-0.01847425921463499,0.999
0.009341337109200726,1.0
0.043430905907203804,1.001
0.07542117585443452,1.002
0.09660815112944884,1.003
0.0998052456540109,1.004
0.0810073444992959,1.005
0.04089724310094005,1.006
-0.014141376987584732,1.007
-0.07257685312820553,1.008
-0.12071230767624311,1.009
-0.1472050462356045,1.01
-0.1466989564459472,1.011
-0.12085160184200372,1.012
-0.07684823154886583,1.013
-0.024534955128063977,1.014
0.026417665927583697,1.015
0.06820819460882997,1.016
0.09531488906627882,1.017
0.10442083357847923,1.018
0.0945542353388156,1.019
0.06751724089728732,1.02
0.02838348269806708,1.021
-0.014335150232142069,1.022
-0.0493710575373972,1.023
-0.06473029278440055,1.024
-0.051192200571186876,1.025
-0.006438107314190858,1.026
0.06198189922570306,1.027
0.13669690573158796,1.028
0.19442698255970883,1.029
0.21297872794403971,1.03
0.17895896189202481,1.031
0.09330685182112829,1.032
-0.02763877990492795,1.033
-0.15642075142981954,1.034
-0.2627660595844566,1.035
-0.3229002155005305,1.036
-0.3263248103927053,1.037
-0.2771930184137739,1.038
-0.19063059229258258,1.039
-0.08724119562574409,1.04
0.012030664815797837,1.041
0.09035076511097694,1.042
0.13825004768373517,1.043
0.15480633409863603,1.044
0.1463953786435068,1.045
0.1236459038351261,1.046
0.09786631466873313,1.047
0.07803030948044505,1.048
0.06893217889447897,1.049
0.07067992433400888,1.05
0.07941735618951844,1.051
0.08896842603102213,1.052
0.09284678780643797,1.053
0.08595884619834882,1.054
0.06562263600692929,1.055
0.0320340254230666,1.056
-0.011732253680818622,1.057
-0.060381394262463944,1.058
-0.10751204716366682,1.059
-0.14654194431148662,1.06
-0.17126965937308633,1.061
-0.1765043245773144,1.062
-0.15910967222420488,1.063
-0.11946425149412714,1.064
-0.0627250834260285,1.065
0.0014131453177549911,1.066
0.0610125922937109,1.067
0.10502331974778578,1.068
0.1257564189720793,1.069
0.12038263892762462,1.07
0.09168203356083494,1.071
0.047730216491092006,1.072
7.069994238308847e-05,1.073
-0.0392878331704487,1.074
-0.06111083055841359,1.075
-0.06131190867836836,1.076
-0.04163155105539685,1.077
-0.008670992209039535,1.078
0.02805701047310657,1.079
0.05846727675268865,1.08
0.07423778542206318,1.081
0.07076065638822472,1.082
0.048312548450052395,1.083
0.012089731802443843,1.084
-0.029075956821403574,1.085
-0.06503456459686957,1.086
-0.08699918612883477,1.087
-0.08988146630879211,1.088
-0.07365353019052104,1.089
-0.043225212030704424,1.09
-0.0067258997650176304,1.091
0.027153956387331615,1.092
0.05167796616105681,1.093
0.06362559446821615,1.094
0.06358087286667201,1.095
0.054972146150538956,1.096
0.04231273745195493,1.097
0.029592466945817304,1.098
0.01948268443987403,1.099
0.013165530848893723,1.1
0.010346158302935886,1.101
0.009432223706763,1.102
0.008223543446591583,1.103
0.004992489536539598,1.104
-0.00084900189948041,1.105
-0.008993583222182912,1.106
-0.01891374536882121,1.107
-0.03018400060433988,1.108
-0.042397997112017485,1.109
-0.05498166560684969,1.11
-0.06692570966057554,1.111
-0.07655115673548449,1.112
-0.08153204543723266,1.113
-0.07935790322311373,1.114
-0.06829195709403454,1.115
-0.04841131733026352,1.116
-0.021949372452479788,1.117
0.00744668333842543,1.118
0.03600772217552613,1.119
0.0608410702661512,1.12
0.08025662033407133,1.121
0.09359832348825843,1.122
0.10098320106392705,1.123
0.10306485949158789,1.124
0.1006660278545306,1.125
0.09417648215425212,1.126
0.08297737871083374,1.127
0.0654817321086092,1.128
0.040038311033962146,1.129
0.006343440109970414,1.13
-0.03325059861021677,1.131
-0.07327738154596972,1.132
-0.10633309370036627,1.133
-0.12580611110906345,1.134
-0.1286235918569176,1.135
-0.11621621323788595,1.136
-0.09321030796882224,1.137
-0.06501939766213043,1.138
-0.03601551722022102,1.139
-0.008961802124612523,1.14
0.014654195273692487,1.141
0.03403377690056324,1.142
0.04871093600009712,1.143
0.058504108136811575,1.144
0.0636002400599348,1.145
0.0645945105028439,1.146
0.062383676213501785,1.147
0.057874726876117326,1.148
0.05153956060285578,1.149
0.04307167950311504,1.15
0.03151619757670963,1.151
0.01601318158521963,1.152
-0.0031597259619144304,1.153
-0.023969209759829593,1.154
-0.043066258230045965,1.155
-0.05714217880609242,1.156
-0.06418912346333795,1.157
-0.06382657730269713,1.158
-0.056869313742834424,1.159
-0.04474958339892232,1.16
-0.029144613573089794,1.161
-0.011859525097223185,1.162
0.005219618484475548,1.163
0.02035557391044695,1.164
0.03235081391934054,1.165
0.04080693543203626,1.166
0.04602309552365662,1.167
0.04853078597623154,1.168
0.04852646277591956,1.169
0.04555309483848365,1.17
0.03860713392437612,1.171
0.0266588500080191,1.172
0.009429040840255256,1.173
-0.011870170373131773,1.174
-0.0342371167619651,1.175
-0.05338463296605913,1.176
-0.06504715242756443,1.177
-0.066511487398285,1.178
-0.0574886359720017,1.179
-0.039985532876408894,1.18
-0.017591148520861945,1.181
0.0053750645178451155,1.182
0.024710075270439974,1.183
0.03715107895138912,1.184
0.04109745441645863,1.185
0.037010273333078526,1.186
0.027329550552832794,1.187
0.015936316106361936,1.188
0.007183482571227375,1.189
0.004486289866796789,1.19
0.008827725865545715,1.191
0.01805339715134282,1.192
0.027555522228582943,1.193
0.03201643710082188,1.194
0.027405612383763333,1.195
0.01254322382333171,1.196
-0.01023956501997009,1.197
-0.035632527993445476,1.198
-0.05707005124225094,1.199
-0.06903667911424916,1.2
-0.06879254219340668,1.201
-0.05677810191714786,1.202
-0.03597642036661253,1.203
-0.01093123035999346,1.204
0.013141107934570859,1.205
0.031225026050259643,1.206
0.03963844400851829,1.207
0.0372638339693075,1.208
0.02621957246645636,1.209
0.011307190397891746,1.21
-0.0017808522943708702,1.211
-0.008642691617588584,1.212
-0.007600779389283918,1.213
0.0001315492198524041,1.214
0.011239659176051776,1.215
0.021573333183059613,1.216
0.02755673282058524,1.217
0.027381505098243865,1.218
0.021580889070976002,1.219
0.012775012028263411,1.22
0.004717882125139832,1.221
0.0009469667348780428,1.222
0.0033961651839740066,1.223
0.011420072556141003,1.224
0.02169965981668194,1.225
0.029206832819930358,1.226
0.028911956195475586,1.227
0.017683959116368626,1.228
-0.004227968956517761,1.229
-0.03275578178091928,1.23
-0.0610376734790682,1.231
-0.08175015716258585,1.232
-0.08972912266598426,1.233
-0.083477250765104,1.234
-0.06498106731787748,1.235
-0.038509933217676255,1.236
-0.00926212027345044,1.237
0.017819297839312305,1.238
0.03895249088541792,1.239
0.05202921728859629,1.24
0.05668770550983099,1.241
0.054012364190519684,1.242
0.04600853659121965,1.243
0.035025819048050945,1.244
0.02327514914568788,1.245
0.012520557992652517,1.246
0.003945854060365892,1.247
-0.0018882942653623812,1.248
-0.005048759847524092,1.249
-0.006155770197732705,1.25
-0.006183638350550849,1.251
-0.0061393369634203145,1.252
-0.006693414384856314,1.253
-0.007902274715063684,1.254
-0.009193678890906654,1.255
-0.009677821694912193,1.256
-0.008604607409379404,1.257
-0.005703809934179372,1.258
-0.001286556624404264,1.259
0.0038678364961111837,1.26
0.008750161750241226,1.261
0.012362005739747944,1.262
0.013891138716352183,1.263
0.01286460803553079,1.264
0.009289960744838368,1.265
0.003676817161224086,1.266
-0.003129266281552425,1.267
-0.010200075973509228,1.268
-0.016676699709351952,1.269
-0.02174960086628823,1.27
-0.024630301191940977,1.271
-0.024703749542054267,1.272
-0.02180099566005023,1.273
-0.016374261510675343,1.274
-0.009436803512708597,1.275
-0.002266192371332499,1.276
0.004019681252048661,1.277
0.00884610269373105,1.278
0.012344836447185025,1.279
0.015180599523268884,1.28
0.01815070496963273,1.281
0.021790576380501737,1.282
0.026081061322791293,1.283
0.03027868710590753,1.284
0.03293813072446031,1.285
0.03219441984628906,1.286
0.026306503257332355,1.287
0.014368315031646706,1.288
-0.0030314502539785827,1.289
-0.023514724626921172,1.29
-0.04323398427619032,1.291
-0.057854605594965955,1.292
-0.06393989483039092,1.293
-0.06010620363846183,1.294
-0.04733287608976577,1.295
-0.02840058877980318,1.296
-0.006902699056759453,1.297
0.013745305067436018,1.298
0.03101283605430389,1.299
0.043525819781314076,1.3
0.05093061375159433,1.301
0.053485008770891025,1.302
0.05156936549254688,1.303
0.0453511164231219,1.304
0.03477879894457501,1.305
0.019954734460653364,1.306
0.0017106708161641069,1.307
-0.018031690168380497,1.308
-0.03642948650773823,1.309
-0.050332329357909315,1.31
-0.05703826574623316,1.311
-0.05497976216622402,1.312
-0.04424582647262084,1.313
-0.02681298669562172,1.314
-0.00627264181135876,1.315
0.01309833061846747,1.316
0.027656817682660796,1.317
0.035414417199943864,1.318
0.036300718680035114,1.319
0.03175581351488318,1.32
0.023990993369653667,1.321
0.015238524665572484,1.322
0.0072134839626174715,1.323
0.0008972934998893356,1.324
-0.003395993613889128,1.325
-0.005814833884110284,1.326
-0.006762203959749434,1.327
-0.006753843244666626,1.328
-0.0063406205696895845,1.329
-0.0060466456756760835,1.33
-0.006270163405557769,1.331
-0.007153303267074325,1.332
-0.008499886311380043,1.333
-0.009827678401723246,1.334
-0.010554827916322186,1.335
-0.010217278266193763,1.336
-0.008636449459580814,1.337
-0.00601183013097716,1.338
-0.0028888501453557666,1.339
3.828076685517576e-05,1.34
0.002229196162866755,1.341
0.0035500534034382473,1.342
0.004341597973591325,1.343
0.005279527940267422,1.344
0.007086688970528197,1.345
0.010173311946650457,1.346
0.014316325753624562,1.347
0.018546042420619253,1.348
0.021357536464252678,1.349
0.021225859433677722,1.35
0.01725358998405762,1.351
0.009654035779025866,1.352
-0.00018146083077419357,1.353
-0.010076993231139943,1.354
-0.01780009067462849,1.355
-0.021872465014105166,1.356
-0.022068998256473914,1.357
-0.019284000404873252,1.358
-0.014893626392999923,1.359
-0.01011159116180777,1.36
-0.0056856055237975486,1.361
-0.0019441194512252933,1.362
0.0009658778917070767,1.363
0.00287854215934276,1.364
0.003590721395055686,1.365
0.002977682812130876,1.366
0.001154073414241067,1.367
-0.0013981489228572,1.368
-0.0038643346679388766,1.369
-0.0053138661427865165,1.37
-0.004937795053406252,1.371
-0.002210586837922913,1.372
0.0029441673932508357,1.373
0.009912450196512278,1.374
0.017204035428424542,1.375
0.02259192195546142,1.376
0.023724544428235007,1.377
0.019101202136185633,1.378
0.009028445877004035,1.379
-0.004008438690371316,1.38
-0.015977235282394094,1.381
-0.022828274048952202,1.382
-0.022191924308290954,1.383
-0.014343399350959442,1.384
-0.0020250424132492225,1.385
0.010655979748368797,1.386
0.01968835697262505,1.387
0.022393418152596038,1.388
0.018087421078142877,1.389
0.008083477542520657,1.39
-0.004845170597485013,1.391
-0.017306980509462035,1.392
-0.026208796826958078,1.393
-0.029548265322116195,1.394
-0.026886934015137347,1.395
-0.019326058017712682,1.396
-0.008991672713660965,1.397
0.0016935329757585078,1.398
0.010641493192030652,1.399
0.016485503718757028,1.4
0.018711390648863933,1.401
0.017589511676247907,1.402
0.013963821203579484,1.403
0.008965648963108806,1.404
0.003760595966284676,1.405
-0.0005875407069827805,1.406
-0.003162983226363109,1.407
-0.003268004064219389,1.408
-0.0005829228922693411,1.409
0.004605226250087695,1.41
0.01121891894850679,1.411
0.017455663809722088,1.412
0.02121233019394117,1.413
0.020742308821478983,1.414
0.015267857642131783,1.415
0.005301805178761274,1.416
-0.0074082489124857554,1.417
-0.02026647699660905,1.418
-0.03042902085329338,1.419
-0.03552346623205737,1.42
-0.03440715708856769,1.421
-0.02766407472170173,1.422
-0.01743575886372167,1.423
-0.006589463692382823,1.424
0.002311323580801841,1.425
0.007758446921344878,1.426
0.00955787806135398,1.427
0.008600521507034251,1.428
0.006316052247765691,1.429
0.0040811185398498566,1.43
0.002814776077610783,1.431
0.0028589599131086437,1.432
0.004072024646088031,1.433
0.005989051258227051,1.434
0.007979832501059972,1.435
0.009409010152840803,1.436
0.009796033043578406,1.437
0.008929179019889343,1.438
0.006899353510860842,1.439
0.004088000752524441,1.44
0.0011225321305677644,1.441
-0.0012616722877878876,1.442
-0.002466311067417977,1.443
-0.002273971824145996,1.444
-0.0009620407990421286,1.445
0.0007720878549297644,1.446
0.0020614029118631045,1.447
0.0021999355681784774,1.448
0.000905561739770051,1.449
-0.0015930028158525579,1.45
-0.004659431860232247,1.451
-0.007483376338035934,1.452
-0.009332815537506386,1.453
-0.009724726935999376,1.454
-0.008502830004919722,1.455
-0.005848668613066457,1.456
-0.0022283674842994722,1.457
0.0017273901179824577,1.458
0.005378261806048118,1.459
0.008190958441635763,1.46
0.009773089335242584,1.461
0.009866916237770553,1.462
0.008402252955755663,1.463
0.005625926120094498,1.464
0.002179869566775284,1.465
-0.0010161616683437094,1.466
-0.0030832835856089156,1.467
-0.003526994808249297,1.468
-0.002409140218896909,1.469
-0.00032192450342942376,1.47
0.001750886767340344,1.471
0.0026693892722949248,1.472
0.0014986646177453575,1.473
-0.002097636265767918,1.474
-0.007607037642735701,1.475
-0.013687409997826071,1.476
-0.018497804993998317,1.477
-0.020276481097580356,1.478
-0.017958773239169137,1.479
-0.011553639493888095,1.48
-0.0021279654780709733,1.481
0.008548354665226503,1.482
0.018502752080003567,1.483
0.025993241981871286,1.484
0.029805774060272953,1.485
0.029437519958426518,1.486
0.025150619147996937,1.487
0.01786858504447306,1.488
0.008926681813594642,1.489
-0.00026235761674133623,1.49
-0.008521984012896262,1.491
-0.015090459871332706,1.492
-0.01962765477146015,1.493
-0.022122306678243824,1.494
-0.022789452840670372,1.495
-0.021970080671487795,1.496
-0.019999239396506406,1.497
-0.017077465225813538,1.498
-0.013250594760752542,1.499
-0.008535384282481812,1.5
-0.0030906488982008614,1.501
0.0027000343439284773,1.502
0.008283015159243377,1.503
0.01307160140996221,1.504
0.016575084834861385,1.505
0.018477518652114888,1.506
0.018666689791605427,1.507
0.017231384873738053,1.508
0.014443034139174384,1.509
0.010726202444361562,1.51
0.006621281390853267,1.511
0.0027141780997371285,1.512
-0.0004728550499294667,1.513
-0.002578065589003949,1.514
-0.0034559403371258986,1.515
-0.003206528844092624,1.516
-0.002173984029171709,1.517
-0.0008601891319036985,1.518
0.00023230559954033565,1.519
0.0007021279313973777,1.52
0.0002591256646088481,1.521
-0.0012598460178033343,1.522
-0.0038119287098661962,1.523
-0.00706874265142998,1.524
-0.010435082855310118,1.525
-0.013194328905743053,1.526
-0.014725707455011866,1.527
-0.014667239934969344,1.528
-0.012926124475827026,1.529
-0.009583759875700764,1.53
-0.0048175930163080315,1.531
0.0010748200950920828,1.532
0.007564485313017491,1.533
0.013802459704218754,1.534
0.018665607211207146,1.535
0.020983565965611236,1.536
0.019896646094986613,1.537
0.015206719957989823,1.538
0.007565121367615675,1.539
-0.0015870360227791707,1.54
-0.010321878524141114,1.541
-0.016714073503946804,1.542
-0.01938510279818023,1.543
-0.017927107542709566,1.544
-0.013031334197791586,1.545
-0.00620652106038615,1.546
0.0008100558250270442,1.547
0.006651535475958358,1.548
0.010662100260521255,1.549
0.012895286958049755,1.55
0.013836203663970627,1.551
0.013978493914872606,1.552
0.01346224635797211,1.553
0.011972295361726445,1.554
0.008942026309172249,1.555
0.003965051059649854,1.556
-0.0027409131057129794,1.557
-0.01005103740413429,1.558
-0.01611587921166012,1.559
-0.019075352729551496,1.56
-0.017952755839504148,1.561
-0.013163224505703477,1.562
-0.006329053229513664,1.563
0.00042086342022549855,1.564
0.005257159699542781,1.565
0.0072089642493402455,1.566
0.006311293817865392,1.567
0.0034073086691655957,1.568
-0.0002024674172748551,1.569
-0.0031326189432824923,1.57
-0.004278484975358431,1.571
-0.003134676877473707,1.572
1.5848565059894086e-05,1.573
0.004150279094549046,1.574
0.007857133544668169,1.575
0.009870762208182246,1.576
0.009534797653763425,1.577
0.006987287444810528,1.578
0.003022773612923456,1.579
-0.001250095134841783,1.58
-0.004786203316872983,1.581
-0.00689374770052531,1.582
-0.007373444705192302,1.583
-0.0064970477040631105,1.584
-0.004845648427014088,1.585
-0.0030510758315529804,1.586
-0.0015486164864710243,1.587
-0.00046784845923778233,1.588
0.0003121774666834949,1.589
0.0010139179950971013,1.59
0.0018051764859986197,1.591
0.00270701132732572,1.592
0.0036003471558315753,1.593
0.004298831113344991,1.594
0.004635163719469868,1.595
0.004536842853098143,1.596
0.004068353782105212,1.597
0.003415361231525642,1.598
0.002805276060812563,1.599
0.002393831034252828,1.6
0.0021726102814302725,1.601
0.0019457421007865719,1.602
0.0014097776127893656,1.603
0.00030326240590228596,1.604
-0.0014658632738482889,1.605
-0.0037518694241475883,1.606
-0.00617359103589681,1.607
-0.008223569730605286,1.608
-0.009446363559841922,1.609
-0.0095837948481974,1.61
-0.008627601902398823,1.611
-0.006772492896760067,1.612
-0.0043106673801198495,1.613
-0.001537721881297783,1.614
0.0012940798918379265,1.615
0.003978629680000316,1.616
0.006346821119436951,1.617
0.008283689108114322,1.618
0.009755297791777199,1.619
0.010774071382948872,1.62
0.011272008363600238,1.621
0.010984710839153086,1.622
0.009494028664656106,1.623
0.00644178461945304,1.624
0.0017939718635972002,1.625
-0.003983153909077324,1.626
-0.009942878249386769,1.627
-0.014907609653648514,1.628
-0.01783349611014333,1.629
-0.018121417851674267,1.63
-0.01578385253384781,1.631
-0.011410373618086715,1.632
-0.005949716968248516,1.633
-0.0004328072364271854,1.634
0.0042674846917240645,1.635
0.007611143415418543,1.636
0.009472894100278902,1.637
0.010086444484641166,1.638
0.00985870497318734,1.639
0.009152513626292413,1.64
0.008161787882160257,1.641
0.006941443656317724,1.642
0.005536963626617436,1.643
0.004094888636692497,1.644
0.002869783629677598,1.645
0.002116952250930864,1.646
0.001953694162116187,1.647
0.0022915168286698068,1.648
0.002855246924804689,1.649
0.0032588635068398625,1.65
0.003103400435304553,1.651
0.002060954752018773,1.652
-4.1253244155347056e-05,1.653
-0.003129113901332494,1.654
-0.006847859675220934,1.655
-0.010632987117255183,1.656
-0.013840675876857958,1.657
-0.015871657351606266,1.658
-0.016274891926780898,1.659
-0.014822763677297134,1.66
-0.011552605196631847,1.661
-0.006804964406468788,1.662
-0.001234005489040331,1.663
0.004293232212216764,1.664
0.008919467340968216,1.665
0.012036483111418354,1.666
0.013410515964549258,1.667
0.01315037972093247,1.668
0.011574886766970199,1.669
0.009078389710117216,1.67
0.006063873292540975,1.671
0.002936537964855379,1.672
9.985508327297924e-05,1.673
-0.002092859692090189,1.674
-0.0034107609204467393,1.675
-0.003784824323202216,1.676
-0.003303106434175516,1.677
-0.0021842214278585065,1.678
-0.0007437326672471557,1.679
0.0006549227186434005,1.68
0.0016853284497493433,1.681
0.00216300934314392,1.682
0.002116279730647928,1.683
0.0017661200736854962,1.684
0.001399177765891187,1.685
0.0011843999428107147,1.686
0.0010354266843596851,1.687
0.0006360696199896935,1.688
-0.0003432553982841862,1.689
-0.001983646288802058,1.69
-0.004020319629584477,1.691
-0.005959462814648924,1.692
-0.0072727304311733685,1.693
-0.007538239672004836,1.694
-0.0065116629319362275,1.695
-0.004180955395223877,1.696
-0.000822188029226,1.697
0.0029899049288849913,1.698
0.00646655095479102,1.699
0.008789809777592417,1.7
0.009341210423505684,1.701
0.007897780052978084,1.702
0.004718504735642589,1.703
0.00048139454507040874,1.704
-0.0038833014741949242,1.705
-0.0074131347278975695,1.706
-0.0093586434881469,1.707
-0.009384612334862763,1.708
-0.007639184877778235,1.709
-0.004664515579186304,1.71
-0.0012105841181423156,1.711
0.001967080813058389,1.712
0.004283054588983372,1.713
0.005440035235790725,1.714
0.005455077598056358,1.715
0.004595015947484777,1.716
0.0032568896847742787,1.717
0.001835401510561888,1.718
0.0006213311590996678,1.719
-0.0002446144158829765,1.72
-0.0007645679063937392,1.721
-0.0010355223406867513,1.722
-0.0011873641235188755,1.723
-0.0013257832146038218,1.724
-0.0014805103521868077,1.725
-0.001575992074746656,1.726
-0.001447566943814705,1.727
-0.0009054531052688224,1.728
0.00017239484124241154,1.729
0.001763458456181071,1.73
0.0036696191448747535,1.731
0.0055269667494310115,1.732
0.006870317469540146,1.733
0.007261250395674983,1.734
0.00643406085309141,1.735
0.0044007861630292215,1.736
0.0014836641417924738,1.737
-0.0017309923007239548,1.738
-0.004519511757939901,1.739
-0.006215992521431263,1.74
-0.006416898610820125,1.741
-0.005111100349571364,1.742
-0.002684764890821153,1.743
0.00018878951959279362,1.744
0.002734279120365676,1.745
0.004276777481041956,1.746
0.004402650594515834,1.747
0.003051050470026493,1.748
0.0005181047905334741,1.749
-0.0026288152494140377,1.75
-0.005706557235215058,1.751
-0.008089692331150476,1.752
-0.009331967156632181,1.753
-0.009219591390690667,1.754
-0.007780469354634994,1.755
-0.005265792048034002,1.756
-0.0021117966639029673,1.757
0.001121482915077413,1.758
0.0038515161327195655,1.759
0.0056153918181815685,1.76
0.006195724349585778,1.761
0.005666813509663429,1.762
0.004356226556561568,1.763
0.0027544947317428613,1.764
0.0013926334830125172,1.765
0.0007018077347750147,1.766
0.000903764570178721,1.767
0.0019676516866350556,1.768
0.0036246755279033954,1.769
0.005420642959409167,1.77
0.006798068397183776,1.771
0.007225559455670052,1.772
0.006370017976345472,1.773
0.004240162107807028,1.774
0.0012069421600037996,1.775
-0.0021163112911769593,1.776
-0.005055883799311082,1.777
-0.00705027749377682,1.778
-0.0077740255133312555,1.779
-0.007190068395412175,1.78
-0.00553567006839657,1.781
-0.0032579765521184795,1.782
-0.0009235391033979025,1.783
0.0008873167530163947,1.784
0.0017033814924604942,1.785
0.0012868095141542954,1.786
-0.00028567481904786174,1.787
-0.0026346107864520796,1.788
-0.005176566139668992,1.789
-0.007268179408371785,1.79
-0.008351723121288637,1.791
-0.008058608788940746,1.792
-0.006267484573276071,1.793
-0.003135832517556554,1.794
0.0008925411551240391,1.795
0.005138205138339741,1.796
0.008836895915572318,1.797
0.011351814218390412,1.798
0.01233986336845864,1.799
0.011805153645709611,1.8
0.010052139785913804,1.801
0.007566640285638941,1.802
0.004861003709059334,1.803
0.002351462005918216,1.804
0.0003118403967173168,1.805
-0.0011125094033146246,1.806
-0.0018853705370396455,1.807
-0.0020871261140686936,1.808
-0.0019231439767714964,1.809
-0.0016948718611507698,1.81
-0.0017217254134982653,1.811
-0.0022287984041910935,1.812
-0.0032463339948495245,1.813
-0.004601661074438579,1.814
-0.006022918217779892,1.815
-0.007257044798628272,1.816
-0.0081284872217041,1.817
-0.008536966226087479,1.818
-0.00840620837857816,1.819
-0.007623519585286464,1.82
-0.006034315131510102,1.821
-0.0035221036207980705,1.822
-0.00011420522510304697,1.823
0.0039680588981477645,1.824
0.008320186534169627,1.825
0.012389738817896442,1.826
0.015524816880802,1.827
0.0170730627170712,1.828
0.01653382875218665,1.829
0.013701399728404074,1.83
0.008763223385238262,1.831
0.0023228825262179694,1.832
-0.004688229290194632,1.833
-0.011180367154153636,1.834
-0.016090819013084047,1.835
-0.01855965300059874,1.836
-0.018097348763037844,1.837
-0.014713361869431275,1.838
-0.008949188561407752,1.839
-0.0017931780391576833,1.84
0.005496640374673611,1.841
0.011617302910105456,1.842
0.015462695444098819,1.843
0.016351890008609638,1.844
0.014190392427249605,1.845
0.009512676992288567,1.846
0.0033776605142676478,1.847
-0.0028868919788416787,1.848
-0.00803990214512472,1.849
-0.011245842273133596,1.85
-0.012212123383761486,1.851
-0.011123577249824127,1.852
-0.008475421613098924,1.853
-0.004911688684487286,1.854
-0.0011058831966315648,1.855
0.0023316953934139567,1.856
0.004943414423922806,1.857
0.006495678410836018,1.858
0.006975305006683404,1.859
0.006516090700620333,1.86
0.005338465672311023,1.861
0.003727076189496057,1.862
0.001997564212099871,1.863
0.0004318617936465722,1.864
-0.0007849060857736687,1.865
-0.0015873630077440266,1.866
-0.0020149850459616116,1.867
-0.00218550915312266,1.868
-0.0022548956534942047,1.869
-0.0023502349254323276,1.87
-0.00250052277252665,1.871
-0.0026176661628696416,1.872
-0.0025463746554773292,1.873
-0.002148526626463714,1.874
-0.0013840092464777985,1.875
-0.0003528446674436229,1.876
0.0007439383393551519,1.877
0.0017054371847129808,1.878
0.0024147372005527508,1.879
0.0028690255920076286,1.88
0.003167048218374909,1.881
0.0034514067105211703,1.882
0.003804686297625635,1.883
0.0041467108733796295,1.884
0.004212196200207367,1.885
0.003635905227458997,1.886
0.0021016736254526472,1.887
-0.0004933090341167006,1.888
-0.003907163787476402,1.889
-0.00752124607281323,1.89
-0.01046384384630997,1.891
-0.011874292176269733,1.892
-0.011187175017433163,1.893
-0.008299930192240101,1.894
-0.003581455748013364,1.895
0.0022324299431605204,1.896
0.008190595373197974,1.897
0.013275448423177844,1.898
0.016548370698625105,1.899
0.017321198112367868,1.9
0.01532116711221605,1.901
0.010776970846321302,1.902
0.004404919412962239,1.903
-0.0026891562481438924,1.904
-0.009201593760098386,1.905
-0.013922960288827545,1.906
-0.0160495694482589,1.907
-0.015381111398510595,1.908
-0.0123267286841359,1.909
-0.007741055035933772,1.91
-0.0026769927277723368,1.911
0.0018653467446079518,1.912
0.0051364769067073004,1.913
0.006749611163397877,1.914
0.006710241657869411,1.915
0.005357491421793478,1.916
0.003216609415306113,1.917
0.0008366100357873658,1.918
-0.001308828189828311,1.919
-0.0028723419039665436,1.92
-0.0036672487457440842,1.921
-0.003667765285050727,1.922
-0.0029701695069268737,1.923
-0.0017457654147243688,1.924
-0.00019926250470966313,1.925
0.0014750381619744336,1.926
0.003116972755633252,1.927
0.0045863720604037445,1.928
0.0057465951969901015,1.929
0.006470137020798852,1.93
0.0066522414874974675,1.931
0.006230133741752457,1.932
0.005213853491652484,1.933
0.0037120946046523343,1.934
0.0019280770318392654,1.935
0.00011659660981298915,1.936
-0.0014826305238288806,1.937
-0.00269983986939633,1.938
-0.0034687794378962314,1.939
-0.0038497593310998744,1.94
-0.004018537626167318,1.941
-0.004200993871941697,1.942
-0.004568119523388596,1.943
-0.005132360891268944,1.944
-0.005712348995140547,1.945
-0.006006982451097581,1.946
-0.005735862505365725,1.947
-0.004754695750511418,1.948
-0.0031035866488901094,1.949
-0.0009998421731025554,1.95
0.001215200866000069,1.951
0.003176093081274536,1.952
0.004615885896843744,1.953
0.005438677021168933,1.954
0.00569547727048053,1.955
0.0054992524288652095,1.956
0.004947940801633305,1.957
0.004104669159492545,1.958
0.0030363218689042713,1.959
0.0018569849329325584,1.96
0.0007203325338029225,1.961
-0.00022741065629502033,1.962
-0.0008857891022123649,1.963
-0.0012164528397618723,1.964
-0.0012462209025452438,1.965
-0.001055966459760866,1.966
-0.000760342110952373,1.967
-0.00048798919214232015,1.968
-0.00034920953337289913,1.969
-0.00038927474891564884,1.97
-0.0005605740010948116,1.971
-0.000741181560125343,1.972
-0.0007998213664455345,1.973
-0.0006684044542268846,1.974
-0.00037315918096978394,1.975
-9.402793148321098e-06,1.976
0.0003264577308134568,1.977
0.0005930421833312182,1.978
0.0008014389437323355,1.979
0.0009820718050886049,1.98
0.0011491180832787033,1.981
0.001270386589202715,1.982
0.001272472476748747,1.983
0.0010912683103998266,1.984
0.0007388260421037457,1.985
0.0003273878966317465,1.986
7.350619112035912e-06,1.987
-0.00013582937588424624,1.988
-0.00012874580832380304,1.989
-6.837579142322387e-05,1.99
-5.5830524571177294e-05,1.991
-0.00016925355952162845,1.992
-0.00046861468244527424,1.993
-0.0009962557155026855,1.994
-0.0017608579012912684,1.995
-0.002713487373964693,1.996
-0.0037353059621207958,1.997
-0.004652920505737703,1.998
-0.005268838650713913,1.999
-0.005397287118355771,2.0
-0.00491792541046643,2.001
-0.00383332836907425,2.002
-0.002279532749453619,2.003
-0.0004757684343513044,2.004
