VaMe,time
-0.00017026303718451323,0.001
0.006356980952524725,0.002
0.012321535414655272,0.003
0.0171051288948454,0.004
0.020065551754971888,0.005
0.020690490730646577,0.006
0.018775173566775424,0.007
0.0145429454649243,0.008
0.008655943605984779,0.009
0.002101022836567301,0.01
-0.004041835587412216,0.011
-0.008866775601836373,0.012
-0.01182863840874492,0.013
-0.012805106640793887,0.014
-0.012064653403040656,0.015
-0.010164295023671825,0.016
-0.0077777250221659645,0.017
-0.005498873603331293,0.018
-0.0036932571770273664,0.019
-0.0024200884734120152,0.02
-0.0014252867404632753,0.021
-0.0002397259939960033,0.022
0.0016046287403004545,0.023
0.004316426724532321,0.024
0.007673548182259472,0.025
0.01103827168363043,0.026
0.013574322152897493,0.027
0.014581843851061378,0.028
0.013765839019681612,0.029
0.011293424705662771,0.03
0.007675432795484082,0.031
0.00356694626429173,0.032
-0.00043867674544806573,0.033
-0.0039343800455303975,0.034
-0.0067292695270822385,0.035
-0.008846052125010745,0.036
-0.010486967258346884,0.037
-0.011932485480153274,0.038
-0.013406043930667935,0.039
-0.014949907727186316,0.04
-0.016333477005928774,0.041
-0.017037541825863645,0.042
-0.016347821170101695,0.043
-0.013576387855658957,0.044
-0.008390315035719104,0.045
-0.0011118432709123775,0.046
0.007203189788919627,0.047
0.015010098176300023,0.048
0.020740542864600236,0.049
0.02325781957147424,0.05
0.022158332135249332,0.051
0.017891495611559297,0.052
0.011662874554695295,0.053
0.00509395767678263,0.054
-0.0002769178116725141,0.055
-0.0034820412942701867,0.056
-0.004398598461881523,0.057
-0.0036522045747122357,0.058
-0.0022203035991073274,0.059
-0.0010129775775113926,0.06
-0.0006288519382275288,0.061
-0.0012804219111539803,0.062
-0.0028172327542881933,0.063
-0.004809021910314128,0.064
-0.006657170762478015,0.065
-0.007714074826484381,0.066
-0.007420685314826642,0.067
-0.00545402055283137,0.068
-0.0018422250778552818,0.069
0.002981773487351828,0.07
0.0082167096822234,0.071
0.012840974226998134,0.072
0.01581324975110404,0.073
0.01625667761061933,0.074
0.013657452241997884,0.075
0.008109482545951735,0.076
0.0004680626908863249,0.077
-0.007781844806003169,0.078
-0.0149353976790695,0.079
-0.019570632975317196,0.08
-0.020937299266588005,0.081
-0.019099458351470436,0.082
-0.014834427945225173,0.083
-0.009369060938349808,0.084
-0.004036955182704545,0.085
6.901794715616762e-05,0.086
0.002369000091214137,0.087
0.0029054011405889413,0.088
0.002239789033834685,0.089
0.0011957418959778494,0.09
0.0005860127533201866,0.091
0.000998043520353338,0.092
0.002619050193596927,0.093
0.005120392020841401,0.094
0.007705741962531624,0.095
0.009376930882445613,0.096
0.009300120887022345,0.097
0.00708743058099263,0.098
0.0029087370931826033,0.099
-0.00254262002487876,0.1
-0.008155685012787779,0.101
-0.012547483870179786,0.102
-0.014312053688201728,0.103
-0.012396922230575749,0.104
-0.006509555497817388,0.105
0.0026057106983913636,0.106
0.013198436042162308,0.107
0.02293646205782631,0.108
0.029591166324195766,0.109
0.03169298302342078,0.11
0.02889693191833263,0.111
0.02195382542146714,0.112
0.012354092238020425,0.113
0.0018081252340095854,0.114
-0.008234667965274126,0.115
-0.016811155338513042,0.116
-0.02334960308082741,0.117
-0.027455347299397803,0.118
-0.02880902924207215,0.119
-0.027215303846181038,0.12
-0.022734699153047738,0.121
-0.015827040934979934,0.122
-0.0074103391105627995,0.123
0.0012480467323549907,0.124
0.008802177789696532,0.125
0.014143309464398058,0.126
0.01662064729344575,0.127
0.0161276658015795,0.128
0.013065517680314762,0.129
0.008180914152004587,0.13
0.002340146774009912,0.131
-0.003654258809163455,0.132
-0.009127896093135485,0.133
-0.013472832989157154,0.134
-0.016066269048110548,0.135
-0.016294737032373958,0.136
-0.0137199617422952,0.137
-0.008326617171323653,0.138
-0.0007167223772017647,0.139
0.007882970901308626,0.14
0.015842831038386518,0.141
0.02151286553525437,0.142
0.023642519880893175,0.143
0.021704623546344764,0.144
0.016013616727502667,0.145
0.007601020147146299,0.146
-0.0020792290458780042,0.147
-0.011469066664046413,0.148
-0.01916332071222644,0.149
-0.024099565824333827,0.15
-0.025666636271913762,0.151
-0.023720514250352116,0.152
-0.018548897370045163,0.153
-0.010847897689391296,0.154
-0.0016564421416963818,0.155
0.007899760771388393,0.156
0.01699164822754073,0.157
0.025258719542486197,0.158
0.03256526840456013,0.159
0.038539513503964215,0.16
0.042252436093005344,0.161
0.04225819505159868,0.162
0.037025927623902444,0.163
0.025627257392706736,0.164
0.008410601678989901,0.165
-0.012672430961679228,0.166
-0.03433704453844558,0.167
-0.05281034671272754,0.168
-0.0648967366005426,0.169
-0.06876927575704042,0.17
-0.06420876507104195,0.171
-0.05237762908590913,0.172
-0.03537352976030803,0.173
-0.0157245793287514,0.174
0.0040870250520016835,0.175
0.02197717536149476,0.176
0.036441086380019895,0.177
0.046624172834352724,0.178
0.05231358886591627,0.179
0.053772877270053435,0.18
0.05142394423926477,0.181
0.04555297056317585,0.182
0.03623831150033042,0.183
0.023579715470027247,0.184
0.008112624521067693,0.185
-0.008870353714581126,0.186
-0.025319532090088203,0.187
-0.03877784618412521,0.188
-0.04698810998721695,0.189
-0.04859279230802068,0.19
-0.0436343948261186,0.191
-0.033567734220203364,0.192
-0.020750498130050955,0.193
-0.007694888120655372,0.194
0.0035558314001307278,0.195
0.011755999922394353,0.196
0.01651091435606883,0.197
0.018130578967260235,0.198
0.017361733882369737,0.199
0.015053852231673485,0.2
0.011856903025634398,0.201
0.008116654014845912,0.202
0.0040172084010681,0.203
-0.00017630132959179731,0.204
-0.0039511705616459515,0.205
-0.006568801857832584,0.206
-0.007313356056980474,0.207
-0.0058296493015182835,0.208
-0.002312257839912989,0.209
0.0025328089565091346,0.21
0.007667853333663685,0.211
0.01195832499338331,0.212
0.014422178442289085,0.213
0.014477246481209266,0.214
0.012142317296160625,0.215
0.00806542503059446,0.216
0.0032851717138777784,0.217
-0.0011782332036807818,0.218
-0.004687076428512537,0.219
-0.007145944814266798,0.22
-0.008920310449047243,0.221
-0.010551282224235167,0.222
-0.01236235269019141,0.223
-0.014152663969545546,0.224
-0.015179839923060288,0.225
-0.01447241774582439,0.226
-0.011291029271347716,0.227
-0.005481040830773289,0.228
0.0024030963664226214,0.229
0.011156426314492525,0.23
0.019106897958931043,0.231
0.024462462523447998,0.232
0.02581583918961794,0.233
0.022590915101313714,0.234
0.015205514968418413,0.235
0.004944948895764178,0.236
-0.006355388182861327,0.237
-0.01673031720304015,0.238
-0.02447025528052594,0.239
-0.028362785706129472,0.24
-0.027834725449743563,0.241
-0.023074392690790625,0.242
-0.015097260131578933,0.243
-0.005617742610641837,0.244
0.0033596182121554126,0.245
0.010126191821744731,0.246
0.013771010647332734,0.247
0.014336545909079056,0.248
0.012560306292940929,0.249
0.009401848283874914,0.25
0.0056632379939814854,0.251
0.0018556982204274406,0.252
-0.0017430937595657673,0.253
-0.00493757598939937,0.254
-0.007487101370635091,0.255
-0.009093765602161477,0.256
-0.00944452811410786,0.257
-0.008247327085517139,0.258
-0.005289910555124903,0.259
-0.000512647305972101,0.26
0.005965384469998882,0.261
0.013872020723819871,0.262
0.02274527433922417,0.263
0.031751331206979434,0.264
0.03952327519422792,0.265
0.04428262045016403,0.266
0.04424081096516069,0.267
0.03806426143280319,0.268
0.02527051520448778,0.269
0.006527271649113314,0.27
-0.01622861284927119,0.271
-0.03999875249020943,0.272
-0.06126210537590083,0.273
-0.07665290642362262,0.274
-0.08358585654596641,0.275
-0.0807197948916147,0.276
-0.06822266743407425,0.277
-0.047846744954128675,0.278
-0.022770315908950983,0.279
0.0029098678540192837,0.28
0.02507134089751151,0.281
0.04062805884904167,0.282
0.048370976174124454,0.283
0.049221507408443436,0.284
0.045687460335958226,0.285
0.04071182549216457,0.286
0.036525502131270496,0.287
0.034038683069757214,0.288
0.03284295450592818,0.289
0.031580777019809256,0.29
0.028494380583280535,0.291
0.022056105840649008,0.292
0.011507843174535464,0.293
-0.00279480252587112,0.294
-0.0192285142009747,0.295
-0.03506484986360528,0.296
-0.047125717496316034,0.297
-0.05278888113972407,0.298
-0.05084490640605471,0.299
-0.041774848950915454,0.3
-0.027425281897299193,0.301
-0.010359845605118476,0.302
0.006792357608680153,0.303
0.021764291953768312,0.304
0.03279731647031724,0.305
0.03863391236112362,0.306
0.038515752439909165,0.307
0.032259196812397375,0.308
0.020439542028012528,0.309
0.004636966061328329,0.31
-0.012468506105269067,0.311
-0.02741598352716671,0.312
-0.036754278273138805,0.313
-0.038035286074707964,0.314
-0.03062266166075673,0.315
-0.016065940827967536,0.316
0.0021255173576547846,0.317
0.019403814656350823,0.318
0.03154191661030115,0.319
0.035846831995395415,0.32
0.031784171042193304,0.321
0.02092658026856371,0.322
0.0063298496280343106,0.323
-0.00845546253664872,0.324
-0.020382786386243627,0.325
-0.02754957506143777,0.326
-0.02934804067975522,0.327
-0.0262862042578509,0.328
-0.019725317988726506,0.329
-0.011624585518393475,0.33
-0.004195968518974139,0.331
0.0006348976661312388,0.332
0.0018562677063146556,0.333
-0.0002162909149303662,0.334
-0.004004417898094132,0.335
-0.007239495815100178,0.336
-0.007785677521719005,0.337
-0.004364130553696929,0.338
0.003063769525554133,0.339
0.013370680293506727,0.34
0.02469359342757437,0.341
0.03495337344853094,0.342
0.04226460770265196,0.343
0.0451775061082464,0.344
0.042800999127151566,0.345
0.034914021907803176,0.346
0.02210560777000612,0.347
0.0058205321669608226,0.348
-0.011825863254533166,0.349
-0.028433807839142167,0.35
-0.04178341719819869,0.351
-0.05022678832516464,0.352
-0.052845447984534846,0.353
-0.049344610049485906,0.354
-0.03987269609903703,0.355
-0.025000416797374362,0.356
-0.005892879401347409,0.357
0.015505282363073749,0.358
0.036455990347559586,0.359
0.05366047376992244,0.36
0.06375283576887958,0.361
0.06401485624174029,0.362
0.05317462957776973,0.363
0.032033956762583644,0.364
0.003643664514884825,0.365
-0.027105921034792934,0.366
-0.05445485085798012,0.367
-0.07314535409997436,0.368
-0.07983561521669888,0.369
-0.07405489886140827,0.37
-0.05822204598751764,0.371
-0.036606150545986024,0.372
-0.013732446430391756,0.373
0.006981404002172465,0.374
0.023805294855625162,0.375
0.03642154679570937,0.376
0.04524704959699662,0.377
0.05088671062198906,0.378
0.05385961395491263,0.379
0.05444013805071026,0.38
0.052477194350641646,0.381
0.04732139705390682,0.382
0.038101146234643675,0.383
0.02429985085641093,0.384
0.006333985525397396,0.385
-0.014176729656526381,0.386
-0.03463769163822723,0.387
-0.052097429162374684,0.388
-0.06388264433635506,0.389
-0.06804105115946715,0.39
-0.06369720320885511,0.391
-0.05139399985275817,0.392
-0.03322594450516567,0.393
-0.012478278329719384,0.394
0.007202134023633398,0.395
0.022708141994423975,0.396
0.03210986722792592,0.397
0.03495345152887097,0.398
0.03220638804785943,0.399
0.02582103339012398,0.4
0.018040487421620694,0.401
0.010766964176237383,0.402
0.005251197072167783,0.403
0.002034528787919726,0.404
0.0009304337583108647,0.405
0.0011007402279438728,0.406
0.0014374368802114775,0.407
0.0011696572817026553,0.408
0.00032803557406686155,0.409
-0.00023720708637369497,0.41
0.0006913133703288033,0.411
0.0040130703582069915,0.412
0.009718751852015931,0.413
0.01663664025731484,0.414
0.022621783732994376,0.415
0.025154444313966958,0.416
0.022164517464641036,0.417
0.012803519941512872,0.418
-0.0020833970354278823,0.419
-0.019950687216185904,0.42
-0.037089503484962726,0.421
-0.049615711734663004,0.422
-0.05461954540154061,0.423
-0.05110421785603007,0.424
-0.04034092524725063,0.425
-0.025386539826745564,0.426
-0.009898789845694998,0.427
0.0031692865327103683,0.428
0.012375843288774661,0.429
0.017878469209269384,0.43
0.020977450180682623,0.431
0.023387449119647713,0.432
0.026471507376011807,0.433
0.0306406587483461,0.434
0.03510050771148977,0.435
0.03808599687971374,0.436
0.03751349158905515,0.437
0.03176368164243734,0.438
0.020380638382166458,0.439
0.0045479147034900354,0.44
-0.012900827375966255,0.441
-0.02814124754220806,0.442
-0.03753525203797411,0.443
-0.038831791907766144,0.444
-0.03190176768033098,0.445
-0.018747407021112144,0.446
-0.002891379043054052,0.447
0.011465513303670537,0.448
0.020314587061751144,0.449
0.020817912835657953,0.45
0.012251717291080285,0.451
-0.0035581581242161288,0.452
-0.022627531490811682,0.453
-0.0399178842320687,0.454
-0.05071938019518134,0.455
-0.05184763654706212,0.456
-0.04236528960723549,0.457
-0.023750536751288406,0.458
0.0004721530947530907,0.459
0.025660721643547005,0.46
0.04733082452282992,0.461
0.062187980885507935,0.462
0.06847935255109482,0.463
0.065786610266019,0.464
0.054723598837156315,0.465
0.0368664102202507,0.466
0.014797225597878574,0.467
-0.008134254807759938,0.468
-0.028457955968702903,0.469
-0.04334723262767603,0.47
-0.05122163766632412,0.471
-0.05201556581275158,0.472
-0.04688353817936062,0.473
-0.03738186302162895,0.474
-0.024646877503121615,0.475
-0.009109336439368725,0.476
0.009102101348116015,0.477
0.02923019691903108,0.478
0.04886657718027119,0.479
0.06360421369554017,0.48
0.06803094769139115,0.481
0.05785529855982773,0.482
0.032079237891644984,0.483
-0.0058814780787843825,0.484
-0.04863035034360611,0.485
-0.08656015097987031,0.486
-0.11024178451572329,0.487
-0.11274852265797397,0.488
-0.09147402482991512,0.489
-0.04902614809302124,0.49
0.007152849968665317,0.491
0.06631900437989173,0.492
0.11656496859790748,0.493
0.14720769306112189,0.494
0.1511827267249454,0.495
0.12681222491564428,0.496
0.07831652193762673,0.497
0.015004451072917174,0.498
-0.050575709031033166,0.499
-0.10531578503072869,0.5
-0.1387453538691626,0.501
-0.14587194866107098,0.502
-0.12837314034144864,0.503
-0.09340560159140804,0.504
-0.05071063905242189,0.505
-0.009508757140121758,0.506
0.023716702857580402,0.507
0.04608833590939044,0.508
0.05793455982554264,0.509
0.06160643656444608,0.51
0.060073755336717,0.511
0.05578647604550302,0.512
0.050091437249220494,0.513
0.0432309330327212,0.514
0.03480312827594106,0.515
0.024495730980113258,0.516
0.012794078153717943,0.517
0.001249682874965443,0.518
-0.007965053291448733,0.519
-0.013042443003535499,0.52
-0.013485444925108555,0.521
-0.010476825323978214,0.522
-0.006505561546389411,0.523
-0.004376881525362785,0.524
-0.005942907806506692,0.525
-0.011065088423456604,0.526
-0.01735315708692195,0.527
-0.020990862299048195,0.528
-0.018464979327175047,0.529
-0.00849150083738412,0.53
0.006794397581784833,0.531
0.022076138988508173,0.532
0.030682314982495802,0.533
0.02734173425561572,0.534
0.01050801107588882,0.535
-0.01682500456883065,0.536
-0.04799916821676695,0.537
-0.07476665174170986,0.538
-0.08978919048000111,0.539
-0.0887533821302647,0.54
-0.07143744455168667,0.541
-0.041545975331893026,0.542
-0.005593922071824306,0.543
0.02886176987335108,0.544
0.05529511717756803,0.545
0.06990415068402857,0.546
0.07226276193538107,0.547
0.06487773058207211,0.548
0.05207766541340319,0.549
0.03862388741665327,0.55
0.028304043442454938,0.551
0.02289215646568203,0.552
0.021898131968071177,0.553
0.023109040989709555,0.554
0.023539370953434422,0.555
0.020502874391874114,0.556
0.012614096622269382,0.557
0.00037768660681057977,0.558
-0.013925861704792365,0.559
-0.02701254172943901,0.56
-0.03577704159758015,0.561
-0.038543581414822364,0.562
-0.0358577588754457,0.563
-0.030342253822560467,0.564
-0.02559170984270738,0.565
-0.024591804721823516,0.566
-0.028370765654578772,0.567
-0.035453406615386346,0.568
-0.042378306031412856,0.569
-0.04516536729453538,0.57
-0.04106715506529137,0.571
-0.029622700210443116,0.572
-0.012572430763483227,0.573
0.007055264903879192,0.574
0.026175998600922734,0.575
0.04277036336166837,0.576
0.0565407572395431,0.577
0.06880441819525662,0.578
0.08152180077251502,0.579
0.09573038035683377,0.58
0.10994953277653023,0.581
0.11933744215920912,0.582
0.11645147036958332,0.583
0.0938822094929453,0.584
0.0477895360690279,0.585
-0.019292716406654885,0.586
-0.09760175000114923,0.587
-0.17175080288537187,0.588
-0.22454374416789802,0.589
-0.24209771520003515,0.59
-0.21880337639746616,0.591
-0.15998333858003325,0.592
-0.08043644616715445,0.593
0.0008043031970907575,0.594
0.06683834688313212,0.595
0.10751924749624953,0.596
0.1210483687352822,0.597
0.11273047951576387,0.598
0.09187321347397862,0.599
0.06817060275096004,0.6
0.04889299403713207,0.601
0.0376048797145403,0.602
0.03424893994185123,0.603
0.03607165359554349,0.604
0.03895377438765048,0.605
0.038792699670147715,0.606
0.03261999734130182,0.607
0.019268845396292585,0.608
-0.000371806135509653,0.609
-0.023462718029177723,0.61
-0.04577975485169358,0.611
-0.06277932701566016,0.612
-0.07086794097924105,0.613
-0.06832607673166817,0.614
-0.05550875099508715,0.615
-0.03445216618948536,0.616
-0.008409626120448023,0.617
0.018357471439925232,0.618
0.040884452121351826,0.619
0.05440962136100164,0.62
0.05568764702270651,0.621
0.044039034325447195,0.622
0.021660950823385466,0.623
-0.006879083865530466,0.624
-0.035673967508625254,0.625
-0.05870636942511343,0.626
-0.07114645621413695,0.627
-0.07042415147980029,0.628
-0.056606451948905276,0.629
-0.03206431534492441,0.63
-0.0009086790612610159,0.631
0.03152824483133631,0.632
0.05932108608403484,0.633
0.07697184840409174,0.634
0.08086083625640306,0.635
0.07060423285488884,0.636
0.049481676585977095,0.637
0.02350235596453628,0.638
-0.0004967392427027424,0.639
-0.016856153754429136,0.64
-0.022546071478675114,0.641
-0.017856275983551873,0.642
-0.006370418903040647,0.643
0.0058498082767021176,0.644
0.012111796052862934,0.645
0.007691464545467687,0.646
-0.008026327448753697,0.647
-0.031156549713082904,0.648
-0.054959326584349696,0.649
-0.07264367453092692,0.65
-0.07986912402009898,0.651
-0.07582833308098842,0.652
-0.06266008106892691,0.653
-0.04369447776028113,0.654
-0.021536940398576263,0.655
0.002908571113440449,0.656
0.02988862095261388,0.657
0.059163281758776956,0.658
0.08854703119244502,0.659
0.11361461009826376,0.66
0.12858002718444464,0.661
0.12777777734507134,0.662
0.10725215954106279,0.663
0.06627723258086818,0.664
0.008611706222298877,0.665
-0.05715975792870513,0.666
-0.1189467735552966,0.667
-0.16419257332171333,0.668
-0.1835497536836178,0.669
-0.1733982287402216,0.67
-0.13611465907184755,0.671
-0.07847775907619872,0.672
-0.009415079137470587,0.673
0.061812215139584605,0.674
0.12650606437890602,0.675
0.17669324209423504,0.676
0.20524375989535995,0.677
0.20669631511135572,0.678
0.17884368435016704,0.679
0.12423790109417657,0.68
0.05054414282053943,0.681
-0.03075095739164524,0.682
-0.1069187642421955,0.683
-0.16689701499819115,0.684
-0.2033813048251369,0.685
-0.21337476504415853,0.686
-0.19744167094722617,0.687
-0.15867431247894975,0.688
-0.10220646829695924,0.689
-0.03514704281578154,0.69
0.03380420975548154,0.691
0.09543623999683731,0.692
0.141627372090879,0.693
0.16699570854512047,0.694
0.16994942749116881,0.695
0.15266368111825362,0.696
0.11998622546402767,0.697
0.0777684277598617,0.698
0.03147345624780374,0.699
-0.014235696338330647,0.7
-0.055063315141451026,0.701
-0.08664972818971733,0.702
-0.10470949613982387,0.703
-0.10577163084556505,0.704
-0.08858360644862036,0.705
-0.05597621915876574,0.706
-0.015819141183381142,0.707
0.020613369844828207,0.708
0.042689913526376855,0.709
0.04477880082842869,0.71
0.028752193436253935,0.711
0.0034705343098830736,0.712
-0.01883343637038411,0.713
-0.028016140986168277,0.714
-0.020698529386772208,0.715
-0.0014854720375058258,0.716
0.019779258794658066,0.717
0.03261807830706153,0.718
0.029836716813307566,0.719
0.00964803421608915,0.72
-0.02393360284390258,0.721
-0.06222179687562353,0.722
-0.09437707634549891,0.723
-0.11061227697865836,0.724
-0.10482851521157123,0.725
-0.07587655580239758,0.726
-0.027497407966744374,0.727
0.03262008946475722,0.728
0.09429481659962503,0.729
0.14666167066197022,0.73
0.18022921331135727,0.731
0.18873480353537506,0.732
0.1701165928880234,0.733
0.12656469753020333,0.734
0.06434395220944392,0.735
-0.006264072638340881,0.736
-0.07151079012489732,0.737
-0.11640755595985676,0.738
-0.12919571737263505,0.739
-0.10646838210500648,0.74
-0.055765075643080905,0.741
0.006213402752580685,0.742
0.058986161620768085,0.743
0.08506066927707358,0.744
0.07572065048244377,0.745
0.03394572683552669,0.746
-0.02670380805749756,0.747
-0.08730222062849136,0.748
-0.13107821619422078,0.749
-0.14962530619866013,0.75
-0.14443730510241592,0.751
-0.12357982618472403,0.752
-0.09645971756965938,0.753
-0.06986890858855418,0.754
-0.046564340003317155,0.755
-0.025731392221822805,0.756
-0.004484879352952365,0.757
0.01988416218760582,0.758
0.047846506631748574,0.759
0.07704129316430487,0.76
0.10335515807622554,0.761
0.12283596276415985,0.762
0.13337582969641698,0.763
0.13542316084097245,0.764
0.13148875502067217,0.765
0.12463099415686549,0.766
0.11659510429676435,0.767
0.10659582078621455,0.768
0.09128541405311828,0.769
0.06590183468329695,0.77
0.02644447376296476,0.771
-0.027737834153824456,0.772
-0.09225979198805387,0.773
-0.15810825956882427,0.774
-0.213818101813904,0.775
-0.24795458507931,0.776
-0.2514318055619727,0.777
-0.2201034203539473,0.778
-0.1571384092355137,0.779
-0.0736152415592966,0.78
0.013807351468442324,0.781
0.0876283722533549,0.782
0.13476637791458093,0.783
0.1503028743348272,0.784
0.1384421785859153,0.785
0.11054957194978816,0.786
0.0811254249634992,0.787
0.06299734588074934,0.788
0.06310864200999255,0.789
0.08041273490969884,0.79
0.1066243198804516,0.791
0.12907830589430444,0.792
0.13447539965200622,0.793
0.11275564364481841,0.794
0.06041082969045869,0.795
-0.01765893177170822,0.796
-0.1084128987325735,0.797
-0.19323393617086007,0.798
-0.2524115685752445,0.799
-0.2707338181859804,0.8
-0.24284333776847106,0.801
-0.17591975223591524,0.802
-0.08756504973259559,0.803
0.0004265718665111564,0.804
0.06928196712176843,0.805
0.1082208729258694,0.806
0.11587791688409659,0.807
0.09899557083856951,0.808
0.06944566396084349,0.809
0.03993030089209501,0.81
0.019423954726323373,0.811
0.010537932656356972,0.812
0.010039966539524579,0.813
0.011780127504065678,0.814
0.010425887417872108,0.815
0.004424798080434436,0.816
-0.003045589302955785,0.817
-0.005548085539227122,0.818
0.0034534062736877903,0.819
0.027140512179313625,0.82
0.06289642530179516,0.821
0.10186629904887554,0.822
0.13092263604722926,0.823
0.13659743566924876,0.824
0.10986807958253605,0.825
0.05019414394926304,0.826
-0.03280505112805767,0.827
-0.12108915003912145,0.828
-0.19322491626269267,0.829
-0.2309183609714261,0.83
-0.22431631937765126,0.831
-0.17407999401630112,0.832
-0.09036092923462613,0.833
0.009774070328783996,0.834
0.10566960502487388,0.835
0.1773755677682129,0.836
0.2105635845831783,0.837
0.20047819168016257,0.838
0.1530111808935879,0.839
0.08218398428773507,0.84
0.005093547426128564,0.841
-0.06367424381407963,0.842
-0.11587980535243056,0.843
-0.14980965771515148,0.844
-0.1671226794100946,0.845
-0.16919692795191876,0.846
-0.15566775043906994,0.847
-0.125691153783201,0.848
-0.08034899553918377,0.849
-0.024073839546595605,0.85
0.03560715430554582,0.851
0.08945765703889245,0.852
0.12836196359492655,0.853
0.14514300666891775,0.854
0.13630914271067127,0.855
0.10357672228843419,0.856
0.054432531872637385,0.857
0.0009579330315266682,0.858
-0.04311843653222969,0.859
-0.06626969665066682,0.86
-0.0625062455588393,0.861
-0.03280209692247605,0.862
0.01574581453280413,0.863
0.07186392054644963,0.864
0.12198293372428919,0.865
0.15242558112707297,0.866
0.15258055474280552,0.867
0.11844943538489713,0.868
0.05532091924626778,0.869
-0.02172965497061623,0.87
-0.09093095150375105,0.871
-0.1308198609968162,0.872
-0.12891303195538992,0.873
-0.08793507282694919,0.874
-0.026043917347167187,0.875
0.029878095761031277,0.876
0.0552259947031479,0.877
0.03796566068495703,0.878
-0.016274822939124942,0.879
-0.08612008388258083,0.88
-0.14249271620023332,0.881
-0.16047145397131524,0.882
-0.13059658029318416,0.883
-0.0633187566562482,0.884
0.01644398348171227,0.885
0.0807875482086,0.886
0.10969599738391987,0.887
0.09694088886522335,0.888
0.05011496217792167,0.889
-0.013602010041449985,0.89
-0.07403262858279272,0.891
-0.11485491343903619,0.892
-0.12779385364045268,0.893
-0.11293344265834927,0.894
-0.07645709744133372,0.895
-0.027271596491444935,0.896
0.02625957395220014,0.897
0.07809308988882738,0.898
0.12421898594970959,0.899
0.16098778600773447,0.9
0.18376646529411,0.901
0.18754764064176072,0.902
0.16930686919345286,0.903
0.13036626751925534,0.904
0.0771669348250526,0.905
0.019794590399426097,0.906
-0.03133434224488476,0.907
-0.06897126834116131,0.908
-0.09044063707383938,0.909
-0.09643261262538473,0.91
-0.08913773989047266,0.911
-0.07159015427503865,0.912
-0.04827952968989144,0.913
-0.025593832321020252,0.914
-0.010534241484631349,0.915
-0.007859260436008451,0.916
-0.017546196960307292,0.917
-0.03434345685881014,0.918
-0.049805574059137644,0.919
-0.055928777752286045,0.92
-0.048780328694898255,0.921
-0.030407661964434975,0.922
-0.008047966156186564,0.923
0.008969153540007272,0.924
0.013080180716546586,0.925
0.0016527659338639049,0.926
-0.021203250380015855,0.927
-0.04480271356583671,0.928
-0.05483223149155316,0.929
-0.038887965812628655,0.93
0.007477243063647582,0.931
0.07735434727443433,0.932
0.1536887803196556,0.933
0.21436488426631722,0.934
0.23873914948810768,0.935
0.21356504879855348,0.936
0.13735868493523595,0.937
0.022535353947729892,0.938
-0.1060454508082422,0.939
-0.21719892198455215,0.94
-0.28289509195041884,0.941
-0.28740921186478424,0.942
-0.2323629520122772,0.943
-0.13603356962507931,0.944
-0.027456998731580067,0.945
0.06297980266153995,0.946
0.11349402663232157,0.947
0.11763236943785131,0.948
0.08500171830492864,0.949
0.035877731769399686,0.95
-0.007494600015229884,0.951
-0.028697073258907996,0.952
-0.021069515515569064,0.953
0.01257560064424304,0.954
0.062902991317655,0.955
0.11763079392455975,0.956
0.16450945293081945,0.957
0.19325876588025698,0.958
0.19611645696320607,0.959
0.16772700754126002,0.96
0.10623150150735841,0.961
0.015903929958750163,0.962
-0.09077571651104784,0.963
-0.19401101524934286,0.964
-0.27119281612374607,0.965
-0.30346693339569003,0.966
-0.28184665266067166,0.967
-0.21061083276531395,0.968
-0.10619654641421683,0.969
0.00807244639409943,0.97
0.10841849208363309,0.971
0.1757691954757493,0.972
0.19914262673751293,0.973
0.17714292647457253,0.974
0.11740266819341923,0.975
0.03439503060723546,0.976
-0.053548899008615626,0.977
-0.1278124021278902,0.978
-0.17373291555238593,0.979
-0.18434493051983672,0.98
-0.16147480192540697,0.981
-0.11339457784005863,0.982
-0.05071394337004619,0.983
0.017161699721318986,0.984
0.08366709265685982,0.985
0.144634874254791,0.986
0.19655526016364347,0.987
0.23465603368189894,0.988
0.2520388578043887,0.989
0.24101924260637336,0.99
0.19661476953311935,0.991
0.12040662625105579,0.992
0.02262650839680237,0.993
-0.078672638053533,0.994
-0.16153885923233519,0.995
-0.20656159646546884,0.996
-0.2038885524119288,0.997
-0.15727540924912572,0.998
-0.08269272866346966,0.999
-0.0027670157980700856,1.0
0.05991249201529635,1.001
0.08865750381327948,1.002
0.07670556528796596,1.003
0.02875445525293759,1.004
-0.04000057075084781,1.005
-0.1072828072170432,1.006
-0.15020379876151563,1.007
-0.15370640906201613,1.008
-0.11664153661380261,1.009
-0.05157688697675513,1.01
0.021149240353734115,1.011
0.08129245984883071,1.012
0.11491089584657183,1.013
0.11717318880289518,1.014
0.0916783016005466,1.015
0.04753183066756687,1.016
-0.004042361118200374,1.017
-0.052234182249782886,1.018
-0.08801981040609394,1.019
-0.10500011153833021,1.02
-0.10024643907325835,1.021
-0.07475267771683597,1.022
-0.03303745662626513,1.023
0.01773758347234324,1.024
0.0687767678834041,1.025
0.11086856745879553,1.026
0.1357717415961004,1.027
0.13754416393853447,1.028
0.11379369343756297,1.029
0.06697023440450882,1.03
0.005193136199492529,1.031
-0.0585770214202171,1.032
-0.10955522323980868,1.033
-0.13534509612265538,1.034
-0.12925149973474775,1.035
-0.09100587313083133,1.036
-0.025566489838030663,1.037
0.05791338237763503,1.038
0.14644979610480552,1.039
0.2242099537419316,1.04
0.27509912457340635,1.041
0.28643157244085404,1.042
0.2520896099481515,1.043
0.1740645934901311,1.044
0.06246935967913384,1.045
-0.06579674974353203,1.046
-0.19036405627012137,1.047
-0.2927134327060325,1.048
-0.36096210254026817,1.049
-0.39070470801579915,1.05
-0.38212903319329244,1.051
-0.33751448641804727,1.052
-0.26145190392426354,1.053
-0.1617908828535672,1.054
-0.04898981444243801,1.055
0.06584453758657459,1.056
0.17259064802566665,1.057
0.26236783104063033,1.058
0.32679026864739485,1.059
0.3576415569944857,1.06
0.3480308659940624,1.061
0.2949635673239486,1.062
0.20228141554155635,1.063
0.0822094491250764,1.064
-0.045971038146060746,1.065
-0.16010730885138616,1.066
-0.24055486319925137,1.067
-0.27478144686630984,1.068
-0.26016781466933375,1.069
-0.20433835603107375,1.07
-0.1226048503500323,1.071
-0.03338169655455379,1.072
0.04676064879329402,1.073
0.1070074253837553,1.074
0.14404447855425484,1.075
0.16100371165634136,1.076
0.16420094494305726,1.077
0.159281155048771,1.078
0.1484764650497954,1.079
0.13007632376235173,1.08
0.10022806682390789,1.081
0.05598897405265348,1.082
-0.0020966444025342125,1.083
-0.06899597847624775,1.084
-0.13585088543766569,1.085
-0.19182691801266055,1.086
-0.22635576738240168,1.087
-0.23140622233332825,1.088
-0.2039442805436889,1.089
-0.1476744408866796,1.09
-0.07255344255671176,1.091
0.007650293357509504,1.092
0.0783776481755686,1.093
0.12723096027223174,1.094
0.14659002865071893,1.095
0.13532491377172437,1.096
0.09885430846828329,1.097
0.047481181897498635,1.098
-0.005969758049939087,1.099
-0.04837413271454007,1.1
-0.068788198110952,1.101
-0.06165932154171278,1.102
-0.029546559446942434,1.103
0.016766072512755036,1.104
0.06141574496032159,1.105
0.08867172910227769,1.106
0.0884312866534392,1.107
0.06025035465184486,1.108
0.014400065664387712,1.109
-0.030862579026021922,1.11
-0.05564751430748748,1.111
-0.046468344750038484,1.112
-0.0020892332806340505,1.113
0.0656856251261032,1.114
0.1357236234597673,1.115
0.18369834513021283,1.116
0.18906320516522362,1.117
0.1412062064847534,1.118
0.04312661705407468,1.119
-0.08801812824268501,1.12
-0.22354031417323747,1.121
-0.3295874162577006,1.122
-0.37720757359413376,1.123
-0.35275985884818983,1.124
-0.26300857658718146,1.125
-0.1319381262903197,1.126
0.00848654333463781,1.127
0.12869332029066133,1.128
0.20896526618822409,1.129
0.24236354321311443,1.13
0.23347090532203763,1.131
0.1942373552422808,1.132
0.13871467853245212,1.133
0.07887834743024577,1.134
0.02317783418237332,1.135
-0.022478212333511854,1.136
-0.05329581612737839,1.137
-0.0655110659393981,1.138
-0.05779870118741273,1.139
-0.032952910175287606,1.14
0.0015329511467420316,1.141
0.03478614411661395,1.142
0.05556556839842845,1.143
0.05571254574117269,1.144
0.03280573319190151,1.145
-0.008731760118519201,1.146
-0.058547795182678934,1.147
-0.10314904681569413,1.148
-0.1296701524039711,1.149
-0.12943704299453174,1.15
-0.10028641417038005,1.151
-0.04703505655125387,1.152
0.019928521048195688,1.153
0.08745933098174284,1.154
0.14298071299831883,1.155
0.17724691223155184,1.156
0.1857482852852991,1.157
0.16838594204278584,1.158
0.12796017554570288,1.159
0.06899799255402798,1.16
-0.002129612525934648,1.161
-0.07671698482185144,1.162
-0.14457933442077786,1.163
-0.19620616033540328,1.164
-0.22444259519243295,1.165
-0.2252261252258198,1.166
-0.19848404052467997,1.167
-0.1490354704987292,1.168
-0.08567481357975743,1.169
-0.018108779635803558,1.17
0.045779018403140886,1.171
0.10034095136005985,1.172
0.1410005722168873,1.173
0.16346176372741306,1.174
0.1644551236704116,1.175
0.14366253520949987,1.176
0.1054811548007414,1.177
0.05919357752239401,1.178
0.01679901835266644,1.179
-0.011012017732541547,1.18
-0.01912133681018555,1.181
-0.010366571853650112,1.182
0.0052286567057605576,1.183
0.014193427497368242,1.184
0.005147693532948397,1.185
-0.025803108835569653,1.186
-0.07205520901340152,1.187
-0.11753119306742883,1.188
-0.14211858602793023,1.189
-0.1298801186204366,1.19
-0.07629947836857799,1.191
0.009044459045443197,1.192
0.1050995439664304,1.193
0.18550270526371074,1.194
0.22611607026353514,1.195
0.21201146484573669,1.196
0.14222882881973886,1.197
0.031105145110790596,1.198
-0.09456044326365186,1.199
-0.20271816801909354,1.2
-0.26630250606102224,1.201
-0.27223465692201815,1.202
-0.22434625838258526,1.203
-0.13958530132561872,1.204
-0.0408021136602117,1.205
0.0505721420575177,1.206
0.11973661357922745,1.207
0.16042132321223662,1.208
0.1737694159420335,1.209
0.16562124211468673,1.21
0.14378453399557123,1.211
0.1159982859468305,1.212
0.08841090524661127,1.213
0.06438778998710479,1.214
0.04379523548462322,1.215
0.023191820446248304,1.216
-0.002684596794944829,1.217
-0.03823579587100908,1.218
-0.08387400519068339,1.219
-0.13391494370640517,1.22
-0.1772144862263024,1.221
-0.2011074249813187,1.222
-0.19682192152578334,1.223
-0.16296515337545198,1.224
-0.10519473286427707,1.225
-0.03341728344383668,1.226
0.04118658139171642,1.227
0.10829090163621956,1.228
0.15965416610685312,1.229
0.1896423643990342,1.23
0.19524410601588202,1.231
0.17602826044340625,1.232
0.13450202302860886,1.233
0.07650633892306415,1.234
0.010680556338728867,1.235
-0.053315805335926704,1.236
-0.10674745492292087,1.237
-0.14281473645074322,1.238
-0.15684899870732055,1.239
-0.1462054597082477,1.24
-0.11043628698104108,1.241
-0.05232215462256513,1.242
0.020623512927490574,1.243
0.09551559173319181,1.244
0.1556974857036333,1.245
0.1850612855642509,1.246
0.1738307606702291,1.247
0.1231753301237234,1.248
0.04604134807064172,1.249
-0.03690290974446766,1.25
-0.10458585477397057,1.251
-0.1424953553417392,1.252
-0.1464329127840769,1.253
-0.12249856151525257,1.254
-0.08380746063501815,1.255
-0.0448602490010454,1.256
-0.0159574671391712,1.257
-0.00048386294033437715,1.258
0.004145409892910883,1.259
0.0033606672310172447,1.26
0.002226571810200884,1.261
0.003502715303928545,1.262
0.007375555408541322,1.263
0.012412347714616422,1.264
0.016925480507639312,1.265
0.020099957840593746,1.266
0.022368035767703867,1.267
0.02491005965944558,1.268
0.02865191903422463,1.269
0.03327477484920977,1.27
0.03684463506883267,1.271
0.036518426405698995,1.272
0.03007018750285636,1.273
0.017330983378379648,1.274
0.0008331507976832984,1.275
-0.014577264108929278,1.276
-0.023195602561399388,1.277
-0.020613505915705165,1.278
-0.005670336696662372,1.279
0.01874998744372458,1.28
0.04637800174349495,1.281
0.06929840913366798,1.282
0.08014853730819636,1.283
0.07411815566684897,1.284
0.05029385655125533,1.285
0.012110851705853087,1.286
-0.03326556260140298,1.287
-0.07667362987758386,1.288
-0.10937151127816792,1.289
-0.12511672663770973,1.29
-0.1213027162626842,1.291
-0.09940195318713022,1.292
-0.06461140602102904,1.293
-0.024395220495483382,1.294
0.013433269628731382,1.295
0.042174657313237426,1.296
0.05705172530554887,1.297
0.055899299945171545,1.298
0.04014773751051624,1.299
0.015399927574134586,1.3
-0.009493654643364446,1.301
-0.02512605656453729,1.302
-0.025143137880152065,1.303
-0.009032810777807149,1.304
0.017511458907795718,1.305
0.04482618441006439,1.306
0.06287497203908367,1.307
0.06470002775286243,1.308
0.04870212224034532,1.309
0.019283048134558892,1.31
-0.01443184591248191,1.311
-0.04181111967537795,1.312
-0.05471331428069596,1.313
-0.050294694118361565,1.314
-0.03146936927317207,1.315
-0.0052719672167452665,1.316
0.01978477761975801,1.317
0.03630101289515985,1.318
0.03997424315171964,1.319
0.03075057074949059,1.32
0.012886711526077097,1.321
-0.0063405882243414945,1.322
-0.019192790783731786,1.323
-0.02052836251350156,1.324
-0.009877719683190154,1.325
0.00858416528105596,1.326
0.027884572823071774,1.327
0.040904213840080576,1.328
0.04280160972010541,1.329
0.03235650903457217,1.33
0.011983711978748895,1.331
-0.013344359125908206,1.332
-0.037844880641168886,1.333
-0.05674475183539715,1.334
-0.06748790007454811,1.335
-0.06979392403112776,1.336
-0.06477733680912992,1.337
-0.054009313160253494,1.338
-0.03896646240148817,1.339
-0.020678920988937487,1.34
0.00028103397332316775,1.341
0.023076052771644602,1.342
0.04561339265604577,1.343
0.06431035297644604,1.344
0.07496340963976156,1.345
0.07431546222650766,1.346
0.06161757261285891,1.347
0.039402868969341004,1.348
0.012913501099785358,1.349
-0.011832832693538738,1.35
-0.030489223422078545,1.351
-0.04175234067183469,1.352
-0.04680422361540653,1.353
-0.04774407198570565,1.354
-0.04630699668289631,1.355
-0.04317407695535029,1.356
-0.03772589961663324,1.357
-0.028366816110592073,1.358
-0.01353373102447408,1.359
0.00707000600584959,1.36
0.031742241348814995,1.361
0.05686295684994608,1.362
0.07768116033570134,1.363
0.08958582023703085,1.364
0.08952449987171575,1.365
0.07711879438810597,1.366
0.054991102538639834,1.367
0.027913556758066924,1.368
0.0010142341064836753,1.369
-0.022040643545580798,1.37
-0.03998326141154895,1.371
-0.053538594855298695,1.372
-0.06391780952685512,1.373
-0.07122331085422545,1.374
-0.07394328654824744,1.375
-0.06994370194425101,1.376
-0.058356219771330146,1.377
-0.04120840582381896,1.378
-0.02341491707539207,1.379
-0.010528585276490076,1.38
-0.00553152228067614,1.381
-0.006912192045296653,1.382
-0.009405791822843516,1.383
-0.007014157081998291,1.384
0.0035562062509478048,1.385
0.021060877556264134,1.386
0.0402908531079147,1.387
0.05450514442858787,1.388
0.05849658020026084,1.389
0.05084145909399487,1.39
0.03434544278259502,1.391
0.014738517301537211,1.392
-0.0014868202759156528,1.393
-0.009028413962299425,1.394
-0.0049789840729421294,1.395
0.010623638277816556,1.396
0.03456338789065678,1.397
0.06063157421509801,1.398
0.08082642188002838,1.399
0.08759657659863021,1.4
0.07633291020085306,1.401
0.04713017189073424,1.402
0.004954115419519042,1.403
-0.04212105712226639,1.404
-0.08568783247289426,1.405
-0.11905763353860747,1.406
-0.1378965030373218,1.407
-0.1402367840418509,1.408
-0.1265788380341279,1.409
-0.09986872434073646,1.41
-0.06491118559666366,1.411
-0.02737504185661752,1.412
0.00722335999877214,1.413
0.034500462464409055,1.414
0.052065230773339216,1.415
0.05991674319274051,1.416
0.060051677530358984,1.417
0.05542501644774058,1.418
0.048873153542374065,1.419
0.04244512093565276,1.42
0.03719204990008007,1.421
0.03324489522562946,1.422
0.03006864249148912,1.423
0.0269140933750536,1.424
0.023331006426889445,1.425
0.019472696442690833,1.426
0.01612150930555165,1.427
0.014576448176613068,1.428
0.016323141792959243,1.429
0.02220042014590393,1.43
0.031246166586028478,1.431
0.04002173541997646,1.432
0.04317766837237568,1.433
0.03523070606455339,1.434
0.01273576310394783,1.435
-0.023930329498457126,1.436
-0.06963918345281078,1.437
-0.11494839495457851,1.438
-0.14828389200439054,1.439
-0.15958671924830714,1.44
-0.14414960997993062,1.441
-0.10465353679189407,1.442
-0.05021686821975519,1.443
0.006836963353585622,1.444
0.05479577401409956,1.445
0.08558162521716982,1.446
0.09627068951123492,1.447
0.08899034059889308,1.448
0.06959813459621879,1.449
0.045789359921682864,1.45
0.025144971403985618,1.451
0.013430259665622921,1.452
0.01337883517861849,1.453
0.024114745535908293,1.454
0.04126416108158183,1.455
0.057843593905805825,1.456
0.06600094813103953,1.457
0.05934850424522693,1.458
0.03524898634164043,1.459
-0.003694261929805698,1.46
-0.04963883862682557,1.461
-0.09144668415928847,1.462
-0.1183390398562599,1.463
-0.12386869790948048,1.464
-0.10805846346670804,1.465
-0.07651506674635146,1.466
-0.03742396914099488,1.467
0.0015689355875173798,1.468
0.03517293340236717,1.469
0.06068567675874125,1.47
0.07714464358581839,1.471
0.08425913449639996,1.472
0.08188330841434453,1.473
0.07023289545885938,1.474
0.050529520358923635,1.475
0.025570427478870603,1.476
-0.0003367480723000225,1.477
-0.02230575239409164,1.478
-0.0362424044758889,1.479
-0.040066788278151036,1.48
-0.03444460432321387,1.481
-0.022759390593346262,1.482
-0.010156608703123939,1.483
-0.0018380217237089324,1.484
-0.001176389803412016,1.485
-0.008449889396850006,1.486
-0.0208420737625172,1.487
-0.03367604839981446,1.488
-0.042165918944023245,1.489
-0.04300105383681746,1.49
-0.035422556645237496,1.491
-0.021371698123723228,1.492
-0.004480653738890607,1.493
0.011517225402708855,1.494
0.024017856157945258,1.495
0.03190794594214439,1.496
0.0352470421127425,1.497
0.03479033786534674,1.498
0.031601469406361854,1.499
0.026710537244960805,1.5
0.020846428925562682,1.501
0.01440190918022933,1.502
0.0076297818103833424,1.503
0.0008769381192168221,1.504
-0.005304934794637596,1.505
-0.010197631322572322,1.506
-0.013001775673766074,1.507
-0.012943486695885931,1.508
-0.009449044476839998,1.509
-0.0023329909677772213,1.51
0.00802471223224421,1.511
0.020476274324715243,1.512
0.032924923919127054,1.513
0.04235567143125534,1.514
0.04531430917261841,1.515
0.03885008778813165,1.516
0.021678414998085652,1.517
-0.0048042864124927896,1.518
-0.03618554327052913,1.519
-0.06583000323956904,1.52
-0.08665756158062432,1.521
-0.09329169202243331,1.522
-0.08383951632659012,1.523
-0.06056434150767127,1.524
-0.029179976482193937,1.525
0.002873002277705868,1.526
0.02863477170313357,1.527
0.043655883389443775,1.528
0.04704748653576528,1.529
0.041125281457272976,1.53
0.02994800321424486,1.531
0.01760300622126325,1.532
0.007071736867941215,1.533
-5.711234054233607e-05,1.534
-0.0032810022642734424,1.535
-0.002685513404976666,1.536
0.001375698957465895,1.537
0.008247729894272846,1.538
0.0168043643090896,1.539
0.025468449732747405,1.54
0.03240803431288483,1.541
0.035773544044879486,1.542
0.0340968697824325,1.543
0.026902336543116502,1.544
0.015221121218262097,1.545
0.0016763152758590353,1.546
-0.010049840421764203,1.547
-0.016433498622584652,1.548
-0.015734001034896947,1.549
-0.009262037634101829,1.55
-0.0013271172090651775,1.551
0.0024412882063283136,1.552
-0.0024123703513274784,1.553
-0.017022671075916505,1.554
-0.03826796615240728,1.555
-0.059669800716042415,1.556
-0.07410959438904566,1.557
-0.0769745145777608,1.558
-0.0676638084859206,1.559
-0.04883190777400589,1.56
-0.024616632956711352,1.561
0.0008387491028399348,1.562
0.024181598431643844,1.563
0.04314754749191479,1.564
0.05658751042986694,1.565
0.06428138823582996,1.566
0.06659460909451144,1.567
0.064095852838759,1.568
0.05732094076268951,1.569
0.04680225777469179,1.57
0.03323406597575463,1.571
0.01756022399281061,1.572
0.0009567487388706189,1.573
-0.015190190445310902,1.574
-0.02937021140242507,1.575
-0.04010176854602273,1.576
-0.045982046410229516,1.577
-0.04575000213124297,1.578
-0.03871662490634295,1.579
-0.025573184225643024,1.58
-0.00891410650348962,1.581
0.007284568072241325,1.582
0.019100966360194878,1.583
0.024082431750744013,1.584
0.021882127093314403,1.585
0.014057214875498662,1.586
0.0033651515936172554,1.587
-0.007093407729187193,1.588
-0.01466434678572438,1.589
-0.01773480572201898,1.59
-0.016001965078202472,1.591
-0.010362378451623709,1.592
-0.0024971063839701814,1.593
0.0056639218209162704,1.594
0.012382680952386383,1.595
0.016365659198807916,1.596
0.016876586888314622,1.597
0.013849173423117915,1.598
0.008040056009546106,1.599
0.0010126851702079716,1.6
-0.0052398016963786775,1.601
-0.00891310064063017,1.602
-0.008941686158918603,1.603
-0.005275914352505703,1.604
0.0011360183058514804,1.605
0.008577375883196195,1.606
0.014938828608236407,1.607
0.01823570049086346,1.608
0.01714074110251857,1.609
0.011292591885046749,1.61
0.0013238776493071354,1.611
-0.01121534077569373,1.612
-0.023961897629209365,1.613
-0.0340575088391102,1.614
-0.038867991301310786,1.615
-0.03691687698185408,1.616
-0.028484197285750225,1.617
-0.015503006808500438,1.618
-0.000874392351484995,1.619
0.012426093294591767,1.62
0.0220888982791515,1.621
0.02686783919500073,1.622
0.026627910749920766,1.623
0.022133567104381437,1.624
0.01471020666262148,1.625
0.005909988345267304,1.626
-0.0027220519178049133,1.627
-0.009774461616209748,1.628
-0.014050902476834552,1.629
-0.014669242477221683,1.63
-0.01120444300857732,1.631
-0.00385050914112155,1.632
0.006451125392008675,1.633
0.018026878271342885,1.634
0.028738207706988178,1.635
0.03643036266685429,1.636
0.03935099112437493,1.637
0.03643071819469054,1.638
0.02750766884403978,1.639
0.013510298785839672,1.64
-0.0036047196905376103,1.641
-0.021281987051656053,1.642
-0.03693946581637495,1.643
-0.048305613458656575,1.644
-0.053470455634869934,1.645
-0.05106156519449801,1.646
-0.040883492165372876,1.647
-0.024694000556542833,1.648
-0.0062253785849795745,1.649
0.010040729503871911,1.65
0.02066401963694916,1.651
0.024386403701327577,1.652
0.022049355571591604,1.653
0.01569997678547817,1.654
0.007663318249318814,1.655
-2.460360727409188e-05,1.656
-0.005844343146308209,1.657
-0.008867532934106782,1.658
-0.008820835650884,1.659
-0.006068219479258103,1.66
-0.0014328409579383485,1.661
0.004040964056788302,1.662
0.009284472677271454,1.663
0.013390271655913756,1.664
0.01579749451558088,1.665
0.016380082353150856,1.666
0.01538580109655203,1.667
0.013281035524950642,1.668
0.01057155661682566,1.669
0.00766126651660317,1.67
0.0048111825423096674,1.671
0.002189390692239866,1.672
-8.204394516689645e-05,1.673
-0.0019533285153775022,1.674
-0.003496392119038076,1.675
-0.004880070377440029,1.676
-0.006273963736051786,1.677
-0.007763344218827762,1.678
-0.009345224766508174,1.679
-0.010979458446717423,1.68
-0.01259032207953325,1.681
-0.014001470940851002,1.682
-0.0148804794964529,1.683
-0.014779578427753725,1.684
-0.013324284027941714,1.685
-0.010474227364870485,1.686
-0.006671814834883867,1.687
-0.0027415721351916602,1.688
0.0004275010804323336,1.689
0.0022534911700824206,1.69
0.002714236987649627,1.691
0.0023991654188287737,1.692
0.0023879558338624515,1.693
0.003965839020068883,1.694
0.008172421804944988,1.695
0.015302555386554601,1.696
0.024583115668053702,1.697
0.034225401657158566,1.698
0.04184911180464548,1.699
0.04507532178892818,1.7
0.042103628016206845,1.701
0.03217040351174908,1.702
0.01577955091996772,1.703
-0.005350183847052886,1.704
-0.028514986292297942,1.705
-0.05034419774627086,1.706
-0.06724495488238567,1.707
-0.07597264548008544,1.708
-0.074354013926102,1.709
-0.062141981202332296,1.71
-0.04149443179039914,1.711
-0.0164659072173383,1.712
0.008294093126259101,1.713
0.028858007311209216,1.714
0.04279166024102699,1.715
0.049288661432151465,1.716
0.04889710427329944,1.717
0.04308205661119462,1.718
0.0337453265085026,1.719
0.022776882913996994,1.72
0.011724765405421882,1.721
0.001669037530013621,1.722
-0.0066918357005773775,1.723
-0.012834023897600803,1.724
-0.016259576442926162,1.725
-0.016567497021221848,1.726
-0.013724137376159492,1.727
-0.008312180389419537,1.728
-0.0015414209964819,1.729
0.004998957844551756,1.73
0.009752911407547922,1.731
0.011645237698139793,1.732
0.010393208430035683,1.733
0.006563661702808508,1.734
0.001371178218533438,1.735
-0.003700179887888288,1.736
-0.007325415601090959,1.737
-0.008700304304739408,1.738
-0.007767683895456231,1.739
-0.005221811029344403,1.74
-0.002225074104223312,1.741
5.150241988481599e-05,1.742
0.0008328345465494916,1.743
-0.00011133457765275879,1.744
-0.002597525202345523,1.745
-0.006246063143561225,1.746
-0.010569371496833258,1.747
-0.014892010371902931,1.748
-0.01824786106951718,1.749
-0.019452343183975367,1.75
-0.017478583497782023,1.751
-0.011992327843658166,1.752
-0.0036064739882325034,1.753
0.006367961437152769,1.754
0.01640439748320054,1.755
0.0251315004935495,1.756
0.031516341474011556,1.757
0.03491441880008431,1.758
0.03501635280601037,1.759
0.03173004291077335,1.76
0.025093262649951435,1.761
0.015327776831002837,1.762
0.0030408178902770443,1.763
-0.01055373258387272,1.764
-0.023597763789722972,1.765
-0.03392257456954165,1.766
-0.03970844062914014,1.767
-0.04010390298505618,1.768
-0.0354378492858491,1.769
-0.02698478850370946,1.77
-0.016492345434636912,1.771
-0.0057227995820606555,1.772
0.0038420807370087014,1.773
0.01115943210263918,1.774
0.015724679738099302,1.775
0.01761017469495209,1.776
0.017382539600735544,1.777
0.015869699838091954,1.778
0.013853126969128684,1.779
0.01183863809827514,1.78
0.010013349135735181,1.781
0.008356804122616615,1.782
0.00679468678765925,1.783
0.005304973294751358,1.784
0.003938614653974876,1.785
0.0027743282109744427,1.786
0.0018599986126508314,1.787
0.0011768265159024733,1.788
0.0006143379191810906,1.789
-5.1701705074016104e-05,1.79
-0.0011232031593448588,1.791
-0.002850933227209984,1.792
-0.005276384207089236,1.793
-0.0081366898506083,1.794
-0.01087758814773546,1.795
-0.012778846929627984,1.796
-0.013167485224038742,1.797
-0.011641066095240776,1.798
-0.00822508423934982,1.799
-0.0034464680669748725,1.8
0.0017112975695575813,1.801
0.006018553917123504,1.802
0.008343234318539726,1.803
0.008020658358721159,1.804
0.00511488683707508,1.805
0.0004328999240678327,1.806
-0.004765446291793505,1.807
-0.009209334437764893,1.808
-0.011969699346464923,1.809
-0.012610873839300481,1.81
-0.011150411487052463,1.811
-0.007905299756056814,1.812
-0.0033305223657182936,1.813
0.002083283804943275,1.814
0.00784696591144296,1.815
0.013467887046416474,1.816
0.01841742773150817,1.817
0.02213149192867911,1.818
0.02411366972951282,1.819
0.024085029006207948,1.82
0.022073153384471213,1.821
0.01838731130257472,1.822
0.013472073501736572,1.823
0.00771581214605748,1.824
0.0013469621255537858,1.825
-0.00552943417463546,1.826
-0.012828046665960742,1.827
-0.02038080070542452,1.828
-0.02780290917672062,1.829
-0.034340771426744014,1.83
-0.038843354223248444,1.831
-0.03995070289355268,1.832
-0.03648290271057944,1.833
-0.027931651453293824,1.834
-0.014805855400032212,1.835
0.0013887441357280546,1.836
0.01847929806811745,1.837
0.03403778558314232,1.838
0.04567132538382605,1.839
0.0511978572465468,1.84
0.048935863103599306,1.841
0.03824502728420291,1.842
0.02017395988179842,1.843
-0.0021778132469953437,1.844
-0.024086241054707302,1.845
-0.04061648489635971,1.846
-0.04841716165534531,1.847
-0.046783250676902866,1.848
-0.03743927155041512,1.849
-0.02341914845116157,1.85
-0.007787860433773833,1.851
0.007222175042922395,1.852
0.020455432752864197,1.853
0.03152659164449688,1.854
0.04021481796738509,1.855
0.04593876769180737,1.856
0.04763742659871665,1.857
0.04413979828859089,1.858
0.03478122249411427,1.859
0.019895296743617272,1.86
0.0009886868537836804,1.861
-0.01941513163013447,1.862
-0.038204593491647454,1.863
-0.05226726046512781,1.864
-0.059120863841701524,1.865
-0.057480433335004695,1.866
-0.04765120888076701,1.867
-0.031614282500679304,1.868
-0.012618802063996907,1.869
0.005713480494288782,1.87
0.020372635154718807,1.871
0.029577280979490434,1.872
0.03288967436092757,1.873
0.030967055678909228,1.874
0.025154457524374826,1.875
0.017088318345352415,1.876
0.008406779504238305,1.877
0.0005730881310397176,1.878
-0.005245213896049801,1.879
-0.00828796703886217,1.88
-0.008301340622734073,1.881
-0.005598544326181378,1.882
-0.0010496292960759993,1.883
0.004055864961206101,1.884
0.008301622787994851,1.885
0.010506422634811007,1.886
0.010015102170118119,1.887
0.006843590355426518,1.888
0.001665839070397016,1.889
-0.0043508667804510424,1.89
-0.009833684854781862,1.891
-0.013533360354331411,1.892
-0.014589780711040974,1.893
-0.012689458449020252,1.894
-0.008131727245340415,1.895
-0.0018075805259319586,1.896
0.004940903081176201,1.897
0.010586363568367625,1.898
0.013744867390203135,1.899
0.013492462577392325,1.9
0.009636171979770349,1.901
0.0028781477984994148,1.902
-0.0052625728156469286,1.903
-0.012836280449580862,1.904
-0.018038764846922115,1.905
-0.01973085219911464,1.906
-0.01766970254635758,1.907
-0.012423103401982384,1.908
-0.005133847297877927,1.909
0.0027384407032583265,1.91
0.009698527358342974,1.911
0.014530755930976753,1.912
0.01658524237919799,1.913
0.01591296995108794,1.914
0.013164993000634197,1.915
0.009293528134192732,1.916
0.005203726293871382,1.917
0.001528525697214496,1.918
-0.0014172633011867702,1.919
-0.0035754749153924935,1.92
-0.0050447626682102635,1.921
-0.005970352545282129,1.922
-0.0064492592061834875,1.923
-0.006495640825683047,1.924
-0.006084168621284765,1.925
-0.005212227059558908,1.926
-0.003920496261773118,1.927
-0.0022739193128545588,1.928
-0.0003320857423082285,1.929
0.0018477252827278287,1.93
0.004127857312038135,1.931
0.00616184916829222,1.932
0.007374628429256522,1.933
0.007163062226744689,1.934
0.00520741733581253,1.935
0.0016696597131444755,1.936
-0.002815129443555003,1.937
-0.0072712936044272165,1.938
-0.010547197338368328,1.939
-0.01152203082747646,1.94
-0.0093853685673638,1.941
-0.0039542762890525,1.942
0.004075170860730024,1.943
0.013100431221170205,1.944
0.020933535232220496,1.945
0.025412659011309374,1.946
0.02504839366002084,1.947
0.019430084464869723,1.948
0.009283955118936198,1.949
-0.0037469153543015885,1.95
-0.017459232739700382,1.951
-0.029473441656846216,1.952
-0.03761296660878816,1.953
-0.04027047058514346,1.954
-0.03670917461137132,1.955
-0.027230881521114577,1.956
-0.013184773151201689,1.957
0.00316346325736628,1.958
0.01890610830110718,1.959
0.0309605621400967,1.96
0.036731671662707244,1.961
0.03484964676839676,1.962
0.025736595790065202,1.963
0.01172207781039823,1.964
-0.003467923561110441,1.965
-0.015817359612123834,1.966
-0.02234631637514018,1.967
-0.022016636374256777,1.968
-0.015798874323663902,1.969
-0.006030718947821998,1.97
0.004500217890550317,1.971
0.013363756719889153,1.972
0.01897161629473402,1.973
0.020706729265903577,1.974
0.018789255378891815,1.975
0.01402272042519052,1.976
0.007517330090982745,1.977
0.00042523297353814224,1.978
-0.006260280128436576,1.979
-0.011789843441878958,1.98
-0.015631240862120296,1.981
-0.01740685145185274,1.982
-0.016893932353793932,1.983
-0.014116518334063934,1.984
-0.009467544521901235,1.985
-0.0037521049605646747,1.986
0.0019353410930954967,1.987
0.0064859241477439895,1.988
0.009082661394511577,1.989
0.009413313808843264,1.99
0.007720463241346995,1.991
0.004675222253065885,1.992
0.0011429085863065847,1.993
-0.0020597898577293383,1.994
-0.004352360424130098,1.995
-0.005478056564706277,1.996
-0.00546654655203933,1.997
-0.004516855951097408,1.998
-0.0028966949235701297,1.999
-0.0008820264514025904,2.0
0.001310993353074034,2.001
0.0035921622475938685,2.002
0.005999466898063375,2.003
0.00860526789102956,2.004
0.011346622384818228,2.005
0.013870517458920971,2.006
0.01551647420368823,2.007
0.015471227890385469,2.008
0.013029246004910554,2.009
0.007867414503311469,2.01
0.0002520230042921816,2.011
-0.008876105143934755,2.012
-0.017994647450709667,2.013
-0.025309004938992553,2.014
-0.029213423427670925,2.015
-0.028771370624011115,2.016
-0.0240584909237621,2.017
-0.01620663645201328,2.018
-0.007081633307238837,2.019
0.001296978516574182,2.02
0.007351479589839836,2.021
0.010353626187515824,2.022
0.010577217375523093,2.023
0.009178505076007256,2.024
0.0078029945168585114,2.025
0.00798305003413761,2.026
0.010487340147633976,2.027
0.014871374362293723,2.028
0.019495895485991354,2.029
0.022130754532546572,2.03
0.020897708249736163,2.031
0.015055990006479635,2.032
0.005297432162212101,2.033
-0.0064869626905235435,2.034
-0.017814177143976966,2.035
-0.026339356391328127,2.036
-0.030473058486023216,2.037
-0.02971207052278593,2.038
-0.02461579514999184,2.039
-0.0165121067193521,2.04
-0.007106966709980716,2.041
0.0018946990162228116,2.042
0.009144727796384092,2.043
0.013907056813441659,2.044
0.0160951791526254,2.045
0.016099112809347876,2.046
0.014513954507557117,2.047
0.0119024081481355,2.048
0.008691357364092671,2.049
0.005208165083684056,2.05
0.0017677978328401564,2.051
-0.0012975506325348357,2.052
-0.003695235125157508,2.053
-0.005237252018088587,2.054
-0.005836053698658967,2.055
-0.005446463108287064,2.056
-0.004016750991181483,2.057
-0.0014902081451801472,2.058
0.002126114935297454,2.059
0.006634388238353274,2.06
0.011510611087911139,2.061
0.015840679711178616,2.062
0.018428948669825935,2.063
0.018135401324326377,2.064
0.014319905421429675,2.065
0.007138825053750816,2.066
-0.0024489606527029026,2.067
-0.012910020116274333,2.068
-0.022491274536932455,2.069
-0.029613585626662223,2.07
-0.03318969956943463,2.071
-0.03276580285751999,2.072
-0.028493916426187923,2.073
-0.02103453986607905,2.074
-0.011448620997784782,2.075
-0.001059263803017723,2.076
0.00873307021455933,2.077
0.01665673172351514,2.078
0.02175587851242097,2.079
0.023532111733309345,2.08
0.02202211543619323,2.081
0.01778216527741582,2.082
0.01176383666871369,2.083
0.005118119950752089,2.084
-0.001016495063813978,2.085
-0.005706881932749169,2.086
-0.008364858555943669,2.087
-0.008814157658017316,2.088
-0.007275138500565836,2.089
-0.004266735920510211,2.09
-0.0004658436457626999,2.091
0.0034228551383791656,2.092
0.006754952106829154,2.093
0.00900779166366238,2.094
0.009847347872411242,2.095
0.009174893640499927,2.096
0.007109923537213469,2.097
0.003935032667822026,2.098
6.873870974199122e-05,2.099
-0.0039373442220384455,2.1
-0.007448237481494275,2.101
-0.009869265452924795,2.102
-0.010793212193820099,2.103
-0.01010886057113369,2.104
-0.008049141226374701,2.105
-0.005161875986984941,2.106
-0.002173881561977745,2.107
0.00021558204925332434,2.108
0.001519213768211818,2.109
0.001570061082824423,2.11
0.0005336845489843282,2.111
-0.001189674125099542,2.112
-0.0031303610980825632,2.113
-0.004887255393360585,2.114
-0.006170102917075379,2.115
-0.006731436234332191,2.116
-0.006239054255660445,2.117
-0.004220042559694913,2.118
-0.00018332300034651618,2.119
0.006102064912617851,2.12
0.014295125222429086,2.121
0.023309641804067093,2.122
0.03142860015487572,2.123
0.03667676297219749,2.124
0.037270474053306864,2.125
0.032052941589392446,2.126
0.020897746930155836,2.127
0.004953463527045859,2.128
-0.013434964033128995,2.129
-0.03117027245508722,2.13
-0.045110081544745766,2.131
-0.05283680627348937,2.132
-0.05322237879818679,2.133
-0.04656119292998619,2.134
-0.03429948943428269,2.135
-0.018611934081021696,2.136
-0.0020146671953550086,2.137
0.012982267342571376,2.138
0.024255093700684714,2.139
0.030453375414521203,2.14
0.031244161462733063,2.141
0.027294014255403745,2.142
0.020013701924227013,2.143
0.011180754263269744,2.144
0.0025390918362887907,2.145
-0.004546247121412796,2.146
-0.009290594265485987,2.147
-0.011496188812928458,2.148
-0.011403645725362892,2.149
-0.00948714906663601,2.15
-0.006277188736004712,2.151
-0.002256361252795052,2.152
0.0021544539988734967,2.153
0.006547040702146491,2.154
0.010483172621519208,2.155
0.013507777805063051,2.156
0.01521502465638998,2.157
0.015334699243677969,2.158
0.01380309047904941,2.159
0.010794784727192553,2.16
0.0066895961931512276,2.161
0.0019698560127342814,2.162
-0.002892292890280765,2.163
-0.0074831201683257815,2.164
-0.01142020600950979,2.165
-0.014310753072800848,2.166
-0.01576859416490863,2.167
-0.015514819606027717,2.168
-0.013511052299826368,2.169
-0.010030659290643522,2.17
-0.0056176521718912685,2.171
-0.0009585861890232876,2.172
0.003260033608428292,2.173
0.006449072918950379,2.174
0.008182716223808461,2.175
0.008264292179920078,2.176
0.006778039080686838,2.177
0.004087768628894305,2.178
0.0007636842665922762,2.179
-0.0025250001464557927,2.18
-0.005119996472779995,2.181
-0.0064910569868954025,2.182
-0.006342569193965056,2.183
-0.004671373733897419,2.184
-0.0017629785468019706,2.185
0.001849778531720114,2.186
0.005464075245901503,2.187
0.008351055376700481,2.188
0.009946009572092528,2.189
0.009987538828984167,2.19
0.008538061676458557,2.191
0.005914063332462128,2.192
0.002566755997686574,2.193
-0.0010353076667859657,2.194
-0.004471520221757403,2.195
-0.00740282241203364,2.196
-0.009591585779553272,2.197
-0.010898247351905387,2.198
-0.011258449267177739,2.199
-0.01067052493790552,2.2
-0.009216731641410647,2.201
-0.007081400147247072,2.202
-0.004536242921159464,2.203
-0.001892554782428089,2.204
0.0005911674808461227,2.205
0.0028120152449194664,2.206
0.0048546560066012314,2.207
0.006918146337640971,2.208
0.009170096881494016,2.209
0.011588524291579926,2.21
0.013873497940494806,2.211
0.0154865565223305,2.212
0.015806325321189398,2.213
0.014344263543605682,2.214
0.010944065528505803,2.215
0.005896312694747492,2.216
-8.263553975989136e-05,2.217
-0.006025120151807067,2.218
-0.010979088300522855,2.219
-0.014255865123888361,2.22
-0.015574204926998143,2.221
-0.015080798884415788,2.222
-0.013260816485878055,2.223
-0.010758013777643348,2.224
-0.008160116451218077,2.225
-0.005839792118968984,2.226
-0.00391441987395057,2.227
-0.0023067601488812994,2.228
-0.0008375320544988119,2.229
0.0006822318723321758,2.23
0.002360567530769516,2.231
0.004168134053216053,2.232
0.005940836143479997,2.233
0.00742564530944892,2.234
0.008358254020935771,2.235
0.008565390049387996,2.236
0.00805297540752264,2.237
0.007010200180967854,2.238
0.005701914653657248,2.239
0.0043295043435438605,2.24
0.0029642151377611598,2.241
0.0015811179857758114,2.242
0.0001456736654258653,2.243
-0.00133372109662881,2.244
-0.002830900406389804,2.245
-0.004349748944175314,2.246
-0.005909465757806357,2.247
-0.007456818216300934,2.248
-0.008783847610861024,2.249
-0.009545712429393045,2.25
-0.009391218537646559,2.251
-0.008123390475646438,2.252
-0.005803020258351238,2.253
-0.002752406413165259,2.254
0.0005448468103948028,2.255
0.0036032842266349925,2.256
0.0060670824024769915,2.257
0.007753669293869736,2.258
0.008624959200901627,2.259
0.008734307855995077,2.26
0.008187036670842278,2.261
0.0071210857248504645,2.262
0.005693207414918753,2.263
0.00406355410411655,2.264
0.0023814331671672432,2.265
0.0007787339794500583,2.266
-0.0006298828818127723,2.267
-0.0017403215159501155,2.268
-0.002460593217803115,2.269
-0.0027395153931014933,2.27
-0.0025946642290435224,2.271
-0.0021035767120995124,2.272
-0.0013764983986879861,2.273
-0.0005598291533766283,2.274
0.00014664039865584094,2.275
0.0005204459963780024,2.276
0.00038533749528169107,2.277
-0.0003302481023519108,2.278
-0.0015741286811815196,2.279
-0.003193403833440513,2.28
-0.0049788158230328425,2.281
-0.006699777726075156,2.282
-0.008103160314851582,2.283
-0.008908775419653812,2.284
-0.008854992879454078,2.285
-0.00777973872951084,2.286
-0.005685486990722226,2.287
-0.002760410365485532,2.288
0.000646409229882305,2.289
0.004095312774920467,2.29
0.007145473690130588,2.291
0.00942413857056753,2.292
0.010670525381170854,2.293
0.010761851174773799,2.294
0.009724232832759661,2.295
0.007725364859205183,2.296
0.005056551324197712,2.297
0.002118006891008411,2.298
-0.0006166220395835437,2.299
-0.002683853051409474,2.3
-0.003744490050216973,2.301
-0.0036887659198711403,2.302
-0.002675732091972597,2.303
-0.0010656750037721732,2.304
0.000696666996879129,2.305
0.0021624985081426587,2.306
0.0029348749059212,2.307
0.002745514788359703,2.308
0.001536211065539144,2.309
-0.0005066536102520633,2.31
-0.002987979061726191,2.311
-0.005402840271189879,2.312
-0.007265866122914897,2.313
-0.008212426943580957,2.314
-0.008050111364583515,2.315
-0.0067797099366324245,2.316
-0.0045925447887652255,2.317
-0.0018449981854715136,2.318
0.0009864963435135825,2.319
0.0033802092118866934,2.32
0.004899922674046069,2.321
0.005358937308685683,2.322
0.004907356042585873,2.323
0.0039524930995185155,2.324
0.0029521139328822685,2.325
0.00221715056738696,2.326
0.001831769177125715,2.327
0.001701582640327017,2.328
0.0016675418017106632,2.329
0.001611973761001839,2.33
0.0015169300398997173,2.331
0.0014592070464350124,2.332
0.0015616517167723319,2.333
0.001943511596264227,2.334
0.0026739197573894743,2.335
0.003708214958886046,2.336
0.004813821457689489,2.337
0.005541438827605449,2.338
0.005299908649172981,2.339
0.003533892512612658,2.34
-4.369482579802928e-05,2.341
-0.005254485520505507,2.342
-0.011383260894931696,2.343
-0.01727261912101784,2.344
-0.02158397641303789,2.345
-0.023161886522287504,2.346
-0.021379028232279936,2.347
-0.0163330640363899,2.348
-0.00882689745846755,2.349
-0.0001669912948559554,2.35
0.008142080142971561,2.351
0.014725789810531697,2.352
0.018606084481580604,2.353
0.019370725877106563,2.354
0.017247113270535717,2.355
0.013043396267094559,2.356
0.007921477555548784,2.357
0.0030648780214966374,2.358
-0.0006312084810585459,2.359
-0.0027393653422969244,2.36
-0.0033026418431753714,2.361
-0.0027165375519238007,2.362
-0.0015780420936252868,2.363
-0.0005198513277742427,2.364
-3.256735795465429e-05,2.365
-0.0003313880251341643,2.366
-0.001330753518333017,2.367
-0.0027201726681234327,2.368
