VaMe,time
0.002457827843501591,0.001
0.06407432254487849,0.002
0.10912098636314282,0.003
0.12516476736038315,0.004
0.10630713977923582,0.005
0.054566842847488375,0.006
-0.02024521579610192,0.007
-0.10290706336680111,0.008
-0.17717351011359392,0.009
-0.23002269135548545,0.01
-0.2539077481848385,0.011
-0.24694613172492588,0.012
-0.21202948596112714,0.013
-0.15591658098283107,0.014
-0.0888541351418572,0.015
-0.0239821921148408,0.016
0.02521835894712906,0.017
0.0494956701268553,0.018
0.047651616034574414,0.019
0.027085223926562322,0.02
0.0010361797030349119,0.021
-0.016215443654672104,0.022
-0.014722033358456475,0.023
0.007501974614145102,0.024
0.04478676801259445,0.025
0.08738898756746294,0.026
0.125205902353573,0.027
0.14984787381700984,0.028
0.15593411743086538,0.029
0.14245596892316376,0.03
0.11357805318852877,0.031
0.0779104584968317,0.032
0.04587920884860817,0.033
0.02584507358711864,0.034
0.020986323554553918,0.035
0.028772909336534383,0.036
0.0424098532141705,0.037
0.052485358098112035,0.038
0.048878409563323524,0.039
0.02407805307446172,0.04
-0.022648474970083664,0.041
-0.08271452689045102,0.042
-0.13965372337657547,0.043
-0.175221598163379,0.044
-0.17777189051163442,0.045
-0.14736500027417893,0.046
-0.09375236720778941,0.047
-0.029873341932563025,0.048
0.033272365469957786,0.049
0.08766161872669583,0.05
0.12680057075674897,0.051
0.144842193308849,0.052
0.1376179128468813,0.053
0.10459915046882208,0.054
0.05073880296801175,0.055
-0.012327440050535099,0.056
-0.0676856440156614,0.057
-0.09915568688015208,0.058
-0.09932974067277846,0.059
-0.07351841729626979,0.06
-0.036727159311709424,0.061
-0.006150390799392317,0.062
0.006412767902780297,0.063
-0.0013910255295345982,0.064
-0.023158573199305706,0.065
-0.047636512382901466,0.066
-0.0636669103667563,0.067
-0.06483790404446357,0.068
-0.05225077728105458,0.069
-0.033261104376177825,0.07
-0.01643223120832961,0.071
-0.006312987619885947,0.072
-0.001540401670392627,0.073
0.0030990124973710037,0.074
0.012735383111976088,0.075
0.029400086257074423,0.076
0.05124781030590589,0.077
0.07363293920120623,0.078
0.09067770401445509,0.079
0.09649226539755146,0.08
0.08697305922317465,0.081
0.06246719284574594,0.082
0.02893668151751424,0.083
-0.0044127305496213754,0.084
-0.02972864797244646,0.085
-0.043817206439419144,0.086
-0.047837725814094186,0.087
-0.04441980191498954,0.088
-0.035177683037578567,0.089
-0.02027890296946436,0.09
0.0007128730081077361,0.091
0.02771159515660769,0.092
0.058541625613397055,0.093
0.08756091940116986,0.094
0.10637450975034946,0.095
0.10716374079114045,0.096
0.08662180253909538,0.097
0.04787791548072209,0.098
-0.0008066104696420245,0.099
-0.049814232150268506,0.1
-0.09172178932401871,0.101
-0.12189891761429682,0.102
-0.1368992622867752,0.103
-0.1341826898318977,0.104
-0.1140087860741792,0.105
-0.08035712494807631,0.106
-0.039077021362496765,0.107
0.00452525966962953,0.108
0.046147291741429265,0.109
0.08130712614071457,0.11
0.10411716602330189,0.111
0.10730660349280907,0.112
0.08484231810061135,0.113
0.03657520806756919,0.114
-0.02898481091071335,0.115
-0.0966778123814693,0.116
-0.14998436603198217,0.117
-0.17624046516999267,0.118
-0.16962186114416464,0.119
-0.13133803259829985,0.12
-0.06816139015270617,0.121
0.00901275238196622,0.122
0.08675963205617766,0.123
0.1520009160498416,0.124
0.1954032976208592,0.125
0.21312196925402807,0.126
0.20568412950917508,0.127
0.17528673286945184,0.128
0.12452098348633675,0.129
0.058013551755108646,0.13
-0.015221591904277272,0.131
-0.0822962132077281,0.132
-0.13041902703253458,0.133
-0.15133674484187146,0.134
-0.14375919483969415,0.135
-0.11390611626538671,0.136
-0.07406888611361051,0.137
-0.038185786506944465,0.138
-0.015901621492572526,0.139
-0.008824027125038516,0.14
-0.011127370112442674,0.141
-0.013527067022174804,0.142
-0.007579856167345601,0.143
0.01206126369203902,0.144
0.046791078905400615,0.145
0.09293797574049456,0.146
0.14082169746779086,0.147
0.17605352701550478,0.148
0.1846500944163624,0.149
0.16015656423734168,0.15
0.10708789514800983,0.151
0.037142754867251424,0.152
-0.03793747079081076,0.153
-0.1101480679506624,0.154
-0.17398403091843467,0.155
-0.22342573743727817,0.156
-0.2504420982263508,0.157
-0.24656831001242954,0.158
-0.2068484371862152,0.159
-0.13365441801169242,0.16
-0.03837080394346383,0.161
0.05997125977924287,0.162
0.13930748851368374,0.163
0.18134154732632,0.164
0.17797893507218113,0.165
0.1345859352468717,0.166
0.06867404341148049,0.167
0.004045424693853278,0.168
-0.038044417187368784,0.169
-0.04687341160966498,0.17
-0.025352948956132895,0.171
0.012668445106447691,0.172
0.04865636063197237,0.173
0.06616434709181822,0.174
0.05623433979319164,0.175
0.020599167114452085,0.176
-0.028788068814591984,0.177
-0.07527628125511306,0.178
-0.10554888098023829,0.179
-0.11413936733440798,0.18
-0.10172581773854404,0.181
-0.07075625592054297,0.182
-0.02301449155669606,0.183
0.03958634388529838,0.184
0.11270693546986622,0.185
0.18822030592388864,0.186
0.25445694010962744,0.187
0.29729534795591367,0.188
0.30216422083348377,0.189
0.25778021791679495,0.19
0.1611890636682783,0.191
0.02178818356994126,0.192
-0.13782592104983415,0.193
-0.2852154055590722,0.194
-0.3869346376995484,0.195
-0.421168274796697,0.196
-0.38633349499692643,0.197
-0.29947731768869323,0.198
-0.18726855803396888,0.199
-0.07612739643237565,0.2
0.01443701524800542,0.201
0.07419158862486269,0.202
0.10163066091012068,0.203
0.1024110543858877,0.204
0.08711705786634046,0.205
0.06821492906176195,0.206
0.056633658398056605,0.207
0.05865054297374079,0.208
0.07435590905671627,0.209
0.09879399682734036,0.21
0.1247859913189007,0.211
0.14539813963951395,0.212
0.15545328661757168,0.213
0.15249238376667018,0.214
0.13693131523570723,0.215
0.1110063877306134,0.216
0.07735763207863454,0.217
0.03827321945405886,0.218
-0.00465124911503676,0.219
-0.0503751818972134,0.22
-0.09700534297487627,0.221
-0.13999757910007377,0.222
-0.1723416611936283,0.223
-0.1873204136234908,0.224
-0.1815889505529874,0.225
-0.15644463019438928,0.226
-0.11715010957123044,0.227
-0.07094969190661705,0.228
-0.024788917058440614,0.229
0.01606694074207439,0.23
0.04798115096527077,0.231
0.06790374584326178,0.232
0.07290866770895515,0.233
0.06142273276950066,0.234
0.0353488582514727,0.235
0.0017102245616879117,0.236
-0.027445482010581043,0.237
-0.03818287738951099,0.238
-0.020562261153942274,0.239
0.02588935397090224,0.24
0.09088030369056188,0.241
0.1567341639554492,0.242
0.20399497234217137,0.243
0.21717425219419337,0.244
0.18910938052927762,0.245
0.1224083014304339,0.246
0.028280114970574713,0.247
-0.0755787728693526,0.248
-0.16802743229594846,0.249
-0.22970813318207875,0.25
-0.24936344986841258,0.251
-0.2276188628994935,0.252
-0.17577000753937017,0.253
-0.11042063487970674,0.254
-0.04711136803732807,0.255
0.004143271175631291,0.256
0.040108951885777386,0.257
0.06244683597420027,0.258
0.07425898279914947,0.259
0.07759971979017785,0.26
0.07328282107315308,0.261
0.06221917491316741,0.262
0.0467898336672774,0.263
0.031167503724763786,0.264
0.020135720921357465,0.265
0.016889326284676626,0.266
0.021136626924724865,0.267
0.028805527851919165,0.268
0.03379230406519575,0.269
0.031064039857983183,0.27
0.019587224252108914,0.271
0.0033430202964189475,0.272
-0.01047779535588419,0.273
-0.015279219299627193,0.274
-0.008671355344107082,0.275
0.006156170047724973,0.276
0.021927928582126794,0.277
0.03075477643469374,0.278
0.02781721331309427,0.279
0.013493433073952947,0.28
-0.007025660747138022,0.281
-0.026305744814330855,0.282
-0.03801071561989671,0.283
-0.03937767364793342,0.284
-0.0317440915070479,0.285
-0.019288951487198076,0.286
-0.0072054214481898264,0.287
-4.922818611180957e-05,0.288
-0.0003183627343922048,0.289
-0.007803853970398852,0.29
-0.020190188182643332,0.291
-0.0343512172119749,0.292
-0.047480708969703966,0.293
-0.057529801960617,0.294
-0.06281042622925678,0.295
-0.06141754106761137,0.296
-0.051608051876977756,0.297
-0.03313389809232664,0.298
-0.00790937364924177,0.299
0.020972981123649374,0.3
0.05068640441642783,0.301
0.07896153140839654,0.302
0.10317606117675004,0.303
0.11964211786649234,0.304
0.12459855692396188,0.305
0.11658999418389503,0.306
0.09786527683981648,0.307
0.07315288339286838,0.308
0.04679207211063736,0.309
0.020562327103967885,0.31
-0.006195797926947763,0.311
-0.03442349360070603,0.312
-0.06321433539830595,0.313
-0.08977537334172082,0.314
-0.11091336783694736,0.315
-0.12388064782003085,0.316
-0.12646501224851273,0.317
-0.11773464765781973,0.318
-0.09910779514585857,0.319
-0.07430683422003706,0.32
-0.04817912415323738,0.321
-0.025085709439409375,0.322
-0.007183567348629897,0.323
0.0064924643671684405,0.324
0.019086402588028763,0.325
0.03354404599792425,0.326
0.05063477717987295,0.327
0.06875348886103466,0.328
0.08507561962705303,0.329
0.09681054951779829,0.33
0.10190764049712776,0.331
0.09923116015947427,0.332
0.08843289573950118,0.333
0.0697730132974994,0.334
0.04444287130060096,0.335
0.015591453980658403,0.336
-0.011490504836834163,0.337
-0.03164465538759428,0.338
-0.043083132906105576,0.339
-0.04834308990605273,0.34
-0.052267250993268205,0.341
-0.0590918600517123,0.342
-0.07016229437532243,0.343
-0.08275611737705406,0.344
-0.09068191501306018,0.345
-0.08653743256118064,0.346
-0.064418231616046,0.347
-0.02230343644710135,0.348
0.03622630123019895,0.349
0.10191488522684182,0.35
0.16203568200260637,0.351
0.2038658349531394,0.352
0.2178707498245571,0.353
0.19968591045002745,0.354
0.1504423625839221,0.355
0.07567189018598929,0.356
-0.015992654198846958,0.357
-0.11315878614805823,0.358
-0.20139761313677856,0.359
-0.26445764813237577,0.36
-0.28858559555126717,0.361
-0.2682558637802321,0.362
-0.2093355692999035,0.363
-0.12716217689743245,0.364
-0.04058915432646293,0.365
0.03431239088893953,0.366
0.0877660084534781,0.367
0.11667425209176996,0.368
0.12333592618351223,0.369
0.11369628216239505,0.37
0.09556645447581569,0.371
0.07669713621986828,0.372
0.062348004914390506,0.373
0.05307637626625167,0.374
0.044784808584111095,0.375
0.03174247909839989,0.376
0.010445043321597791,0.377
-0.018170546795370543,0.378
-0.04861488753356651,0.379
-0.07226725947636532,0.38
-0.08024245127124563,0.381
-0.06718868044098805,0.382
-0.03395149543311232,0.383
0.012492936259900195,0.384
0.06112866426861186,0.385
0.09982741609438983,0.386
0.11867816753985387,0.387
0.11297943897604076,0.388
0.08483717939862509,0.389
0.04270726093419785,0.39
-0.001132829987384616,0.391
-0.034566409139382796,0.392
-0.05004324946980375,0.393
-0.04753864206686938,0.394
-0.03394205704677206,0.395
-0.019032742249027148,0.396
-0.01072365075769673,0.397
-0.011956155580772503,0.398
-0.020156989162161815,0.399
-0.02942963572008802,0.4
-0.03423230020388789,0.401
-0.0318125805527424,0.402
-0.022241923942234065,0.403
-0.007634603184720667,0.404
0.008177349839433395,0.405
0.02009452735843404,0.406
0.023136968435536694,0.407
0.014489647365577125,0.408
-0.004889203310551462,0.409
-0.02991839378210685,0.41
-0.052763991456716286,0.411
-0.06620300076968838,0.412
-0.06742515084718217,0.413
-0.05900622252003491,0.414
-0.04583220710029318,0.415
-0.030518168820675685,0.416
-0.011262010279499041,0.417
0.015830278085017555,0.418
0.05194695808155003,0.419
0.09262494544064206,0.42
0.12876248879051921,0.421
0.15009321611784343,0.422
0.14859662824960126,0.423
0.12069120702023337,0.424
0.06865562903179531,0.425
0.0013896362692125473,0.426
-0.0670907170729706,0.427
-0.12213989269031682,0.428
-0.15314936543161706,0.429
-0.1553990281685947,0.43
-0.1298754284607225,0.431
-0.08302322925738526,0.432
-0.025871289200936048,0.433
0.02877527391616454,0.434
0.07010467993984203,0.435
0.09190287945102991,0.436
0.09319351993106438,0.437
0.07740911205640766,0.438
0.05073462676339043,0.439
0.019987962378578902,0.44
-0.00924820445204549,0.441
-0.033158285865444746,0.442
-0.049109027325892285,0.443
-0.05540549796845516,0.444
-0.051931696814771826,0.445
-0.040763566453455274,0.446
-0.025678270736880275,0.447
-0.010669378217885824,0.448
0.0014464290489125406,0.449
0.00960189852850678,0.45
0.014182100865192684,0.451
0.016254700246284916,0.452
0.016978277433359813,0.453
0.01750976375896214,0.454
0.01912554424628291,0.455
0.023050371409085047,0.456
0.02985154672027159,0.457
0.038730787692476995,0.458
0.04731236413657474,0.459
0.05245799959809771,0.46
0.05170545482428826,0.461
0.043997809173316846,0.462
0.02924456902865527,0.463
0.008016014398043688,0.464
-0.01773458788768083,0.465
-0.0440705302675266,0.466
-0.06574246888387944,0.467
-0.07782742157495548,0.468
-0.07775920676445916,0.469
-0.06689407655590038,0.47
-0.05010975007677275,0.471
-0.033125617263279186,0.472
-0.019373446052223922,0.473
-0.008507923341659184,0.474
0.002757979743163649,0.475
0.01822027018802675,0.476
0.039647399077638944,0.477
0.06536899466591317,0.478
0.09034508803667876,0.479
0.10747299289007461,0.48
0.10968159310299959,0.481
0.09230308619769477,0.482
0.05492028103506298,0.483
0.0018703852925684933,0.484
-0.05829446413909734,0.485
-0.11352297027307906,0.486
-0.14988864247230785,0.487
-0.15596271416674734,0.488
-0.12881241755924716,0.489
-0.07638539779652799,0.49
-0.013399098152142972,0.491
0.04530416338426103,0.492
0.08878375845897589,0.493
0.11071766904453177,0.494
0.10882770264785584,0.495
0.08458187204689054,0.496
0.043378247735498636,0.497
-0.005678968159403503,0.498
-0.05125556638393273,0.499
-0.08245732721774762,0.5
-0.09197717884631323,0.501
-0.07857846631380505,0.502
-0.047646838741055964,0.503
-0.009288043093044325,0.504
0.025176083987887385,0.505
0.0465082655382516,0.506
0.04946561702307902,0.507
0.03357020336873427,0.508
0.0033243144998682302,0.509
-0.032287245534055015,0.51
-0.061681784620708814,0.511
-0.07420272351445258,0.512
-0.06407165824493344,0.513
-0.03238273365234111,0.514
0.013939468065407785,0.515
0.06482964938920957,0.516
0.10981185681309023,0.517
0.14030528715724871,0.518
0.15122330320150698,0.519
0.1415315273509721,0.52
0.11387191615893831,0.521
0.07378704042683741,0.522
0.0290806312542731,0.523
-0.010971719949825591,0.524
-0.03785634063744207,0.525
-0.04764387209422118,0.526
-0.04360813076018532,0.527
-0.03485931851793648,0.528
-0.0318136536124551,0.529
-0.041589207786379465,0.53
-0.0656296605974178,0.531
-0.09987633643471114,0.532
-0.13615787845774108,0.533
-0.16372286152892662,0.534
-0.17153726035041403,0.535
-0.1519292519352656,0.536
-0.10416633351096373,0.537
-0.03579007973233299,0.538
0.03929465518074249,0.539
0.10534116916808746,0.54
0.14979261284436732,0.541
0.1664504448121724,0.542
0.1558754677850064,0.543
0.12386986001649074,0.544
0.0794432289422834,0.545
0.033143187976691406,0.546
-0.0042594362535419775,0.547
-0.02377072630021224,0.548
-0.021692251466577377,0.549
-0.002683625151610794,0.55
0.02151956652905276,0.551
0.03818572396599477,0.552
0.03989317739030171,0.553
0.026601577357846865,0.554
0.0031440902029156695,0.555
-0.024844064673433797,0.556
-0.053218695156765236,0.557
-0.07905135824524642,0.558
-0.0993015177802356,0.559
-0.11014990674846799,0.56
-0.1079191163597716,0.561
-0.09105508078905325,0.562
-0.06146115078034989,0.563
-0.024179828934289816,0.564
0.014120809427325645,0.565
0.04693572462251743,0.566
0.06941690467302532,0.567
0.07943783221381472,0.568
0.07812219066725234,0.569
0.06955524324282479,0.57
0.059576481221308104,0.571
0.05382094785046102,0.572
0.05532410633355636,0.573
0.06253182011339735,0.574
0.06924485664611253,0.575
0.06744110981629761,0.576
0.051776457698971844,0.577
0.02300564594240894,0.578
-0.011993215564441507,0.579
-0.04407001226483499,0.58
-0.06708484766504479,0.581
-0.08030821144621302,0.582
-0.08648782560950431,0.583
-0.08864412722768214,0.584
-0.08838667302250228,0.585
-0.08557576765663531,0.586
-0.07871084119378564,0.587
-0.06597101547638892,0.588
-0.046300786644426696,0.589
-0.020129809366084942,0.59
0.009986140703560926,0.591
0.0391750080578351,0.592
0.06169521044388818,0.593
0.07387943857733809,0.594
0.07635340312091313,0.595
0.07369133588473778,0.596
0.07176603572141302,0.597
0.07415354470226296,0.598
0.07946600479146776,0.599
0.08164481794812037,0.6
0.073217605812645,0.601
0.04912515151462867,0.602
0.00907617096649797,0.603
-0.04211573281270544,0.604
-0.0957965258251141,0.605
-0.14132240653872225,0.606
-0.1680038804648787,0.607
-0.16756302810466703,0.608
-0.13704280138563404,0.609
-0.08083614253042436,0.61
-0.010204478727463478,0.611
0.06009775007772664,0.612
0.11648181318267023,0.613
0.14996664028866458,0.614
0.1572736683623426,0.615
0.14025439286942207,0.616
0.10465291874289429,0.617
0.05879221877440426,0.618
0.012069902324762164,0.619
-0.027294816532387568,0.62
-0.054705649837708724,0.621
-0.07003405388185097,0.622
-0.07601783047300595,0.623
-0.07574054259276258,0.624
-0.07139039475941289,0.625
-0.06455797104318746,0.626
-0.05690451728012125,0.627
-0.050405928747662344,0.628
-0.046685419024864,0.629
-0.0453736639205543,0.63
-0.04307148284252591,0.631
-0.034884669265426764,0.632
-0.017683164811469015,0.633
0.00801667896337383,0.634
0.03884668160551851,0.635
0.07026032489852042,0.636
0.09726423614009859,0.637
0.11481628001439811,0.638
0.11909789973455272,0.639
0.10889557104155478,0.64
0.08548208135277367,0.641
0.05152265490447908,0.642
0.011235302573745774,0.643
-0.0280753678822,0.644
-0.055992918053376944,0.645
-0.06280735456102733,0.646
-0.04568544023087159,0.647
-0.01210943066618528,0.648
0.023207977649131104,0.649
0.04566707376911198,0.65
0.046933627553293465,0.651
0.026963834606554788,0.652
-0.007745401763168003,0.653
-0.04740185733932787,0.654
-0.08150943511011811,0.655
-0.10109387527991563,0.656
-0.10149306439441409,0.657
-0.08415458832985628,0.658
-0.055282721088613714,0.659
-0.0221077696484821,0.66
0.010403978346842561,0.661
0.040334750148120595,0.662
0.0669366719887187,0.663
0.08806402000410571,0.664
0.09950316582532215,0.665
0.09652079122838457,0.666
0.07594359086287139,0.667
0.037908352079994226,0.668
-0.012692023241763814,0.669
-0.0660010863179813,0.67
-0.10972102656512829,0.671
-0.13389371481721354,0.672
-0.13473317452461805,0.673
-0.11491407764636304,0.674
-0.0812237318055002,0.675
-0.041957730946499995,0.676
-0.004892272889551794,0.677
0.0244907430872957,0.678
0.04427852283431346,0.679
0.05620891291335286,0.68
0.06445768583078702,0.681
0.0734373517490311,0.682
0.08515483907170517,0.683
0.09762850182549468,0.684
0.10589487654439009,0.685
0.10517228166421176,0.686
0.09398681790083731,0.687
0.07496977119032372,0.688
0.052431731996779425,0.689
0.028619604758483744,0.69
0.002352975588139198,0.691
-0.02851679513929539,0.692
-0.06318134918077195,0.693
-0.09571004508706887,0.694
-0.1163523779773854,0.695
-0.11618203430701143,0.696
-0.09268485952565857,0.697
-0.052278828661461954,0.698
-0.007468518269315826,0.699
0.029308038618750167,0.7
0.05081210310466238,0.701
0.056339007888835536,0.702
0.04926880444675544,0.703
0.03349337197571199,0.704
0.011962834073990378,0.705
-0.012560275134984452,0.706
-0.03715171123569356,0.707
-0.05976361140888106,0.708
-0.07983383780317212,0.709
-0.09678315263619841,0.71
-0.1074515115534114,0.711
-0.10573976782914209,0.712
-0.08615450494700162,0.713
-0.048371176267520216,0.714
0.0016669819302174618,0.715
0.05463343928335263,0.716
0.10151678448866387,0.717
0.135766805639859,0.718
0.15381772162150553,0.719
0.1547242273209736,0.72
0.139339600123473,0.721
0.10950300790638628,0.722
0.06803594629939139,0.723
0.019487041502807036,0.724
-0.029587462410537377,0.725
-0.0715589440100898,0.726
-0.09963302250390291,0.727
-0.10999739733695545,0.728
-0.10310156653504864,0.729
-0.08334265417205422,0.73
-0.05739146576787644,0.731
-0.03192505077933653,0.732
-0.01158784158374981,0.733
0.0023049003020567406,0.734
0.01191451239067597,0.735
0.021694693595522115,0.736
0.036426431551308834,0.737
0.05899582497133929,0.738
0.08816017642616422,0.739
0.11738736562867923,0.74
0.1361902444058123,0.741
0.13386134032130625,0.742
0.10407597315359947,0.743
0.04865442767051575,0.744
-0.021538115299498787,0.745
-0.090292022690151,0.746
-0.1429371556467515,0.747
-0.1717578527412868,0.748
-0.17658030047305265,0.749
-0.1614444983408257,0.75
-0.13110354313194053,0.751
-0.09018083874285626,0.752
-0.04398980104822587,0.753
0.0017204841078537498,0.754
0.042145650608041804,0.755
0.0737984765913848,0.756
0.09339696065858097,0.757
0.09726535024080891,0.758
0.0829790074683482,0.759
0.05227329446794115,0.76
0.012368230338157479,0.761
-0.025925943756849562,0.762
-0.052187200480471284,0.763
-0.05989388417357317,0.764
-0.04792345117173089,0.765
-0.020362451606887336,0.766
0.014582774711934234,0.767
0.04673250082833614,0.768
0.06755330354421517,0.769
0.07408243075245877,0.77
0.07033767572256629,0.771
0.06446504657342107,0.772
0.06341490965166478,0.773
0.06903407685336388,0.774
0.07770729982597954,0.775
0.08262966925112117,0.776
0.07660837548181783,0.777
0.05414313073270088,0.778
0.01295987111168766,0.779
-0.04440521903507346,0.78
-0.10930352341852229,0.781
-0.16741028026789742,0.782
-0.20255309131353746,0.783
-0.20363335319975304,0.784
-0.17038449697935748,0.785
-0.11312451236189916,0.786
-0.047199915267553245,0.787
0.013139629979068961,0.788
0.058572395853761436,0.789
0.08586080423342074,0.79
0.09663237305310862,0.791
0.0949800814453616,0.792
0.08566971552934734,0.793
0.07342220919374746,0.794
0.06211480793721826,0.795
0.05355020375669503,0.796
0.04692581511873461,0.797
0.03957810987091553,0.798
0.028660206085408448,0.799
0.013183330882247175,0.8
-0.00489940383503777,0.801
-0.02189570431483807,0.802
-0.035017822667612934,0.803
-0.04376679557114555,0.804
-0.048844531785309765,0.805
-0.05042453060282317,0.806
-0.04790372022502539,0.807
-0.04108984863241661,0.808
-0.03154336933978653,0.809
-0.02269519398577619,0.81
-0.017874658626663275,0.811
-0.017550058097992836,0.812
-0.018713738783392653,0.813
-0.017221127421212276,0.814
-0.010545633472164277,0.815
0.0015888047802474037,0.816
0.018346421888051006,0.817
0.038652506179477276,0.818
0.060838538150151084,0.819
0.08169885565865875,0.82
0.09594866542208812,0.821
0.09680710144129304,0.822
0.0782568007063936,0.823
0.03870183033657555,0.824
-0.015855929103826022,0.825
-0.07192742115374307,0.826
-0.11335430597059237,0.827
-0.12838399009431525,0.828
-0.11424844230966688,0.829
-0.07714845364528335,0.83
-0.028999680484761158,0.831
0.017080270228554562,0.832
0.050567038984937654,0.833
0.06520756969229664,0.834
0.05938746998510942,0.835
0.03669362422164817,0.836
0.00605343087230927,0.837
-0.020459199736737543,0.838
-0.032134895029638746,0.839
-0.02370898217146964,0.84
0.003409990657532355,0.841
0.042358291380841864,0.842
0.08301454725880604,0.843
0.11453429595705387,0.844
0.1277151857735078,0.845
0.11684162247148215,0.846
0.08103908460725008,0.847
0.02488296151250066,0.848
-0.04189188610613603,0.849
-0.10568715080216266,0.85
-0.1522753275091118,0.851
-0.1716125566382044,0.852
-0.16096696349256548,0.853
-0.12457725974338571,0.854
-0.07170397436818489,0.855
-0.01426142284672321,0.856
0.03626123060532024,0.857
0.0715617134486781,0.858
0.08752526299910415,0.859
0.08357627569554514,0.86
0.0616987935564007,0.861
0.02621871941301446,0.862
-0.015904591519138447,0.863
-0.05548275571700852,0.864
-0.08312755347345963,0.865
-0.09243613522789171,0.866
-0.08227640298436688,0.867
-0.05655462175873504,0.868
-0.02198452565038306,0.869
0.014533789349155491,0.87
0.04776398586521201,0.871
0.07487895098012085,0.872
0.09529080867954041,0.873
0.10984020154522758,0.874
0.1197027082323745,0.875
0.12535041893152593,0.876
0.12547631109729074,0.877
0.11606688361970145,0.878
0.09097316291070445,0.879
0.045256267638309096,0.88
-0.01957963787177869,0.881
-0.09219827811729375,0.882
-0.15417534556295812,0.883
-0.18853375405543277,0.884
-0.18768170526664998,0.885
-0.1550328797158565,0.886
-0.10098805230344264,0.887
-0.03767137990373347,0.888
0.024379881782747834,0.889
0.07705555258862759,0.89
0.11429859787090454,0.891
0.13178166656485107,0.892
0.127129709207758,0.893
0.10077996992042779,0.894
0.05702791435466004,0.895
0.004068334901014597,0.896
-0.04783534552109974,0.897
-0.08918297467971255,0.898
-0.1131465227903364,0.899
-0.11598374240480706,0.9
-0.09730160301744158,0.901
-0.06109022429543109,0.902
-0.016229836075294553,0.903
0.025388677487918756,0.904
0.05300076023310036,0.905
0.06146032957271902,0.906
0.05375122945574141,0.907
0.039576946078811244,0.908
0.030276029612132587,0.909
0.03320943616574552,0.91
0.04879495000031886,0.911
0.07090777608289417,0.912
0.0897419139636418,0.913
0.0956357589778432,0.914
0.08216810261589427,0.915
0.04774552410000689,0.916
-0.0039606733339556605,0.917
-0.06442768865747953,0.918
-0.12198689988987507,0.919
-0.16495389948863845,0.92
-0.18484908604124517,0.921
-0.17803320745842144,0.922
-0.1454842327955206,0.923
-0.0920284502546973,0.924
-0.02634426814611824,0.925
0.039267081469740166,0.926
0.09143056825699239,0.927
0.11995400119135208,0.928
0.12110183706871613,0.929
0.09851112040174412,0.93
0.061922347618417146,0.931
0.02381193046837611,0.932
-0.005420760587595527,0.933
-0.02120325618153123,0.934
-0.025058367487597155,0.935
-0.02162294316014374,0.936
-0.014834312926127578,0.937
-0.0059033050302176255,0.938
0.005938150733711572,0.939
0.021370056776504415,0.94
0.03974489748989115,0.941
0.0589746542178255,0.942
0.07553984695937713,0.943
0.08467029461636502,0.944
0.08175602380789752,0.945
0.0648096238597612,0.946
0.03593540171544725,0.947
0.0005157169218478996,0.948
-0.03458835185221873,0.949
-0.06249172431956649,0.95
-0.07809235926949278,0.951
-0.08029459556438648,0.952
-0.07264454659897496,0.953
-0.06142260910771292,0.954
-0.05269577622946144,0.955
-0.0499398958171369,0.956
-0.05278784151092269,0.957
-0.057467001977141906,0.958
-0.059002743531295344,0.959
-0.053511722374700574,0.96
-0.03922148892217224,0.961
-0.016632300256926826,0.962
0.011995640018178917,0.963
0.04374608754801477,0.964
0.07575351117091986,0.965
0.10514892053360467,0.966
0.1286487541843628,0.967
0.14211587021413455,0.968
0.1410224383184893,0.969
0.12253819062940091,0.97
0.0875731196296665,0.971
0.040477519151794795,0.972
-0.012702853932776413,0.973
-0.06511975529845278,0.974
-0.10955595588252384,0.975
-0.1398137326658066,0.976
-0.1522993206597738,0.977
-0.1464655272285811,0.978
-0.12439933915968594,0.979
-0.0903467635630652,0.98
-0.0501244053725939,0.981
-0.010142432577860652,0.982
0.023727403273468044,0.983
0.0472259223147463,0.984
0.0585833122212019,0.985
0.05873465483071185,0.986
0.05080545389436366,0.987
0.039178766870599895,0.988
0.02824044329510628,0.989
0.0211837909493084,0.99
0.01928901723402522,0.991
0.021471279939137132,0.992
0.02428279813200824,0.993
0.023342100515701316,0.994
0.01606397014327167,0.995
0.003624936733257711,0.996
-0.009645992747277433,0.997
-0.018720103273843495,0.998
-0.01993680056547633,0.999
-0.011677438935019054,1.0
0.005863399799329007,1.001
0.03089951887470967,1.002
0.05956774976909878,1.003
0.08536577929544119,1.004
0.10009510195081034,1.005
0.0965979970229703,1.006
0.0719938622098808,1.007
0.03001805471445278,1.008
-0.01885603604969765,1.009
-0.06088268436108236,1.01
-0.08545843997063106,1.011
-0.09038337476765772,1.012
-0.0817986102409689,1.013
-0.06920322204508633,1.014
-0.05989186225785806,1.015
-0.05644819854903727,1.016
-0.05742775877265483,1.017
-0.05904916739510925,1.018
-0.056473914828751116,1.019
-0.04526400909315282,1.02
-0.023432369428013935,1.021
0.007126144983179817,1.022
0.04069216819970166,1.023
0.06895434123252168,1.024
0.08332432420497007,1.025
0.07805180868722722,1.026
0.052839145835953796,1.027
0.013704277906822371,1.028
-0.028647597730814392,1.029
-0.06272039909166685,1.03
-0.07995778971776628,1.031
-0.0759818249405464,1.032
-0.0503962279119226,1.033
-0.007014505249730467,1.034
0.04606949605468278,1.035
0.09766129787450177,1.036
0.13564542664727325,1.037
0.14966092252011592,1.038
0.13407080455563433,1.039
0.09045917804267152,1.04
0.02813285145700431,1.041
-0.03838269737178646,1.042
-0.0941111176906115,1.043
-0.12828595161973816,1.044
-0.13656714798333486,1.045
-0.12064984694486933,1.046
-0.08682741587022216,1.047
-0.04419671130046113,1.048
-0.0023719540357272704,1.049
0.030715191003318997,1.05
0.05030517022692828,1.051
0.05556245032355613,1.052
0.04946716891945609,1.053
0.037572581847941364,1.054
0.026008036667862694,1.055
0.019710646793155064,1.056
0.021385045751048996,1.057
0.030931012749340733,1.058
0.04523941391780155,1.059
0.05884752125927257,1.06
0.0655921316707889,1.061
0.060608256006548684,1.062
0.042088639819133196,1.063
0.012292388926480857,1.064
-0.02300300523945075,1.065
-0.05657654877343152,1.066
-0.08195668674529923,1.067
-0.0947717400254945,1.068
-0.09367650145854588,1.069
-0.08081617917940577,1.07
-0.06096407431610287,1.071
-0.03977457873285759,1.072
-0.022466192105648052,1.073
-0.012856879313337975,1.074
-0.012087801431621312,1.075
-0.017687715077053568,1.076
-0.024203500306662223,1.077
-0.025468489901797613,1.078
-0.017278203442408966,1.079
0.0009633648495913607,1.08
0.026313670906201233,1.081
0.05365150553623497,1.082
0.07725578152373165,1.083
0.09225431115884505,1.084
0.09638896273687926,1.085
0.09128035023410155,1.086
0.0812178959447314,1.087
0.06973466024160123,1.088
0.05712458972822422,1.089
0.0410086791366831,1.09
0.018828958996844083,1.091
-0.009806506889268351,1.092
-0.04213040066894446,1.093
-0.07301648868754225,1.094
-0.09696311777216249,1.095
-0.10979854845244025,1.096
-0.10940353954642375,1.097
-0.0960636668701663,1.098
-0.07256816682554786,1.099
-0.043155571988571555,1.1
-0.011717312021650696,1.101
0.01896777033015575,1.102
0.04651400258726106,1.103
0.06790909506431601,1.104
0.07933187719146557,1.105
0.07708707916390745,1.106
0.05930684154193304,1.107
0.02781009675171,1.108
-0.010889560834969787,1.109
-0.04655218969323618,1.11
-0.06824702875645525,1.111
-0.06807020263578968,1.112
-0.04377721162743422,1.113
0.00038836108022551323,1.114
0.05443744193568909,1.115
0.10478083068272702,1.116
0.13745066678889548,1.117
0.14147252963036502,1.118
0.11176859225359,1.119
0.05158654675372453,1.12
-0.026273198248750185,1.121
-0.10157422185017376,1.122
-0.1534708290227908,1.123
-0.16908229820600879,1.124
-0.1477705143397178,1.125
-0.09877965835177406,1.126
-0.035843421350004095,1.127
0.027012819571795948,1.128
0.07729208030479565,1.129
0.10474946589708783,1.13
0.10301739246424263,1.131
0.07227979777588435,1.132
0.020966777233002727,1.133
-0.03540992445517329,1.134
-0.07899944376257825,1.135
-0.0966945606764899,1.136
-0.08542844454801723,1.137
-0.05200112476800416,1.138
-0.008593511204531092,1.139
0.032169729661446815,1.14
0.060534658677045654,1.141
0.07116278048535517,1.142
0.0634733665608393,1.143
0.041501186224174695,1.144
0.013198628546142285,1.145
-0.011561306346875671,1.146
-0.024279031464159617,1.147
-0.020904547790010733,1.148
-0.0028964041328029522,1.149
0.0239098249964328,1.15
0.05128869213832977,1.151
0.07046059571354786,1.152
0.07392669149567554,1.153
0.057697267927591174,1.154
0.023451102800824162,1.155
-0.020730326127372842,1.156
-0.06246960504084776,1.157
-0.08997535696310116,1.158
-0.09718315029029623,1.159
-0.08598819479115302,1.16
-0.06433090378570759,1.161
-0.041562875284496856,1.162
-0.024259461163077603,1.163
-0.014693765433476981,1.164
-0.011426804251547247,1.165
-0.010473153495257279,1.166
-0.006662651065668331,1.167
0.004396430890155764,1.168
0.0240925709787553,1.169
0.0498460032202262,1.17
0.07640062566903608,1.171
0.09819941991335304,1.172
0.1109775024802961,1.173
0.11227427974924759,1.174
0.10166915306578048,1.175
0.08106013007536085,1.176
0.05426961272190206,1.177
0.025123250843874026,1.178
-0.005013728635123927,1.179
-0.03740716971181048,1.18
-0.07271821687203131,1.181
-0.10739073560187268,1.182
-0.1337123577169027,1.183
-0.14378926685991167,1.184
-0.13380713356217847,1.185
-0.10539522747146675,1.186
-0.0643873773868729,1.187
-0.01912023995004213,1.188
0.021225810734106017,1.189
0.049165130919828916,1.19
0.061719107829365856,1.191
0.06135842278783477,1.192
0.054016316281983744,1.193
0.04544197759043219,1.194
0.038460185348751126,1.195
0.03258100750756062,1.196
0.02517369382449528,1.197
0.013113877977627864,1.198
-0.005185037785909094,1.199
-0.027739024651739545,1.2
-0.04856011898268834,1.201
-0.06022045817809272,1.202
-0.05807268463528101,1.203
-0.04254082579370269,1.204
-0.017913548136214666,1.205
0.010323420032410735,1.206
0.03730884733705785,1.207
0.059476176943266824,1.208
0.074607145576179,1.209
0.08148901798489643,1.21
0.07951229880271445,1.211
0.06887304535388042,1.212
0.05121288037294235,1.213
0.02959738108290832,1.214
0.007545486357208736,1.215
-0.011996644084325403,1.216
-0.027083769621963148,1.217
-0.0368515346968478,1.218
-0.04164523372550007,1.219
-0.04298180819026669,1.22
-0.04290325115050749,1.221
-0.042996958943283925,1.222
-0.043880459698708595,1.223
-0.045308576714777525,1.224
-0.04646240217575827,1.225
-0.046090498879703554,1.226
-0.04229396469214127,1.227
-0.03236749635784465,1.228
-0.013865354435580471,1.229
0.013054199996114717,1.23
0.043978197789368255,1.231
0.07103288102711805,1.232
0.08575386503519872,1.233
0.08251385980745755,1.234
0.061158333366859455,1.235
0.027641629378906497,1.236
-0.007963469514269739,1.237
-0.03518194789452407,1.238
-0.04681691169563159,1.239
-0.04128813223639259,1.24
-0.02285777361766207,1.241
0.00046447333655600103,1.242
0.020339248618044117,1.243
0.031044645259160532,1.244
0.030806637826724204,1.245
0.0213835086630559,1.246
0.006229380546101636,1.247
-0.011712852128418945,1.248
-0.030864361166504064,1.249
-0.049817452115122146,1.25
-0.06554690924822423,1.251
-0.07320503781611062,1.252
-0.06807972153038909,1.253
-0.04830531492130968,1.254
-0.01644281041484124,1.255
0.021024894969967584,1.256
0.05578471323343884,1.257
0.08019959778068814,1.258
0.0894104638724668,1.259
0.08246135103619018,1.26
0.0621880604966659,1.261
0.03420392774984328,1.262
0.00532032560848286,1.263
-0.018340624231615966,1.264
-0.032812571692363596,1.265
-0.036818113274498715,1.266
-0.031676293923741175,1.267
-0.02061892708020565,1.268
-0.0072745170015465896,1.269
0.005857997948760259,1.27
0.01770297357939229,1.271
0.027557240770720418,1.272
0.033775624862166266,1.273
0.03357244501634643,1.274
0.024386112420025766,1.275
0.005769571174260192,1.276
-0.019566384264873494,1.277
-0.046082774410480525,1.278
-0.06696578859509585,1.279
-0.07623930073115154,1.28
-0.07040964270241515,1.281
-0.04924255968650252,1.282
-0.016028724719525177,1.283
0.022551252075653307,1.284
0.05736473962498201,1.285
0.07893281547073583,1.286
0.08035926623609538,1.287
0.06003141990900231,1.288
0.023034645493230647,1.289
-0.019678571524228142,1.29
-0.05490626170195578,1.291
-0.07243488236412078,1.292
-0.06900523598025603,1.293
-0.04865424331996836,1.294
-0.01968518764997659,1.295
0.009352659365219514,1.296
0.03228250173110136,1.297
0.045781505001045344,1.298
0.04874175072802313,1.299
0.04188389811546099,1.3
0.02803277635076261,1.301
0.012248925367871403,1.302
0.000518523783647482,1.303
-0.003092052238797812,1.304
0.001159289111400025,1.305
0.008811521685339028,1.306
0.013725639304013468,1.307
0.011238354830125027,1.308
0.0003479219373836386,1.309
-0.015924941888913115,1.31
-0.03218534695626791,1.311
-0.04335534695795238,1.312
-0.04650790389104422,1.313
-0.0409985882241716,1.314
-0.02791148354353798,1.315
-0.009743304447311363,1.316
0.009857270584159002,1.317
0.026692568242660294,1.318
0.03704537473146734,1.319
0.038793151967294874,1.32
0.03205877670529933,1.321
0.019199983033548623,1.322
0.004288152820138255,1.323
-0.0078702518763689,1.324
-0.013172799044551741,1.325
-0.009715742032812264,1.326
0.0013079231235027006,1.327
0.01580757290448972,1.328
0.028305355308385374,1.329
0.034132627872762875,1.33
0.03112489780873458,1.331
0.020227506522017404,1.332
0.00496067267408914,1.333
-0.010129835617076047,1.334
-0.02143110433525745,1.335
-0.02760865013869787,1.336
-0.029584902998521834,1.337
-0.029506870901293752,1.338
-0.029661415968182295,1.339
-0.031495908913721275,1.34
-0.03458866965699918,1.341
-0.03627858748234548,1.342
-0.03276998867764369,1.343
-0.02141139250084576,1.344
-0.0027110880795623467,1.345
0.019474056063865,1.346
0.039749181899321154,1.347
0.05350814816572699,1.348
0.05827171330322195,1.349
0.053743466260971914,1.35
0.041199041568079985,1.351
0.023009511227697337,1.352
0.0026250972588475236,1.353
-0.015548519943901447,1.354
-0.0272413932487779,1.355
-0.030190017720779283,1.356
-0.025350654041617248,1.357
-0.016292781913576186,1.358
-0.0071486673833428,1.359
-0.0005659826060250911,1.36
0.0030901062780380236,1.361
0.004968110011117997,1.362
0.006140386074417798,1.363
0.006493093993543955,1.364
0.0048201211607620895,1.365
-0.00019946871386273114,1.366
-0.008876725169102758,1.367
-0.019852898987262366,1.368
-0.03032823529981658,1.369
-0.03709731916207522,1.37
-0.03755654757753179,1.371
-0.030001524559468303,1.372
-0.013658387583480853,1.373
0.010700143961348236,1.374
0.03974141182309119,1.375
0.06746095779211472,1.376
0.08678225533394539,1.377
0.09212564516378091,1.378
0.08158363821939456,1.379
0.05765750978190273,1.38
0.026075739513638785,1.381
-0.006671035871051364,1.382
-0.03566675114766615,1.383
-0.058536340007743215,1.384
-0.07445353315330307,1.385
-0.08225272930198078,1.386
-0.0801039422575786,1.387
-0.06753417254183824,1.388
-0.04736884257201693,1.389
-0.025005896033420415,1.39
-0.0056230769792843605,1.391
0.008075835599576472,1.392
0.01626613250581702,1.393
0.021081874850009966,1.394
0.02523207039730003,1.395
0.030675815281432598,1.396
0.03762776268690933,1.397
0.04414142086530201,1.398
0.04673516090733439,1.399
0.042225588655441855,1.4
0.029863357280321003,1.401
0.012375871808007578,1.402
-0.004840629634748507,1.403
-0.016257303491426293,1.404
-0.019283097071658796,1.405
-0.015738177385570488,1.406
-0.010548470554122617,1.407
-0.00875566679837043,1.408
-0.01285540557166276,1.409
-0.021741091150607135,1.41
-0.0314681872648396,1.411
-0.0371959023578579,1.412
-0.03528496078627495,1.413
-0.024794378031569413,1.414
-0.007922149452846576,1.415
0.01095623524411206,1.416
0.027302215772117833,1.417
0.03827800715322439,1.418
0.04340938887565629,1.419
0.04393224830656784,1.42
0.04154602519986503,1.421
0.037342999586843346,1.422
0.03123631493424542,1.423
0.022129521733793813,1.424
0.0088557061105285,1.425
-0.008794433431894188,1.426
-0.029570441444626727,1.427
-0.05065330046216166,1.428
-0.06793770783058999,1.429
-0.07698421994301216,1.43
-0.07432039318979196,1.431
-0.058605333316253755,1.432
-0.031480630752516905,1.433
0.0024388969988368586,1.434
0.03687536379104343,1.435
0.06573183929013228,1.436
0.08429888145468997,1.437
0.08956929539512141,1.438
0.08024493378903555,1.439
0.05711540553021878,1.44
0.02392330810463507,1.441
-0.01211600298322478,1.442
-0.04150796435664895,1.443
-0.055819239061453946,1.444
-0.051488914913604016,1.445
-0.031446872535543846,1.446
-0.003552098477112493,1.447
0.022636932154358455,1.448
0.0387963068597812,1.449
0.03976198829938428,1.45
0.02450249968232943,1.451
-0.0038434585725451065,1.452
-0.03880423778840664,1.453
-0.07197444655992835,1.454
-0.09475881469786054,1.455
-0.10047803178882311,1.456
-0.08644647125864655,1.457
-0.055026977033048846,1.458
-0.012898219857886585,1.459
0.031160955976706,1.46
0.0687562579191361,1.461
0.09359848006802374,1.462
0.10230988111486546,1.463
0.09467574559934869,1.464
0.07353000378796215,1.465
0.04414106092462367,1.466
0.013019900230621127,1.467
-0.013659579705547485,1.468
-0.0315891485332569,1.469
-0.03925347778775497,1.47
-0.03796497285662095,1.471
-0.03094289327160452,1.472
-0.02156485884910507,1.473
-0.011734345155349752,1.474
-0.0016975486283245596,1.475
0.008812577114631182,1.476
0.019655234036007947,1.477
0.030179025538826048,1.478
0.039052067230355356,1.479
0.04372660645581796,1.48
0.04059489733784746,1.481
0.026591077008452077,1.482
0.0014601925911319701,1.483
-0.03081013224269235,1.484
-0.06247245884570971,1.485
-0.08463085189641997,1.486
-0.09081583556757582,1.487
-0.07936314377977233,1.488
-0.053573614432393994,1.489
-0.02052106064927314,1.49
0.010758796196165177,1.491
0.031824125466411016,1.492
0.03766868725416188,1.493
0.02868969558374211,1.494
0.010812685189988274,1.495
-0.0067341964903241324,1.496
-0.01547317817208746,1.497
-0.01142105761377165,1.498
0.003865727077517971,1.499
0.025133983936310014,1.5
0.046239028289098996,1.501
0.062239734317684814,1.502
0.07030736612078295,1.503
0.06959229500530248,1.504
0.06063769610671026,1.505
0.04504386809262103,1.506
0.025319797788056327,1.507
0.004349090954934433,1.508
-0.015484173356716903,1.509
-0.03289215115565372,1.51
-0.0475047254231978,1.511
-0.05887366426280325,1.512
-0.06552471854938649,1.513
-0.06540758154713824,1.514
-0.05762651302670712,1.515
-0.043487056578332746,1.516
-0.02573667839992537,1.517
-0.00712376410796649,1.518
0.010371016772505424,1.519
0.025546927693882646,1.52
0.037698135984103376,1.521
0.04626369152438775,1.522
0.05041570643755504,1.523
0.04880611498071983,1.524
0.040114716506006384,1.525
0.02445153026391887,1.526
0.004393684289000029,1.527
-0.015585478621871818,1.528
-0.031154337536504557,1.529
-0.04004433899829002,1.53
-0.04231796454091661,1.531
-0.03937747285929391,1.532
-0.03324905353083146,1.533
-0.02643932426046753,1.534
-0.021527067717854353,1.535
-0.02016609939581704,1.536
-0.022059316798110695,1.537
-0.024722452535441038,1.538
-0.024378629404538714,1.539
-0.017543903178221507,1.54
-0.0025454308396623887,1.541
0.01965065567356559,1.542
0.04563571066056189,1.543
0.07057385967476258,1.544
0.08943951903204085,1.545
0.09809925412432256,1.546
0.09421811678882301,1.547
0.07803166770846694,1.548
0.05276509122936018,1.549
0.024109628935880867,1.55
-0.0015064407850371004,1.551
-0.019094138411576853,1.552
-0.026612531205760376,1.553
-0.025395326699751006,1.554
-0.019592481614932183,1.555
-0.014668853667965985,1.556
-0.015376864421135415,1.557
-0.024049291749936082,1.558
-0.03976920374127488,1.559
-0.058781717826538404,1.56
-0.07615783380487097,1.561
-0.08764673804020222,1.562
-0.09060606921843731,1.563
-0.08420933105179429,1.564
-0.06946869487059043,1.565
-0.048893970840872276,1.566
-0.025746852175784676,1.567
-0.0033093013374459455,1.568
0.015766094432476164,1.569
0.030129437816877117,1.57
0.04012605485337934,1.571
0.047477537659274774,1.572
0.054270686338806017,1.573
0.0618745254688378,1.574
0.07046988471129129,1.575
0.07923040876078191,1.576
0.08663910219099163,1.577
0.09062441351007483,1.578
0.08868586981847676,1.579
0.07831770814007223,1.58
0.05787465016552175,1.581
0.02763648813694713,1.582
-0.009621165502387626,1.583
-0.04903055651177806,1.584
-0.08458121943283521,1.585
-0.11002206083737866,1.586
-0.12006375632289605,1.587
-0.11221602867225618,1.588
-0.08807502404309256,1.589
-0.05270556223231445,1.59
-0.012773201216744249,1.591
0.02504807623481699,1.592
0.055109706952107505,1.593
0.07366118660100772,1.594
0.0794373586816021,1.595
0.07356692730335689,1.596
0.058808952406873734,1.597
0.03859752884426524,1.598
0.016375799539419863,1.599
-0.004641138758690645,1.6
-0.021562740784867928,1.601
-0.03226953514916467,1.602
-0.036053572624056625,1.603
-0.03362814832642598,1.604
-0.026467024201486323,1.605
-0.01648078256914184,1.606
-0.006345971976169596,1.607
0.0005252606456201801,1.608
0.0010753836982428312,1.609
-0.00591010328882942,1.61
-0.018941160636521275,1.611
-0.03407916726933273,1.612
-0.046340773163132884,1.613
-0.0516595646264111,1.614
-0.048261812979245276,1.615
-0.036762312100491634,1.616
-0.019351911806842627,1.617
0.0010997543509714217,1.618
