VaMe,time
-0.00497285834797643,0.001
0.08797779083680754,0.002
0.1670881084286063,0.003
0.22145448827528774,0.004
0.2451624721264896,0.005
0.2380921573161775,0.006
0.20549225257075734,0.007
0.15635127865916107,0.008
0.10110795631743827,0.009
0.049350986785402874,0.01
0.008209602216328346,0.011
-0.01804680641004939,0.012
-0.027835875998005008,0.013
-0.022438696083347056,0.014
-0.0059638961691153,0.015
0.015601348660521439,0.016
0.03563061686638873,0.017
0.047939067907331746,0.018
0.047991593779128316,0.019
0.03419372818886883,0.02
0.008648433730801895,0.021
-0.02324984797487452,0.022
-0.054145671837578735,0.023
-0.07601346386971486,0.024
-0.08134133133027276,0.025
-0.06518361902839236,0.026
-0.02781044577950861,0.027
0.024070409392775834,0.028
0.07851327968065804,0.029
0.12101889576425862,0.03
0.13810128687291828,0.031
0.12160408767211846,0.032
0.0722904711149089,0.033
0.0004082932901887372,0.034
-0.07778800783676226,0.035
-0.1459035096139307,0.036
-0.19222162222786382,0.037
-0.2115945282079665,0.038
-0.2051527050653267,0.039
-0.1786376302427321,0.04
-0.13960971490066482,0.041
-0.09462832318413802,0.042
-0.047801354566839004,0.043
-0.0012423165220998883,0.044
0.04319349467832675,0.045
0.08232785050942436,0.046
0.11151386913684261,0.047
0.1262670511929304,0.048
0.12474751943316284,0.049
0.10938516469136683,0.05
0.08625751436000646,0.051
0.06222912973038769,0.052
0.04189596095501497,0.053
0.02687684811940323,0.054
0.017417025204886995,0.055
0.013715727740596395,0.056
0.015433748677437823,0.057
0.020465853982164935,0.058
0.024679133730904225,0.059
0.023331043845932105,0.06
0.013540795389346398,0.061
-0.0040601925398342465,0.062
-0.025853888606352786,0.063
-0.04749400202006244,0.064
-0.0662463044643869,0.065
-0.08110438142643032,0.066
-0.09020775689962596,0.067
-0.0891978929500754,0.068
-0.07380754364968367,0.069
-0.044126181404441314,0.07
-0.005535647904672798,0.071
0.034103591863100746,0.072
0.06760779931818142,0.073
0.09012076231547547,0.074
0.0996469685830672,0.075
0.09687850352901362,0.076
0.08432779669552604,0.077
0.06498489521397707,0.078
0.04121909246190629,0.079
0.014511606756916323,0.08
-0.014132612304137449,0.081
-0.0433443011867906,0.082
-0.07048253162182413,0.083
-0.09192323082922435,0.084
-0.10487655924197035,0.085
-0.1084070177415053,0.086
-0.10225215727449342,0.087
-0.08571649708980703,0.088
-0.05865283947082123,0.089
-0.023397662970449023,0.09
0.014021781445036833,0.091
0.04415787287337675,0.092
0.056546693008625984,0.093
0.04411385363467718,0.094
0.007929670223557254,0.095
-0.040379548145446253,0.096
-0.08125187577013167,0.097
-0.09491626301437814,0.098
-0.07008246296021695,0.099
-0.008555930242956597,0.1
0.07574381284812802,0.101
0.16161180479260467,0.102
0.22679181161122536,0.103
0.25381522625638975,0.104
0.23444708166936828,0.105
0.17200628960312075,0.106
0.08099089857433078,0.107
-0.016264520693362098,0.108
-0.09579138332239676,0.109
-0.13959400206333886,0.11
-0.14187428212403574,0.111
-0.11136038152861878,0.112
-0.06820857781830543,0.113
-0.03565557443145788,0.114
-0.02948196674335842,0.115
-0.050293901636992155,0.116
-0.08311501273416881,0.117
-0.10536911582616262,0.118
-0.09877336743706949,0.119
-0.0577989669368368,0.12
0.009076684590047648,0.121
0.08345696466445474,0.122
0.14298686932458712,0.123
0.16736543255766848,0.124
0.14391915237327554,0.125
0.07217964656018427,0.126
-0.034296251013745,0.127
-0.1508511696426308,0.128
-0.2486151538942572,0.129
-0.3019929453593937,0.13
-0.2948337424437681,0.131
-0.22511293869659005,0.132
-0.10631192933279275,0.133
0.03649289492163163,0.134
0.17404405687013821,0.135
0.2800132167260019,0.136
0.33604696679954965,0.137
0.33494270953600097,0.138
0.28191840403899004,0.139
0.19330470176617826,0.14
0.09226650391486244,0.141
0.0021173197889316035,0.142
-0.06065937707139432,0.143
-0.09069444020441157,0.144
-0.09400797227931262,0.145
-0.08492029337126084,0.146
-0.08011501873339093,0.147
-0.09078882347523172,0.148
-0.11632360413696331,0.149
-0.14387899379723593,0.15
-0.15502016854571438,0.151
-0.1358739666979051,0.152
-0.08494751098582305,0.153
-0.014026529703052472,0.154
0.05758087818600562,0.155
0.11098299547935186,0.156
0.13374306583567708,0.157
0.12289790361335075,0.158
0.08552537719011577,0.159
0.03669258130550365,0.16
-0.0059753386522624664,0.161
-0.029527163138398517,0.162
-0.03062289393033155,0.163
-0.01562732463910692,0.164
0.0030937733393252686,0.165
0.012575551178509723,0.166
0.00517615105328397,0.167
-0.016851116632595167,0.168
-0.041574077377949006,0.169
-0.0542446684886847,0.17
-0.047039742347013476,0.171
-0.023514080049680267,0.172
0.005975535670484245,0.173
0.03216238353107564,0.174
0.05074006643765159,0.175
0.06111727204021737,0.176
0.06348629053948598,0.177
0.0575632732112834,0.178
0.04348146174358906,0.179
0.022809732788484735,0.18
-0.001575736553574748,0.181
-0.026145380411624508,0.182
-0.04743655605594038,0.183
-0.06290234268073028,0.184
-0.07144284084243195,0.185
-0.0733431710470787,0.186
-0.06972530814266047,0.187
-0.061754222082901856,0.188
-0.050317055231252725,0.189
-0.03641513271473582,0.19
-0.021694114333754153,0.191
-0.008482725487872997,0.192
0.0012914690558889666,0.193
0.00789742229914523,0.194
0.014411430151452123,0.195
0.02507553902050889,0.196
0.04254074089115383,0.197
0.0657514498414981,0.198
0.08952886128000072,0.199
0.10637660567467935,0.2
0.10973956690580257,0.201
0.09658098154751696,0.202
0.06815647172757519,0.203
0.029592935136953567,0.204
-0.011145883870696573,0.205
-0.044936216705017254,0.206
-0.06390236095827556,0.207
-0.0642728408694971,0.208
-0.04852997617696872,0.209
-0.025333738911112944,0.21
-0.00657377188077098,0.211
-0.00207573189225245,0.212
-0.014226390938437396,0.213
-0.03641823561254401,0.214
-0.05718154768234313,0.215
-0.06683064261913103,0.216
-0.06160466694911105,0.217
-0.04376913633505979,0.218
-0.01951237893660732,0.219
0.003836353813814821,0.22
0.020696270724076687,0.221
0.02926169267203261,0.222
0.03145633035489513,0.223
0.030638284979366364,0.224
0.028833619856347085,0.225
0.02608851530860579,0.226
0.02212269316486784,0.227
0.017434982294580247,0.228
0.012269507128418613,0.229
0.005487322363991904,0.23
-0.0046025888302006395,0.231
-0.0184374114768379,0.232
-0.03434460451316816,0.233
-0.04892114835657835,0.234
-0.05824167097415763,0.235
-0.05959183383640586,0.236
-0.052621338376165214,0.237
-0.038965143483832676,0.238
-0.02078714661775122,0.239
0.0006992028478448015,0.24
0.025725622661586647,0.241
0.05465484834498901,0.242
0.08547349161485046,0.243
0.11279645986432976,0.244
0.13030948277468846,0.245
0.13478688273642347,0.246
0.12770433338893278,0.247
0.11271662209789572,0.248
0.09181419397231132,0.249
0.06445048434723727,0.25
0.029987648750211243,0.251
-0.010054463937359499,0.252
-0.052349004082722556,0.253
-0.09354758694269379,0.254
-0.13115721449053097,0.255
-0.16300650749218368,0.256
-0.18632533004745283,0.257
-0.197560199471693,0.258
-0.19331149816551974,0.259
-0.1715910202284507,0.26
-0.13304713171803262,0.261
-0.08236237944340102,0.262
-0.028292064649604196,0.263
0.019117354938896422,0.264
0.05264558046996449,0.265
0.07058899130971409,0.266
0.0763970636929326,0.267
0.07585809588461917,0.268
0.07437383959611445,0.269
0.0758620750998429,0.27
0.08235964382520473,0.271
0.0935697486047222,0.272
0.10706106174435227,0.273
0.11934947206178662,0.274
0.12709701640340645,0.275
0.1277153691683535,0.276
0.11891547550490757,0.277
0.09767178202368386,0.278
0.060527787055283874,0.279
0.006300515460569781,0.28
-0.06079187570140016,0.281
-0.13042255817925827,0.282
-0.1884590755804614,0.283
-0.2210671475685335,0.284
-0.21921222524965578,0.285
-0.18181758719623153,0.286
-0.11604201799215229,0.287
-0.034782870785477475,0.288
0.047127429706949935,0.289
0.11622185760881783,0.29
0.16206118614774245,0.291
0.1778382024978212,0.292
0.16140840420925123,0.293
0.11687009695733973,0.294
0.0549078764945795,0.295
-0.00960307279582895,0.296
-0.06183113123835187,0.297
-0.09087511360116875,0.298
-0.09251306341495984,0.299
-0.07054048450386628,0.3
-0.03513519415415833,0.301
0.001684092370592612,0.302
0.03032003016094054,0.303
0.04525319329358856,0.304
0.044641535133390316,0.305
0.02958520099784545,0.306
0.004212544576349269,0.307
-0.024251809851358858,0.308
-0.04751682703263389,0.309
-0.060088454489106005,0.31
-0.06167030908949257,0.311
-0.05615088035450059,0.312
-0.0489074695404742,0.313
-0.04448178973630908,0.314
-0.044702352310203204,0.315
-0.04750402095284216,0.316
-0.04771898258909911,0.317
-0.03996775518734556,0.318
-0.02189024887205691,0.319
0.004435553227535572,0.32
0.033867572497936496,0.321
0.06122606475001112,0.322
0.08341387465880185,0.323
0.09927334444139309,0.324
0.10823852945613381,0.325
0.10951466851765643,0.326
0.10226573988938911,0.327
0.08616531646316893,0.328
0.061987841288840176,0.329
0.03237001862927564,0.33
0.0019291484766351254,0.331
-0.02453440258196707,0.332
-0.04479425185506232,0.333
-0.0600064015061196,0.334
-0.07275876815183682,0.335
-0.08458907622328207,0.336
-0.0948315112954071,0.337
-0.10071401912607424,0.338
-0.09825797034706749,0.339
-0.08404866754552592,0.34
-0.05736765516096993,0.341
-0.021105641505847053,0.342
0.019583478031049404,0.343
0.059776494249988044,0.344
0.09601807052170439,0.345
0.12534663579393637,0.346
0.14367345375216703,0.347
0.14546325620034584,0.348
0.1251271810997097,0.349
0.07962275872816373,0.35
0.01155316202968454,0.351
-0.06856301511986064,0.352
-0.14288797821084778,0.353
-0.19145704067154087,0.354
-0.2005827421450035,0.355
-0.16882326558280078,0.356
-0.10588028466890309,0.357
-0.026506957992662523,0.358
0.054544176917598955,0.359
0.12392784150795753,0.36
0.17004326836718428,0.361
0.184970566587602,0.362
0.16670069558298747,0.363
0.11883463464797242,0.364
0.048624963694193765,0.365
-0.03314400195929028,0.366
-0.11123504110088825,0.367
-0.1688132197194396,0.368
-0.1942569087903811,0.369
-0.18604007445284335,0.37
-0.15183055517922953,0.371
-0.10374011752263805,0.372
-0.05345176972142657,0.373
-0.00918819704208928,0.374
0.02522918836345483,0.375
0.0497869099264699,0.376
0.06689656139436748,0.377
0.0797145936778525,0.378
0.09056357874573097,0.379
0.09989821917584085,0.38
0.10596396480475505,0.381
0.10524186065095241,0.382
0.09397073862034301,0.383
0.07039713260087613,0.384
0.03659304654910978,0.385
-0.0011113496832934238,0.386
-0.033518769942847956,0.387
-0.05172117300378874,0.388
-0.05085328653132907,0.389
-0.03242261549524806,0.39
-0.003998486012696029,0.391
0.023280174895193042,0.392
0.03826599260761126,0.393
0.03359364132953444,0.394
0.008763811108392111,0.395
-0.02866699110952966,0.396
-0.06484973537083674,0.397
-0.08456641475510276,0.398
-0.07739541064151574,0.399
-0.04183662817931025,0.4
0.01422853899095384,0.401
0.07595895679226668,0.402
0.12551356367828026,0.403
0.1466718004840616,0.404
0.12946920841232587,0.405
0.07403573594867327,0.406
-0.007640652707519021,0.407
-0.09390689016711683,0.408
-0.16074501424885596,0.409
-0.1914833258525268,0.41
-0.18267059516659562,0.411
-0.14263199396662415,0.412
-0.08559300486496631,0.413
-0.026084445496912606,0.414
0.02445180981048865,0.415
0.05910052524475818,0.416
0.07552478045395307,0.417
0.07526600174947728,0.418
0.06282278490900162,0.419
0.04427142757531544,0.42
0.02499764938868871,0.421
0.007322928816117142,0.422
-0.009951942606457908,0.423
-0.028925994384358354,0.424
-0.04867454902056964,0.425
-0.06349017576187864,0.426
-0.0652910484515256,0.427
-0.04877471273123674,0.428
-0.015162057052475655,0.429
0.028431630996237453,0.43
0.07275035736835443,0.431
0.10972334204674734,0.432
0.13340946868095285,0.433
0.1394235830912119,0.434
0.12477380587240489,0.435
0.08894895924152672,0.436
0.03531714926169812,0.437
-0.028642459402496843,0.438
-0.09274470644158823,0.439
-0.14639066980662888,0.44
-0.1806938950984315,0.441
-0.19006749279270166,0.442
-0.17318146625167427,0.443
-0.13279954518161083,0.444
-0.0744863676879366,0.445
-0.005062697081364865,0.446
0.068480278954049,0.447
0.13943122156032772,0.448
0.20123476211067778,0.449
0.247024346718845,0.45
0.26922275190446976,0.451
0.2600354446319893,0.452
0.21372038911904057,0.453
0.1304606631715621,0.454
0.019983746183608476,0.455
-0.09830723329055466,0.456
-0.20102616500263057,0.457
-0.2698320023089808,0.458
-0.2969902741238708,0.459
-0.28407848826023724,0.46
-0.23774230740569,0.461
-0.16698126454598652,0.462
-0.08206904956223889,0.463
0.006007670012137009,0.464
0.08596439995277581,0.465
0.14722672640430595,0.466
0.18181756656583545,0.467
0.186114416953109,0.468
0.16166851657098208,0.469
0.11508328066870946,0.47
0.05676905342076935,0.471
-0.0016573551292190626,0.472
-0.05054817373582889,0.473
-0.0841690086166343,0.474
-0.10037959438159531,0.475
-0.0993525158556149,0.476
-0.0835128882951219,0.477
-0.058502448235171076,0.478
-0.03249889400349135,0.479
-0.012906413157952601,0.48
-0.002890785199575212,0.481
-0.0005416248904217244,0.482
-0.0011399751782360033,0.483
-0.0006495044775380782,0.484
0.002395452508470808,0.485
0.007755781281180235,0.486
0.015582161057349752,0.487
0.027347740139084448,0.488
0.044450256969818316,0.489
0.06567632738876229,0.49
0.08613838371321522,0.491
0.09878460620747316,0.492
0.09706830763645105,0.493
0.07709908402015186,0.494
0.03900460112970664,0.495
-0.012161563696529416,0.496
-0.06631598929854876,0.497
-0.11022286585695253,0.498
-0.13166065490801035,0.499
-0.12368069507068793,0.5
-0.08630222108139879,0.501
-0.02595159558005201,0.502
0.0453643286957345,0.503
0.11143350484538715,0.504
0.1554329973427017,0.505
0.16496282643051957,0.506
0.13605858899159726,0.507
0.07487028299741302,0.508
-0.003538861704369416,0.509
-0.07932207282346135,0.51
-0.1337814327434045,0.511
-0.15549775920120898,0.512
-0.14429450545450975,0.513
-0.11037931468198944,0.514
-0.06876124428848791,0.515
-0.03209907567647452,0.516
-0.005848508536413558,0.517
0.011641279732182687,0.518
0.025031971509062327,0.519
0.037963672284416286,0.52
0.05169323653207427,0.521
0.06549666827402457,0.522
0.07692884001969888,0.523
0.08151745737676233,0.524
0.07328598326594242,0.525
0.04769361013303675,0.526
0.005927389381405947,0.527
-0.043122644857053256,0.528
-0.08564911430434724,0.529
-0.10925317651214114,0.53
-0.10884379092533499,0.531
-0.08817992431565107,0.532
-0.05654519933720616,0.533
-0.02391590989371506,0.534
0.0022288412569169917,0.535
0.01811867442574737,0.536
0.023488723474831108,0.537
0.020442301915877523,0.538
0.01234382952157058,0.539
0.0032230132314723684,0.54
-0.0027074553694764326,0.541
-0.0018577279213981743,0.542
0.007555006054928327,0.543
0.02454305828531772,0.544
0.04547914276883307,0.545
0.06546373009180065,0.546
0.08014862421054988,0.547
0.08693066961054469,0.548
0.08496943175278139,0.549
0.07452833471452848,0.55
0.05663162173591789,0.551
0.03340410039208414,0.552
0.008377657590153898,0.553
-0.014133341520425093,0.554
-0.030396009126424855,0.555
-0.038347561144355065,0.556
-0.037976281201035536,0.557
-0.031362892645030664,0.558
-0.022527702865630495,0.559
-0.016750587184693598,0.56
-0.019076957448462682,0.561
-0.03229060586321299,0.562
-0.05541077919157624,0.563
-0.08354678567117316,0.564
-0.10891569398079885,0.565
-0.12274645262140792,0.566
-0.11807660187859612,0.567
-0.09253778592523726,0.568
-0.04942647508816361,0.569
0.003507310793212281,0.57
0.056531266316166916,0.571
0.10053559685648096,0.572
0.12912659974480795,0.573
0.13980641088522175,0.574
0.13409322078426536,0.575
0.1163683596312968,0.576
0.0914109106097147,0.577
0.06196838782636026,0.578
0.028562565801277584,0.579
-0.00821381647349169,0.58
-0.04539750889718838,0.581
-0.07784482572877621,0.582
-0.10086573109625019,0.583
-0.11281083623117293,0.584
-0.11511758789432236,0.585
-0.1099769257822919,0.586
-0.09806982246709933,0.587
-0.07846236756246111,0.588
-0.050646744238963294,0.589
-0.016725908102910424,0.59
0.018287737464766973,0.591
0.04818217363702392,0.592
0.06792529508408897,0.593
0.0754444951001656,0.594
0.07225299002976401,0.595
0.06279584828673415,0.596
0.05256064425850353,0.597
0.045730807069419316,0.598
0.04389412469594638,0.599
0.04636357165697074,0.6
0.05106099210874714,0.601
0.0551820430686312,0.602
0.055891699655530896,0.603
0.05103052121423654,0.604
0.0393928740359504,0.605
0.020614228444971208,0.606
-0.0046657674260076965,0.607
-0.033897308152253953,0.608
-0.06188700278736141,0.609
-0.08188250200696552,0.61
-0.08854653399905361,0.611
-0.08071889879427166,0.612
-0.06164485014638719,0.613
-0.036634304686662886,0.614
-0.010545038777534732,0.615
0.013018845242907775,0.616
0.031181801251878846,0.617
0.041201499316095326,0.618
0.040697269973070715,0.619
0.02871658354435818,0.62
0.006363411346949451,0.621
-0.023743178805427714,0.622
-0.05791142381848866,0.623
-0.09078532210426707,0.624
-0.11502850197554135,0.625
-0.12300474841839183,0.626
-0.11003262445991538,0.627
-0.07666670117398716,0.628
-0.028193051714615724,0.629
0.027649594865985856,0.63
0.08261190680454845,0.631
0.1287546608644134,0.632
0.15874735651832117,0.633
0.1665207868536083,0.634
0.1485868599380492,0.635
0.105585902961724,0.636
0.043323383692579334,0.637
-0.027137254523085876,0.638
-0.09071965439296,0.639
-0.13180173266083814,0.64
-0.1398021334371776,0.641
-0.11392937699048555,0.642
-0.06355070258946381,0.643
-0.004097643974502674,0.644
0.048573724154901035,0.645
0.08275670571734675,0.646
0.0933243392574066,0.647
0.08198139033983556,0.648
0.05590824666480716,0.649
0.025413879350112738,0.65
0.0008703157857543269,0.651
-0.010521168390941756,0.652
-0.00679443972404083,0.653
0.008955576830832864,0.654
0.030382784591852587,0.655
0.04973597264841478,0.656
0.05920867725891947,0.657
0.05237055554191248,0.658
0.025832253831286327,0.659
-0.019213680113886637,0.66
-0.07583429737656486,0.661
-0.13137901035232036,0.662
-0.1703730299195495,0.663
-0.18045221239720305,0.664
-0.1577672452148334,0.665
-0.1078954021255333,0.666
-0.042689008134732316,0.667
0.02392426382524387,0.668
0.07955826119148793,0.669
0.11581548003976426,0.67
0.12919091240408037,0.671
0.12070205511063499,0.672
0.09480756735989919,0.673
0.058222047847202654,0.674
0.018932269551837903,0.675
-0.015072927985851881,0.676
-0.03783035234733111,0.677
-0.04743227203128528,0.678
-0.046479502533146595,0.679
-0.04028260654876503,0.68
-0.033895604348747235,0.681
-0.029910731281544745,0.682
-0.028105976713920882,0.683
-0.02642076144855337,0.684
-0.022130481489304625,0.685
-0.012807631153408378,0.686
0.002793819949921415,0.687
0.024085526895261333,0.688
0.04850334554153834,0.689
0.07177551179102161,0.69
0.08847136505318912,0.691
0.09304132754850439,0.692
0.0814186805314339,0.693
0.05270403929518562,0.694
0.010309914654517268,0.695
-0.03800740087719572,0.696
-0.0817449621869365,0.697
-0.11058617323417526,0.698
-0.11744644989779628,0.699
-0.10052428830835476,0.7
-0.06390713228386938,0.701
-0.016575533758832382,0.702
0.030194377758205947,0.703
0.06626441110622121,0.704
0.08542274293861186,0.705
0.08647667412718095,0.706
0.07259966965919687,0.707
0.04959963286241763,0.708
0.023976328982527235,0.709
0.001212239896242506,0.71
-0.0157502679896879,0.711
-0.02740929003243502,0.712
-0.03683670283476147,0.713
-0.046939847031572064,0.714
-0.057570562674875585,0.715
-0.06455764135533693,0.716
-0.06164280182921785,0.717
-0.04440486300907088,0.718
-0.013742168628774374,0.719
0.023214643288593982,0.72
0.05540176202111381,0.721
0.07236511824146234,0.722
0.06876387186015669,0.723
0.04656249953649062,0.724
0.014029224247686987,0.725
-0.017878016337361254,0.726
-0.04019022022476846,0.727
-0.04949656131307076,0.728
-0.04838251432513851,0.729
-0.04238752564652445,0.73
-0.035604938155671007,0.731
-0.028146201920960585,0.732
-0.017045751640222862,0.733
0.0007278374316196779,0.734
0.025522692249498918,0.735
0.05377444612641351,0.736
0.07856454501685996,0.737
0.09173444514177558,0.738
0.08676218271782937,0.739
0.06141050037237583,0.74
0.019372099418458823,0.741
-0.02974878069879394,0.742
-0.0728890443437456,0.743
-0.09831312095350993,0.744
-0.10032122701380328,0.745
-0.08071580069500342,0.746
-0.04650841853521075,0.747
-0.006387171321092954,0.748
0.03144466115182272,0.749
0.0598566210923498,0.75
0.07327693680687065,0.751
0.06885844538196587,0.752
0.04773446924268669,0.753
0.015334090572967267,0.754
-0.019788585136464094,0.755
-0.048291596357784065,0.756
-0.06281757034956943,0.757
-0.06033971477357153,0.758
-0.042776998028375174,0.759
-0.015494299491591125,0.76
0.014623211354487296,0.761
0.04016572219211177,0.762
0.05397102700668074,0.763
0.05067967379445599,0.764
0.028882491066997022,0.765
-0.00720344881118924,0.766
-0.04766003251829134,0.767
-0.0792227260555897,0.768
-0.09013724750389936,0.769
-0.07532951947794798,0.77
-0.03821883380530634,0.771
0.011585060218535281,0.772
0.061873255636988075,0.773
0.10066211246207384,0.774
0.11840739798381034,0.775
0.11004333930311269,0.776
0.07683141462150894,0.777
0.02732330723286989,0.778
-0.02416776230875031,0.779
-0.06237515194251434,0.78
-0.07707628837216045,0.781
-0.06658462966189384,0.782
-0.03703664196469178,0.783
0.0009803202868799432,0.784
0.035984945022891075,0.785
0.05821816582358757,0.786
0.06143719709550937,0.787
0.04419680693852608,0.788
0.010467417441473927,0.789
-0.03107921849300689,0.79
-0.06951067293854893,0.791
-0.09499633824257703,0.792
-0.10135303287061256,0.793
-0.08674857277202193,0.794
-0.0534019449769641,0.795
-0.007509127136751109,0.796
0.04101749359958686,0.797
0.0802923535282428,0.798
0.09973324466793541,0.799
0.09344128234762746,0.8
0.06228112269696849,0.801
0.013901386402459385,0.802
-0.039650078653024515,0.803
-0.08592520170741114,0.804
-0.11562812474849989,0.805
-0.12408779678489862,0.806
-0.11070810815316562,0.807
-0.07779659714218404,0.808
-0.030108138848848377,0.809
0.025160358214342853,0.81
0.07913540360803924,0.811
0.12296092316601227,0.812
0.14965155175117192,0.813
0.15549359170528831,0.814
0.14061364186469175,0.815
0.10842648609689627,0.816
0.06431067418391348,0.817
0.014731807203747263,0.818
-0.03292812332817779,0.819
-0.07134609133537956,0.82
-0.09544456598844527,0.821
-0.10390694736753196,0.822
-0.09862040240907094,0.823
-0.08283420200102094,0.824
-0.05990853189929943,0.825
-0.0335384689861799,0.826
-0.008299143287967135,0.827
0.011108978649754265,0.828
0.021698059024963846,0.829
0.023356513548972373,0.83
0.01833297720331393,0.831
0.009620858609511104,0.832
-0.00054816704978157,0.833
-0.011052851722869263,0.834
-0.020997431335175867,0.835
-0.02875787254464545,0.836
-0.03201348886225283,0.837
-0.028619451665611105,0.838
-0.017502839518680934,0.839
0.0008230457426342978,0.84
0.023948541478858963,0.841
0.047564078985528606,0.842
0.0662489293218932,0.843
0.07499978009945389,0.844
0.07085989520450987,0.845
0.05411664880108072,0.846
0.0286649306519568,0.847
0.0010703576270940027,0.848
-0.021703270942407694,0.849
-0.03495739891715501,0.85
-0.03787421159792177,0.851
-0.033288888288264255,0.852
-0.026048342533894063,0.853
-0.021089869255365195,0.854
-0.021882058873006607,0.855
-0.029081407908377505,0.856
-0.039494953818766505,0.857
-0.04621484081459272,0.858
-0.04077493499475215,0.859
-0.017038729618405017,0.86
0.02508415271747678,0.861
0.07838632202029919,0.862
0.13007197523054784,0.863
0.16523680603574048,0.864
0.17101641898780973,0.865
0.14049449122255084,0.866
0.07527679198069745,0.867
-0.013902505032959993,0.868
-0.10867456620821603,0.869
-0.18708398218372785,0.87
-0.2303786395521315,0.871
-0.23018608635164872,0.872
-0.19152014843487555,0.873
-0.12937028867026193,0.874
-0.06155385763696259,0.875
-0.002373300298853956,0.876
0.040449558699022475,0.877
0.06553179792982224,0.878
0.07562874690757203,0.879
0.07543721526328757,0.88
0.07025035941709055,0.881
0.06468702213015332,0.882
0.06133544070890875,0.883
0.06029480155202728,0.884
0.05980061419286741,0.885
0.057255029336476436,0.886
0.0503927474162751,0.887
0.03848275422392327,0.888
0.02290787799352197,0.889
0.00637013746368909,0.89
-0.008976474733741498,0.891
-0.022872762845457424,0.892
-0.03645224979097599,0.893
-0.05033207952032291,0.894
-0.06296754149390989,0.895
-0.07067384369188989,0.896
-0.06935977945468212,0.897
-0.056739527023128115,0.898
-0.03384924580291465,0.899
-0.005253411475590325,0.9
0.022384846946795166,0.901
0.04274656330041991,0.902
0.0519021283991307,0.903
0.049206674765773,0.904
0.03726019768205786,0.905
0.021306853741112852,0.906
0.00800301334208698,0.907
0.003224065158227908,0.908
0.009405116892382144,0.909
0.02398381234133955,0.91
0.040085450626932445,0.911
0.049225050319478436,0.912
0.04482625024709794,0.913
0.02486373753900553,0.914
-0.007608510073551131,0.915
-0.04575106537056119,0.916
-0.08081947791671608,0.917
-0.10413175336650811,0.918
-0.10931895392249066,0.919
-0.09439840445854686,0.92
-0.06272010695314045,0.921
-0.022195969974930868,0.922
0.01720389147921189,0.923
0.04681439032805211,0.924
0.06198233453787334,0.925
0.06299549714603249,0.926
0.05399291336884308,0.927
0.04043342648463023,0.928
0.026520999145075535,0.929
0.014058550387068732,0.93
0.003075944639453826,0.931
-0.006575859043775292,0.932
-0.01390003977978028,0.933
-0.016630039078852268,0.934
-0.012370488128153188,0.935
-0.0004102741532257853,0.936
0.016829328936377112,0.937
0.0339050192216454,0.938
0.04407092212300413,0.939
0.04130574804297641,0.94
0.021821463378633846,0.941
-0.014223670209940685,0.942
-0.06029589442869477,0.943
-0.102542087003876,0.944
-0.12369503626652734,0.945
-0.11139446248180275,0.946
-0.0652435966970267,0.947
0.0028253707602259705,0.948
0.07409062150938317,0.949
0.12970336483264538,0.95
0.15560714514918567,0.951
0.14545457653027424,0.952
0.10181644999911771,0.953
0.03569573539709005,0.954
-0.03623414903696536,0.955
-0.09683272967574759,0.956
-0.13394003225291243,0.957
-0.14267938353649953,0.958
-0.12428523497012942,0.959
-0.08437776696464447,0.96
-0.03216067036527162,0.961
0.020797976596032212,0.962
0.06315109772418043,0.963
0.0867265603502383,0.964
0.08850923520583735,0.965
0.07117859956706947,0.966
0.042168537254396836,0.967
0.011501018834009643,0.968
-0.01103621672411369,0.969
-0.018939789081715237,0.97
-0.011521655624672023,0.971
0.005734971331955423,0.972
0.023856805602280925,0.973
0.03437276503009371,0.974
0.032062957150627194,0.975
0.01575383451444836,0.976
-0.011939464645381556,0.977
-0.04517721170459005,0.978
-0.07599067051906196,0.979
-0.09632490037894878,0.98
-0.10057588812498115,0.981
-0.08747332114183728,0.982
-0.06035964321462483,0.983
-0.025738585510487636,0.984
0.009175253641874508,0.985
0.03875771652983546,0.986
0.06027483689429708,0.987
0.07391871221889601,0.988
0.08161231299745646,0.989
0.08517725959014993,0.99
0.08508130925756704,0.991
0.08037688376022367,0.992
0.06935439207812057,0.993
0.050433074353789714,0.994
0.02330099007101527,0.995
-0.010013253273638296,0.996
-0.044957164001764416,0.997
-0.07535777753993109,0.998
-0.09478821135456532,0.999
-0.098198963537863,1.0
-0.08401337726632546,1.001
-0.0556535285434298,1.002
-0.020902219252287996,1.003
0.010646164450559353,1.004
0.030806368914017737,1.005
0.036011294943884116,1.006
0.029099536944914864,1.007
0.017833454415221054,1.008
0.01063153759726995,1.009
0.012545998860190286,1.01
0.023786555830058766,1.011
0.04038717853647565,1.012
0.055639330310020566,1.013
0.06192492193983852,1.014
0.053131633590304976,1.015
0.027092744023354185,1.016
-0.013067050897341009,1.017
-0.05936810781888475,1.018
-0.10117283115150458,1.019
-0.12856793059795205,1.02
-0.135721536630525,1.021
-0.12246108893633116,1.022
-0.09329613544337322,1.023
-0.05515828254946037,1.024
-0.01541863150092011,1.025
0.019498256147827207,1.026
0.04518033495051262,1.027
0.0600077703801793,1.028
0.06528719428469133,1.029
0.06443442832795683,1.03
0.06142887128109028,1.031
0.05923004533455646,1.032
0.05887964560825129,1.033
0.05954699559580024,1.034
0.05928356536963211,1.035
0.056039986478359505,1.036
0.04837722766931833,1.037
0.03557454632563097,1.038
0.017589434163256753,1.039
-0.004592458051272112,1.04
-0.028546055159255356,1.041
-0.05053743260152109,1.042
-0.06625704624404315,1.043
-0.07199831820333222,1.044
-0.06584390624268079,1.045
-0.04790358625504306,1.046
-0.019549420920264893,1.047
0.016678353706537356,1.048
0.055752054885139284,1.049
0.0895623918307798,1.05
0.10894419800436692,1.051
0.10702178812591266,1.052
0.08161450531153375,1.053
0.03626519422287062,1.054
-0.01993178401335953,1.055
-0.07462953121688792,1.056
-0.11670043731030223,1.057
-0.1400142677113582,1.058
-0.14373021040533637,1.059
-0.13016308122805081,1.06
-0.1032651116149947,1.061
-0.06839259273254654,1.062
-0.031795042346686946,1.063
0.0008347166501780351,1.064
0.025981234256498505,1.065
0.0430281789068026,1.066
0.05331048173842348,1.067
0.05800530972502192,1.068
0.056859188948548724,1.069
0.04917844656634342,1.07
0.03601860705607139,1.071
0.021385326007227326,1.072
0.011489924850840768,1.073
0.012180442493834836,1.074
0.025343117486772315,1.075
0.04654379528599451,1.076
0.06624375398913744,1.077
0.07394737920167041,1.078
0.06258576311891395,1.079
0.0315644390656061,1.08
-0.012245411897003186,1.081
-0.05654109475281863,1.082
-0.08844930561360637,1.083
-0.09972684163691665,1.084
-0.08925802930381152,1.085
-0.062074426972803375,1.086
-0.0265629195584475,1.087
0.008411834388438679,1.088
0.03590968411306191,1.089
0.05251505642955072,1.09
0.05844870362017138,1.091
0.056034451372759156,1.092
0.04756042334959308,1.093
0.03411151303702779,1.094
0.01616478255432871,1.095
-0.004969729426546108,1.096
-0.026633026762623285,1.097
-0.045693003941810334,1.098
-0.059624952591313604,1.099
-0.06679504848112382,1.1
-0.06621761379467778,1.101
-0.057596372847397166,1.102
-0.04180359477710199,1.103
-0.021077051265720972,1.104
0.0016744228413001182,1.105
0.023969887096479646,1.106
0.044129400090398084,1.107
0.06061660527648483,1.108
0.07128352801167362,1.109
0.0735894193361346,1.11
0.06593193946849601,1.111
0.04912776364229796,1.112
0.026530270242289135,1.113
0.002158591723296326,1.114
-0.021525117041154278,1.115
-0.04371366716467252,1.116
-0.06322176826558287,1.117
-0.07691677898066257,1.118
-0.08036229846994383,1.119
-0.06992678953734541,1.12
-0.04484126917299787,1.121
-0.00835294982339652,1.122
0.03252379514047325,1.123
0.06884270043842529,1.124
0.09236118592857584,1.125
0.09766650780566939,1.126
0.0831482686810649,1.127
0.05101541321266602,1.128
0.006885374206034931,1.129
-0.04081950662196836,1.13
-0.08205720049829827,1.131
-0.10726847829730642,1.132
-0.11010967839018161,1.133
-0.08985753118888876,1.134
-0.05188733410784815,1.135
-0.005556938293386785,1.136
0.03903640877678755,1.137
0.07358957010150104,1.138
0.09277363205681446,1.139
0.09438028107261735,1.14
0.0790815388744045,1.141
0.05015288223514794,1.142
0.013239989795222496,1.143
-0.0240199977114605,1.144
-0.05320550958781584,1.145
-0.06753016361575126,1.146
-0.0646082087470389,1.147
-0.047806950262336424,1.148
-0.02496167283183855,1.149
-0.0050375033521832795,1.15
0.005272814701314436,1.151
0.003522830405636455,1.152
-0.00827716605473295,1.153
-0.025018430023237927,1.154
-0.040564443027035386,1.155
-0.04942562050434751,1.156
-0.0477666094454035,1.157
-0.034001676143509074,1.158
-0.00897086646571094,1.159
0.024400931738174654,1.16
0.06172910768468499,1.161
0.09769429835235181,1.162
0.12642281108264647,1.163
0.142043438888165,1.164
0.13969996812394134,1.165
0.11699139671082683,1.166
0.07539247528010735,1.167
0.020812118992073386,1.168
-0.03739156723270002,1.169
-0.08881465244361911,1.17
-0.12493468035704189,1.171
-0.14144384038655133,1.172
-0.13915536707235113,1.173
-0.1229479557862869,1.174
-0.09878805252559687,1.175
-0.07057152497712138,1.176
-0.03954153128565637,1.177
-0.006579106413577073,1.178
0.025667663692411184,1.179
0.05304850096510244,1.18
0.07159721381338623,1.181
0.07896687548464446,1.182
0.07512765341202007,1.183
0.06220491697270708,1.184
0.04345045702959296,1.185
0.022001995219089146,1.186
0.0001804186976655575,1.187
-0.020425697751035837,1.188
-0.03816158416402815,1.189
-0.050604635742209594,1.19
-0.05519131060027037,1.191
-0.05089821054128127,1.192
-0.03917806216212218,1.193
-0.023098333684878184,1.194
-0.005316449994475322,1.195
0.013508537468875943,1.196
0.03444100775058689,1.197
0.058170123584832166,1.198
0.08271206662332786,1.199
0.10255978693959034,1.2
0.10987490100197225,1.201
0.09759730132122611,1.202
0.06346879501629757,1.203
0.012702992552975838,1.204
-0.04299200759770671,1.205
-0.09001157357241471,1.206
-0.11796965801999125,1.207
-0.1224575148433295,1.208
-0.10562110602004676,1.209
-0.07526583231070605,1.21
-0.04205543385875162,1.211
-0.015414255625583224,1.212
-0.00014952244310161694,1.213
0.004616324409789736,1.214
0.0038522983052311933,1.215
0.0032655280275679173,1.216
0.006284747749467655,1.217
0.013332582982874356,1.218
0.02307153457086753,1.219
0.03366206646732939,1.22
0.04328995145764869,1.221
0.05064049600003357,1.222
0.05520528574465411,1.223
0.05663955151686458,1.224
0.053714310670018105,1.225
0.04434156595611914,1.226
0.02694865182145168,1.227
0.0020500794420169064,1.228
-0.027206452321685348,1.229
-0.05588024213657493,1.23
-0.0785247785669527,1.231
-0.08976995196170152,1.232
-0.08498658285355387,1.233
-0.06254120020549024,1.234
-0.026309236800988702,1.235
0.01468707125531842,1.236
0.04984739967871138,1.237
0.07093703881658978,1.238
0.07423811622701766,1.239
0.060776595455241514,1.24
0.0351002721746247,1.241
0.0033653850759387885,1.242
-0.028100578863016486,1.243
-0.0533340542387683,1.244
-0.06724119874311954,1.245
-0.06669593026092129,1.246
-0.05159385454688891,1.247
-0.025264131731300144,1.248
0.005795691498563324,1.249
0.033255554388219956,1.25
0.04952923474795487,1.251
0.0504900769331003,1.252
0.03692741001440249,1.253
0.014360991841275312,1.254
-0.00865764974435714,1.255
-0.023706666808932908,1.256
-0.025983444586569336,1.257
-0.015855870194801842,1.258
0.0023452928826557225,1.259
0.02282203596529546,1.26
0.04043742149098347,1.261
0.05183185180758994,1.262
0.055529211378836645,1.263
0.0513520060327893,1.264
0.03967032562277069,1.265
0.021087861711575076,1.266
-0.0031840306231744487,1.267
-0.030676366786258714,1.268
-0.057588912084910474,1.269
-0.07977248369061571,1.27
-0.09392901530004441,1.271
-0.09787082542506065,1.272
-0.09029292213795766,1.273
-0.07112230668157107,1.274
-0.04212495246495907,1.275
-0.0069770368732962615,1.276
0.029191569500290247,1.277
0.060673986960137205,1.278
0.0824639280651499,1.279
0.091433387668904,1.28
0.08699292891033857,1.281
0.07120936622917602,1.282
0.048157211330979804,1.283
0.022524894327712784,1.284
-0.0016441289436552515,1.285
-0.021280139447423067,1.286
-0.034027882921241245,1.287
-0.038357495074967295,1.288
-0.03422378192590417,1.289
-0.023429436317558033,1.29
-0.009178509176447136,1.291
0.004602363753915455,1.292
0.013726759813201933,1.293
0.014730119945742947,1.294
0.00669719175412461,1.295
-0.007612562802857197,1.296
-0.022836454815800777,1.297
-0.03364969303290596,1.298
-0.03704831751959515,1.299
-0.033003728706393676,1.3
-0.023738760886654255,1.301
-0.012570481710161308,1.302
-0.0027532139577130083,1.303
0.003701281412092277,1.304
0.006830984523431159,1.305
0.008487025611360026,1.306
0.011037501891742314,1.307
0.01573877754285627,1.308
0.02184781012061079,1.309
0.027277751230807293,1.31
0.030301851742465646,1.311
0.030657124218974402,1.312
0.028940579153441684,1.313
0.025044219399661574,1.314
0.017585748739921345,1.315
0.005338933300802683,1.316
-0.010541981513577435,1.317
-0.025860107768802747,1.318
-0.035367561597252004,1.319
-0.035773341318906283,1.32
-0.027120638821398712,1.321
-0.011959515207845703,1.322
0.006027063205368154,1.323
0.022638471742039736,1.324
0.03335796118667941,1.325
0.034014021129657776,1.326
0.022230358908218825,1.327
-0.0007086839318268292,1.328
-0.028765692530020308,1.329
-0.05255603268682056,1.33
-0.06373038023633713,1.331
-0.05966973927169761,1.332
-0.04468000338413666,1.333
-0.027003940628378506,1.334
-0.014148995509620206,1.335
-0.009114257564692595,1.336
-0.009126929515337721,1.337
-0.007603076065582815,1.338
0.0016173906715858354,1.339
0.02049680596462878,1.34
0.04581031179431202,1.341
0.07069255903927951,1.342
0.0871991214367779,1.343
0.08902820891584476,1.344
0.07378900247779749,1.345
0.043931401601178824,1.346
0.0058442911242861315,1.347
-0.03232195553637164,1.348
-0.0629226860763846,1.349
-0.08050298110906785,1.35
-0.08302198289622378,1.351
-0.0724958814236763,1.352
-0.0542046952476785,1.353
-0.03434961559881969,1.354
-0.017566080048346335,1.355
-0.0055790581628944675,1.356
0.0027639196455149784,1.357
0.01022740334014343,1.358
0.01920620720785143,1.359
0.030139918609872262,1.36
0.04120372081553964,1.361
0.0492051356209585,1.362
0.05108670894789227,1.363
0.045445283058864624,1.364
0.033548963539054774,1.365
0.01936660605672158,1.366
0.008100689638966456,1.367
0.003341466734623012,1.368
0.0046016082351077806,1.369
0.00738802416124036,1.37
0.005851179061618936,1.371
-0.003708940462862376,1.372
-0.020214891087445806,1.373
-0.03770120183173018,1.374
-0.04828072852972136,1.375
-0.04618313252001634,1.376
-0.03026738334293703,1.377
-0.004361428209851911,1.378
0.024050320057254052,1.379
0.04618801788733419,1.38
0.05451405276402429,1.381
0.04487425578949965,1.382
0.01818573800949371,1.383
-0.01887907882473668,1.384
-0.05539540787140246,1.385
-0.08025677251477747,1.386
-0.08682181208582468,1.387
-0.07491346577944148,1.388
-0.04934818466887858,1.389
-0.017111368084247583,1.39
0.014896406092094678,1.391
0.041189357849189354,1.392
0.05830904570711739,1.393
0.06480137601596239,1.394
0.060769393274614315,1.395
0.0475777025568499,1.396
0.0280438465967953,1.397
0.0065577581439463985,1.398
-0.01179619964712811,1.399
-0.02301852526192999,1.4
-0.02549009058857238,1.401
-0.01986507761955078,1.402
-0.008345869935220396,1.403
0.0056351199302707555,1.404
0.017822192503117472,1.405
0.02438897791052859,1.406
0.023140279339290817,1.407
0.013600041281713188,1.408
-0.003222499972370129,1.409
-0.024306417412931134,1.41
-0.044104204349727665,1.411
-0.055664861067672176,1.412
-0.05355476869767783,1.413
-0.036800893701687355,1.414
-0.009846776113135437,1.415
0.019054880186759673,1.416
0.041097671201498175,1.417
0.050262944015916286,1.418
0.04527825906455639,1.419
0.029299084689167133,1.42
0.007587584018487102,1.421
-0.01494269877603146,1.422
-0.034358988055864736,1.423
-0.04703066180048544,1.424
-0.04986015282704298,1.425
-0.04191446294337922,1.426
-0.025596313832870195,1.427
-0.005947761120798264,1.428
0.011338812681990443,1.429
0.022055795136130818,1.43
0.024897830857621473,1.431
0.021404837444913023,1.432
0.014628183887420501,1.433
0.007732072960881416,1.434
0.0032631741804368414,1.435
0.0027883313969886345,1.436
0.006589088632291535,1.437
0.013599563129587414,1.438
0.021615413188218892,1.439
0.027701106698509496,1.44
0.029071923617416225,1.441
0.02440887102133637,1.442
0.014792126406412923,1.443
0.0034757808636482765,1.444
-0.005527226590012845,1.445
-0.009474592688257583,1.446
-0.008549783257493367,1.447
-0.005917489351299258,1.448
-0.0057467502901290225,1.449
-0.010504326292477972,1.45
-0.01954631582382476,1.451
-0.029912853993688822,1.452
-0.038398328364105304,1.453
-0.04291210471097139,1.454
-0.042260836251438665,1.455
-0.03565704064965723,1.456
-0.023216944824599225,1.457
-0.006756701394769221,1.458
0.010394552698335334,1.459
0.024607949141451795,1.46
0.033228894873477896,1.461
0.03518530726332573,1.462
0.031030511518751858,1.463
0.022664377695478626,1.464
0.012471357195722402,1.465
0.0020968348677800805,1.466
-0.007969747819152492,1.467
-0.017639262953932908,1.468
-0.026283906199491742,1.469
-0.032422229375320646,1.47
-0.03409914446773681,1.471
-0.029681348078036428,1.472
-0.018601711136532972,1.473
-0.0016722183729550475,1.474
0.019101249595971447,1.475
0.04100333380391619,1.476
0.06108852588360114,1.477
0.07644724211093913,1.478
0.08433185631498112,1.479
0.08245234013279891,1.48
0.06959995122949007,1.481
0.046283913976932746,1.482
0.014864803736507753,1.483
-0.020873760794573724,1.484
-0.05611906014076756,1.485
-0.08509466330886666,1.486
-0.10174829019556561,1.487
-0.10193583768884087,1.488
-0.085875679731938,1.489
-0.05858497978127347,1.49
-0.02781799052933717,1.491
-0.0010642649309885767,1.492
0.016864133094091852,1.493
0.024845290259615686,1.494
0.024787318458413768,1.495
0.020066434570524566,1.496
0.014311240109529937,1.497
0.010771963610631395,1.498
0.011757535082582244,1.499
0.018067336217505784,1.5
0.02859674205006419,1.501
0.04022999744416565,1.502
0.0484945791163639,1.503
0.049170293594839126,1.504
0.039870931738591256,1.505
0.0206052843300388,1.506
-0.006242329524242076,1.507
-0.035902990156369906,1.508
-0.062041698301039234,1.509
-0.07901508083858298,1.51
-0.0841101391917113,1.511
-0.07807084890739395,1.512
-0.06399433281944206,1.513
-0.04572068421486953,1.514
-0.026555917613701244,1.515
-0.00867461187810849,1.516
0.006845030458387348,1.517
0.019788324371895784,1.518
0.030711563663286236,1.519
0.04084010475916696,1.52
0.051557643519775764,1.521
0.06337907703810797,1.522
0.07497340264784627,1.523
0.08311841042937283,1.524
0.0839020127493592,1.525
0.07449508090342911,1.526
0.05441676200355216,1.527
0.025753316291448673,1.528
-0.007423971107617385,1.529
-0.039889211641252025,1.53
-0.06605650257080606,1.531
-0.0809996034990836,1.532
-0.08203948361056031,1.533
-0.07029205111745271,1.534
-0.050703183256680745,1.535
-0.02999634405857192,1.536
-0.013794673655904624,1.537
-0.004659843068218299,1.538
-0.0017502216132817472,1.539
-0.0018179768929936684,1.54
-0.00100783589875003,1.541
0.0031730556499453763,1.542
0.010633066929713691,1.543
0.018936649692239987,1.544
0.024658589436992638,1.545
0.024811275839704855,1.546
0.01783372481771578,1.547
0.004292291721077247,1.548
-0.012799014923353159,1.549
-0.028608655952434673,1.55
-0.038217427984186064,1.551
-0.03857846260054432,1.552
-0.029510291919721408,1.553
-0.01326077298267124,1.554
0.0067869428473321764,1.555
0.02730179150695064,1.556
0.0456022869650232,1.557
0.059782229755897934,1.558
0.06861834199839692,1.559
0.07144590026305243,1.56
0.06812095603700632,1.561
0.05901594600699781,1.562
0.044911158980630896,1.563
0.02689562731866955,1.564
0.006522138364825578,1.565
-0.013976972579657347,1.566
-0.03189572376247855,1.567
-0.04477733117131234,1.568
-0.05136311497085707,1.569
-0.05233937039036883,1.57
-0.05027505859419246,1.571
-0.04840019047422051,1.572
-0.04882499875933005,1.573
-0.05141680066108652,1.574
-0.05404874128004599,1.575
-0.05389096632070378,1.576
-0.0487883634285042,1.577
-0.03801888235258561,1.578
-0.02242132572377864,1.579
-0.00412346104255721,1.58
