VaMe,time
0.0005534039401647506,0.001
-0.006259904462959544,0.002
-0.013728535528199356,0.003
-0.022025593273987287,0.004
-0.030651321818697588,0.005
-0.03874251739914828,0.006
-0.04553632277032759,0.007
-0.0504452215993093,0.008
-0.05278644982840479,0.009
-0.05176859467685064,0.01
-0.046854785593819816,0.011
-0.03802506390118515,0.012
-0.025757623811468407,0.013
-0.010981854064124595,0.014
0.004841377716353288,0.015
0.019622787084722433,0.016
0.030772464939933665,0.017
0.035729495567355524,0.018
0.03279716036758866,0.019
0.021878253854672628,0.02
0.0046607132161816675,0.021
-0.015773840991298402,0.022
-0.03550127108391792,0.023
-0.05030942147310284,0.024
-0.056591519888776046,0.025
-0.05254034264771507,0.026
-0.03883614682741474,0.027
-0.01818677627641739,0.028
0.005929203817723602,0.029
0.030390087085478152,0.03
0.05290817582603766,0.031
0.0719863884008252,0.032
0.08664583668793283,0.033
0.09606638256208767,0.034
0.09918026316591523,0.035
0.09436550782716031,0.036
0.07962675845351323,0.037
0.053601743790992876,0.038
0.017105255128659437,0.039
-0.025842345519304904,0.04
-0.0685611207023561,0.041
-0.10382188123845815,0.042
-0.12624434537009635,0.043
-0.1335374015879728,0.044
-0.1263030921260782,0.045
-0.10724237816754208,0.046
-0.08031437674443241,0.047
-0.049736203456875565,0.048
-0.019027964240591104,0.049
0.009407072003119007,0.05
0.03415533719402874,0.051
0.054451091479193456,0.052
0.06983717936906984,0.053
0.07991621440684742,0.054
0.08426726319735396,0.055
0.08252807067831235,0.056
0.07457937449420751,0.057
0.06090710271066278,0.058
0.043194411323344464,0.059
0.024666950575811003,0.06
0.009419098463276656,0.061
0.0006900896681814694,0.062
-0.0008780406060751756,0.063
0.002163966485763922,0.064
0.005032381280269015,0.065
0.0028284648154725442,0.066
-0.007066980567620835,0.067
-0.02343342395806692,0.068
-0.041476929442104925,0.069
-0.05501402434074258,0.07
-0.05931468782169125,0.071
-0.05288635564797458,0.072
-0.03744397507545363,0.073
-0.016752171278352993,0.074
0.004522063103914216,0.075
0.021732109915329714,0.076
0.03149445522345534,0.077
0.03293953564098461,0.078
0.027663754175454185,0.079
0.018188410151285576,0.08
0.00643758346541032,0.081
-0.006538253646155475,0.082
-0.019924816704651002,0.083
-0.03252579321903211,0.084
-0.042414217342034,0.085
-0.047096503730503364,0.086
-0.04476917574577652,0.087
-0.03581720237790284,0.088
-0.022769073600989537,0.089
-0.008687595858867402,0.09
0.004379147078420454,0.091
0.015689100946665646,0.092
0.024948554669718754,0.093
0.03144114219943354,0.094
0.03422618164010171,0.095
0.03314272457093951,0.096
0.029302094317878457,0.097
0.024356226366948508,0.098
0.019249885032907584,0.099
0.013812880127857557,0.1
0.007575140608657792,0.101
0.0007614189739980051,0.102
-0.005530283530706575,0.103
-0.009954348016851905,0.104
-0.01166662299051125,0.105
-0.010494093807530771,0.106
-0.006593749281558055,0.107
-0.0003192038732874718,0.108
0.00747530325295822,0.109
0.015180820813433681,0.11
0.020641426784923356,0.111
0.021825334615812264,0.112
0.017662787979006923,0.113
0.008569698671765564,0.114
-0.003639067350001344,0.115
-0.01630367898164139,0.116
-0.02659429045114369,0.117
-0.03211141962195203,0.118
-0.03144555375688977,0.119
-0.024649931825200255,0.12
-0.013254800837869778,0.121
0.00042873336777114393,0.122
0.014185514180060935,0.123
0.026172726885268425,0.124
0.034715848910783435,0.125
0.03833778535067479,0.126
0.03621692414166839,0.127
0.028663684097807018,0.128
0.0171704235015621,0.129
0.003909204625368969,0.13
-0.00902894341612608,0.131
-0.020202137910794882,0.132
-0.029048390670901997,0.133
-0.03579839392025865,0.134
-0.040919903355828804,0.135
-0.04431605179090513,0.136
-0.04513911640263843,0.137
-0.0425789556616747,0.138
-0.03680043741296158,0.139
-0.029102966561629393,0.14
-0.021274091351868953,0.141
-0.014706346474515518,0.142
-0.009917764438104486,0.143
-0.006729793329703958,0.144
-0.004564134594972297,0.145
-0.002289716093080392,0.146
0.001922402828472046,0.147
0.00993863399121961,0.148
0.022453717690139968,0.149
0.03830569732897556,0.15
0.054750623236783674,0.151
0.06821980730669283,0.152
0.07520426633180509,0.153
0.07330793952980799,0.154
0.06226304043681801,0.155
0.04429346152587774,0.156
0.023352503652044772,0.157
0.0034724393424567417,0.158
-0.01278446704912238,0.159
-0.024791419981833717,0.16
-0.03316108147543068,0.161
-0.038644980512379384,0.162
-0.041436978597005854,0.163
-0.04114615100206162,0.164
-0.03721368191096509,0.165
-0.029539292459023977,0.166
-0.01906273036129666,0.167
-0.007847217286177035,0.168
0.0015425185089796537,0.169
0.007045204600705672,0.17
0.007943138580353965,0.171
0.005146383577387616,0.172
0.0008615372470047911,0.173
-0.002239701431293218,0.174
-0.002103855596571958,0.175
0.0019222689385181952,0.176
0.009027153207578966,0.177
0.01737574585446517,0.178
0.024655191837023114,0.179
0.028600325525826076,0.18
0.02752485227941752,0.181
0.0208193833726739,0.182
0.009225234242645623,0.183
-0.005336762578440802,0.184
-0.02037096327227334,0.185
-0.03348396591161662,0.186
-0.04273338521091322,0.187
-0.04671352629270356,0.188
-0.04464756149554947,0.189
-0.036366095851873545,0.19
-0.022059967450864745,0.191
-0.0021441702961656683,0.192
0.022480236986544964,0.193
0.049911292061619664,0.194
0.07682195516581149,0.195
0.09834018218256513,0.196
0.1085270535736159,0.197
0.10202480125243181,0.198
0.07660866611517846,0.199
0.03487806931323523,0.2
-0.016374117600388694,0.201
-0.06860275702587929,0.202
-0.11402577192103865,0.203
-0.1467538385958814,0.204
-0.16244373277226984,0.205
-0.15808524519600076,0.206
-0.1332556352766586,0.207
-0.09162892616817804,0.208
-0.04055752562843005,0.209
0.011256894397177569,0.21
0.056113890658381856,0.211
0.08855239352204183,0.212
0.10571048674149897,0.213
0.10722534939342179,0.214
0.0948669156542996,0.215
0.07207971655144704,0.216
0.04342010329400054,0.217
0.01372095214006339,0.218
-0.012794230150868016,0.219
-0.032882010324417676,0.22
-0.044250663959025494,0.221
-0.045918762593834005,0.222
-0.038817751111060485,0.223
-0.02561352646140049,0.224
-0.009686916644263499,0.225
0.005843343449310665,0.226
0.018639497411689455,0.227
0.02734864329176734,0.228
0.03158200140621232,0.229
0.0316978077748791,0.23
0.02852741796674363,0.231
0.023175346007171957,0.232
0.01689640352323275,0.233
0.011024886777498414,0.234
0.006942507788780243,0.235
0.005962391675751441,0.236
0.008960292086846622,0.237
0.015821919947983074,0.238
0.025100323719814382,0.239
0.03427087952353904,0.24
0.04050905339610459,0.241
0.041485213630979664,0.242
0.03582245511644947,0.243
0.023285704971234146,0.244
0.004836879820595505,0.245
-0.017442710215255893,0.246
-0.04060946146425507,0.247
-0.06136059170748743,0.248
-0.07670233723995325,0.249
-0.08455780183781343,0.25
-0.08421416894036222,0.251
-0.07651593936077451,0.252
-0.06362182764427983,0.253
-0.04833454762829577,0.254
-0.033218929844951936,0.255
-0.019827977134711627,0.256
-0.00843693597292673,0.257
0.001555088617343245,0.258
0.010887857679498092,0.259
0.01988103863089897,0.26
0.028275275662155392,0.261
0.03536773781217746,0.262
0.04026708814938452,0.263
0.042138982754153696,0.264
0.040375431271879904,0.265
0.034702216914925726,0.266
0.025314179154345876,0.267
0.013106004976346123,0.268
-0.00012079125128630798,0.269
-0.011810930985524859,0.27
-0.01944903137259382,0.271
-0.021670824042868478,0.272
-0.01878943623671429,0.273
-0.012258995875698678,0.274
-0.0035534165798008326,0.275
0.006694817709540401,0.276
0.018754824397073513,0.277
0.03306827075462475,0.278
0.04915190025226775,0.279
0.06475685181628814,0.28
0.07599272262038546,0.281
0.0786395218390106,0.282
0.06992836800142217,0.283
0.04972534861666848,0.284
0.020603854666383682,0.285
-0.012985996986559735,0.286
-0.045897326422567296,0.287
-0.07333634912831265,0.288
-0.09168279509404913,0.289
-0.09916824912488884,0.29
-0.09609143943000356,0.291
-0.0842134302820049,0.292
-0.06579890580949067,0.293
-0.04300191856296549,0.294
-0.017698609172743938,0.295
0.008401719717276029,0.296
0.03354814552401378,0.297
0.055795405034503295,0.298
0.07293686243838529,0.299
0.08261873198638871,0.3
0.08273306139948612,0.301
0.07197583953389544,0.302
0.05044401499563687,0.303
0.020221366788518193,0.304
-0.014297880919602922,0.305
-0.04680030056783126,0.306
-0.07042499055974774,0.307
-0.07988191373926107,0.308
-0.07344951118094589,0.309
-0.05372085712693372,0.31
-0.02664054786234514,0.311
0.0005962878761094526,0.312
0.0217287067666368,0.313
0.032808628763580816,0.314
0.032522811116827845,0.315
0.021831431733946152,0.316
0.003435583173390292,0.317
-0.018639386889221055,0.318
-0.03948122522455257,0.319
-0.05411523015861255,0.32
-0.05866363928591483,0.321
-0.05132831667022025,0.322
-0.03291261768606391,0.323
-0.006831559500981737,0.324
0.021703467194373136,0.325
0.047402019654378014,0.326
0.0666634602562263,0.327
0.07823861409428937,0.328
0.082381049242766,0.329
0.07932143219437239,0.33
0.0686479039153012,0.331
0.05026585764249627,0.332
0.02588602708025594,0.333
-0.0003870812547887176,0.334
-0.022904170273090912,0.335
-0.03642665385345691,0.336
-0.03827173379338787,0.337
-0.029477695917525897,0.338
-0.014267532749377006,0.339
0.0018153627767159804,0.34
0.013896490457368628,0.341
0.018934124506273294,0.342
0.015968761969903406,0.343
0.005833133059195232,0.344
-0.009352062470292967,0.345
-0.02669323180645605,0.346
-0.04298391081271209,0.347
-0.05525101120097511,0.348
-0.06151685821804229,0.349
-0.061450285037225306,0.35
-0.05629074043569123,0.351
-0.04800554759137698,0.352
-0.03834734154718738,0.353
-0.028350182101335875,0.354
-0.018276593543557436,0.355
-0.007830857802795663,0.356
0.0034740549727448784,0.357
0.015888391884642805,0.358
0.02908702183005163,0.359
0.042028376736278565,0.36
0.05301794785825314,0.361
0.06000187016822526,0.362
0.06110583789160339,0.363
0.055276776617876736,0.364
0.042830333224118534,0.365
0.02578524066750779,0.366
0.007801183302965665,0.367
-0.006595511625631026,0.368
-0.013526130334525113,0.369
-0.011297418032190776,0.37
-0.0009922141640527494,0.371
0.01413087631069293,0.372
0.029885332630200583,0.373
0.04237872046668909,0.374
0.04884320832424794,0.375
0.04806430040754173,0.376
0.04042817997513017,0.377
0.027415446128383487,0.378
0.010584056149258326,0.379
-0.009295071293792333,0.38
-0.0321588964732811,0.381
-0.057592391532519285,0.382
-0.08347865368733663,0.383
-0.10525764495353881,0.384
-0.11675063023425969,0.385
-0.11269017151498545,0.386
-0.09141301315973047,0.387
-0.0559982954829105,0.388
-0.01367759134759031,0.389
0.025987575841880453,0.39
0.05386981822165078,0.391
0.06416121072587905,0.392
0.05621628793334077,0.393
0.034756466335688865,0.394
0.00827571697761405,0.395
-0.014040313836940889,0.396
-0.025591074783795544,0.397
-0.02421596394217661,0.398
-0.011996645521716753,0.399
0.006426902099936535,0.4
0.025921373393726514,0.401
0.042338811836479154,0.402
0.053161785223942895,0.403
0.05761690928653505,0.404
0.05644893666869046,0.405
0.05138506359635418,0.406
0.04436349841239662,0.407
0.03670974366525668,0.408
0.028665550367848517,0.409
0.01963793356829396,0.41
0.008979500436477193,0.411
-0.0032971439527285694,0.412
-0.016236974848986754,0.413
-0.028058561003596404,0.414
-0.03657337255521104,0.415
-0.039875287240523666,0.416
-0.03713895865390073,0.417
-0.029196254033149613,0.418
-0.018536878070153348,0.419
-0.008639176920450638,0.42
-0.0028801298077561635,0.421
-0.0033305930298329943,0.422
-0.009806230350802398,0.423
-0.019698892607745197,0.424
-0.0289181823075134,0.425
-0.03365338066425546,0.426
-0.03198387242204297,0.427
-0.02437988047183098,0.428
-0.013058773951117542,0.429
-0.0009161992743635689,0.43
0.009392664057714451,0.431
0.01603958073248214,0.432
0.01823529742164005,0.433
0.01613451844411226,0.434
0.010584759120905705,0.435
0.002844066532265213,0.436
-0.005642478061235578,0.437
-0.013385581258780635,0.438
-0.01899446432398515,0.439
-0.021390004152611792,0.44
-0.020028861096690616,0.441
-0.015019960032220121,0.442
-0.0070954702078993084,0.443
0.002531380605979784,0.444
0.012410285706492604,0.445
0.021177209088675604,0.446
0.027847847157628548,0.447
0.03196285771244642,0.448
0.03356931948355467,0.449
0.03309974341763977,0.45
0.031219286757652124,0.451
0.028688703155092102,0.452
0.026245568517866278,0.453
0.024473752175819877,0.454
0.02364718137827852,0.455
0.023583922188606814,0.456
0.023586820362412775,0.457
0.022556580758126273,0.458
0.019295938598442666,0.459
0.012891128807025434,0.46
0.003028050208791268,0.461
-0.009799201932518056,0.462
-0.024195702387163565,0.463
-0.03800772196457872,0.464
-0.0488584553564039,0.465
-0.05495725532737609,0.466
-0.055715216942763,0.467
-0.05180787864296388,0.468
-0.04477182922493248,0.469
-0.03640463201504553,0.47
-0.028159111569049773,0.471
-0.02076585328883185,0.472
-0.014266518795884878,0.473
-0.008356937944036639,0.474
-0.002783394911670363,0.475
0.002444745115478119,0.476
0.007082219829345243,0.477
0.010704187244327574,0.478
0.012704877026478592,0.479
0.012498205352480554,0.48
0.010033588557616666,0.481
0.006235686302956308,0.482
0.002852868072655863,0.483
0.001708372148110722,0.484
0.003917619118915255,0.485
0.009531115363594472,0.486
0.017552562081562997,0.487
0.026171613085360302,0.488
0.033285166202556137,0.489
0.037350637025680845,0.49
0.03815900773663522,0.491
0.036819039147345356,0.492
0.03481367994062714,0.493
0.0329232406623343,0.494
0.030816717520001317,0.495
0.027312891163286935,0.496
0.02099108629054069,0.497
0.011020708325148483,0.498
-0.0021069003318311204,0.499
-0.016509397500812636,0.5
-0.029610195610444454,0.501
-0.039098206961751855,0.502
-0.043634735447739985,0.503
-0.04306203653428701,0.504
-0.03821778962414386,0.505
-0.030674343459345697,0.506
-0.022453805607231144,0.507
-0.015538186323961901,0.508
-0.01121006532403719,0.509
-0.009577915107121387,0.51
-0.009636040517022413,0.511
-0.009832456559087552,0.512
-0.008785123276698881,0.513
-0.00575720146850507,0.514
-0.0007406612467420869,0.515
0.005715785257087338,0.516
0.012755995864046993,0.517
0.01945387815700533,0.518
0.02496349949959838,0.519
0.02853325473216392,0.52
0.029439155410754043,0.521
0.026965691836224794,0.522
0.020554367255631468,0.523
0.010182238501000666,0.524
-0.0031312301192747047,0.525
-0.017074190896533004,0.526
-0.028511595471410012,0.527
-0.03467952924094539,0.528
-0.034398090956911154,0.529
-0.028436805110700833,0.53
-0.018908457587572994,0.531
-0.008301505866530069,0.532
0.0012869960138420565,0.533
0.008519148771387874,0.534
0.012830323740818241,0.535
0.014267193095192407,0.536
0.013302810442293594,0.537
0.010667103339748742,0.538
0.007171039861077552,0.539
0.0035402260027431213,0.54
0.0003050359891093212,0.541
-0.0022346006685359846,0.542
-0.003973397974726831,0.543
-0.004911159241421427,0.544
-0.005053637033200195,0.545
-0.0043578059085267445,0.546
-0.0027491504694483787,0.547
-0.0001831492667632266,0.548
0.003317454557018038,0.549
0.007677106638486689,0.55
0.01278593993039074,0.551
0.018468783352709135,0.552
0.024411203949362758,0.553
0.030063583714107268,0.554
0.03448466434673676,0.555
0.03619499858379481,0.556
0.033338627337405405,0.557
0.024362308836318226,0.558
0.009029783772336326,0.559
-0.010792930476154221,0.56
-0.031246180883756806,0.561
-0.04770813540652944,0.562
-0.056552375416083246,0.563
-0.05633145543343457,0.564
-0.047770126365596494,0.565
-0.03293184923605112,0.566
-0.014324963902378937,0.567
0.005562365272292143,0.568
0.024307530116005758,0.569
0.0394915480149779,0.57
0.04875287216553177,0.571
0.04999789395549003,0.572
0.04175067196988675,0.573
0.02362928557920237,0.574
-0.0030981093736713594,0.575
-0.0350984362540345,0.576
-0.06707278091843549,0.577
-0.0926490741406239,0.578
-0.10602855804888016,0.579
-0.10387248560294352,0.58
-0.08651568881459412,0.581
-0.057744641516337965,0.582
-0.023224620795248195,0.583
0.011445846405668756,0.584
0.04203330298432667,0.585
0.06604743069685094,0.586
0.08250665402155269,0.587
0.09146921787085734,0.588
0.09360775584070763,0.589
0.08994575452626313,0.59
0.08171445701260814,0.591
0.07024041892246648,0.592
0.05679976061241486,0.593
0.04244972425348403,0.594
0.027926279006622298,0.595
0.013678599990273188,0.596
1.4908551718756239e-05,0.597
-0.01272015078639015,0.598
-0.024016522248929556,0.599
-0.03318928200713385,0.6
-0.03951811955543726,0.601
-0.042467690632039916,0.602
-0.0418449696539944,0.603
-0.03792363242591203,0.604
-0.031706003157186295,0.605
-0.025060529969092166,0.606
-0.02017104333678487,0.607
-0.01837441099649522,0.608
-0.019264096996122835,0.609
-0.02087766629642987,0.61
-0.020945019177702588,0.611
-0.01831717809672472,0.612
-0.013557704269625886,0.613
-0.008420655411286709,0.614
-0.004784078328036941,0.615
-0.0036963471705866325,0.616
-0.004847455211786866,0.617
-0.006660794786646035,0.618
-0.007085550665187052,0.619
-0.004718571754419965,0.62
0.0004708186038764887,0.621
0.007272108962149239,0.622
0.014020226426008291,0.623
0.019420326843388073,0.624
0.022919444664349385,0.625
0.024593885650585123,0.626
0.0248394257588502,0.627
0.024071988248490554,0.628
0.02246612619090575,0.629
0.019820794990993026,0.63
0.01573634122308952,0.631
0.010071753548962472,0.632
0.003320348522839518,0.633
-0.003435686263270357,0.634
-0.008996089840825032,0.635
-0.012664573165296263,0.636
-0.01458958069535692,0.637
-0.015507221383457358,0.638
-0.016087548317044235,0.639
-0.016425085260786162,0.64
-0.01600624172630679,0.641
-0.014141605127724704,0.642
-0.010581751066127174,0.643
-0.005846667867881095,0.644
-0.0009837519578764318,0.645
0.0030191230407023914,0.646
0.005698273478238951,0.647
0.007230319930491912,0.648
0.008258402003364421,0.649
0.009562213041045963,0.65
0.01171352137308532,0.651
0.014836009580379098,0.652
0.018475992195787914,0.653
0.02153920660625824,0.654
0.022384986270437817,0.655
0.01924446672999413,0.656
0.010924995094947322,0.657
-0.002480109118813315,0.658
-0.01917669872642397,0.659
-0.03576831966015551,0.66
-0.04803209102187899,0.661
-0.05230624696128726,0.662
-0.04694990529810431,0.663
-0.03306412013647784,0.664
-0.014022487951540895,0.665
0.005871722172942756,0.666
0.022800054352112218,0.667
0.034296075064518726,0.668
0.039459938873930234,0.669
0.0387247652734047,0.67
0.033406548828085324,0.671
0.02521698419848236,0.672
0.015861252075784486,0.673
0.006779104495592338,0.674
-0.0009744208084296415,0.675
-0.006761192323221094,0.676
-0.010352454502399673,0.677
-0.011897352667205048,0.678
-0.011866558564166263,0.679
-0.010935094787841793,0.68
-0.009789018961979378,0.681
-0.008937188301001306,0.682
-0.008605018081218921,0.683
-0.008698380983720347,0.684
-0.00881941613892709,0.685
-0.008364531378576436,0.686
-0.006728573361923397,0.687
-0.0035685909076133833,0.688
0.0009929430163131503,0.689
0.006349774426328853,0.69
0.011583503298870588,0.691
0.015701252317166254,0.692
0.01785513885953043,0.693
0.01753964836968924,0.694
0.014738952734307458,0.695
0.010013986623212545,0.696
0.004548189228702619,0.697
4.5058332015966696e-05,0.698
-0.0017236048073474904,0.699
0.0002538059332937321,0.7
0.005382995399480015,0.701
0.011256664239019614,0.702
0.014461449227406971,0.703
0.012015396887672992,0.704
0.002666674260769725,0.705
-0.012496919978504058,0.706
-0.030339461224046238,0.707
-0.04674902496313725,0.708
-0.0580233400613276,0.709
-0.061930326153451135,0.71
-0.058021523898942835,0.711
-0.04734578104249514,0.712
-0.03200318299962471,0.713
-0.014668004704272007,0.714
0.002022717311207992,0.715
0.016111961065418488,0.716
0.02673155947976704,0.717
0.03415106368204153,0.718
0.039521628077092315,0.719
0.04439484634779718,0.72
0.050099641854415615,0.721
0.05712767051261491,0.722
0.06469424810520018,0.723
0.07061941740809767,0.724
0.07170944217919475,0.725
0.06476151210082723,0.726
0.04796576961082321,0.727
0.022107191128203564,0.728
-0.009081484245368157,0.729
-0.039801515798178096,0.73
-0.06410963759262202,0.731
-0.07798850657818944,0.732
-0.0804626038888504,0.733
-0.07330714673475823,0.734
-0.05988659936517296,0.735
-0.04392318204724299,0.736
-0.0285675864656971,0.737
-0.015873406429733092,0.738
-0.006694172389891447,0.739
-0.0008984146728561414,0.74
0.002252976995202111,0.741
0.0037269588422566198,0.742
0.004458425701221037,0.743
0.0052260738729295285,0.744
0.0066046487525072955,0.745
0.008930046733697046,0.746
0.012260404099226605,0.747
0.01635728416635621,0.748
0.02068662017193508,0.749
0.024415656052241705,0.75
0.02646156323539107,0.751
0.02572612279957648,0.752
0.02151748712837596,0.753
0.013943275703339206,0.754
0.004040476273642541,0.755
-0.006468432908894196,0.756
-0.015710801137719485,0.757
-0.02217058323673882,0.758
-0.02489231645614882,0.759
-0.02347339088496885,0.76
-0.018055283500055093,0.761
-0.009304824728031472,0.762
0.0016954718560034593,0.763
0.013619922255472903,0.764
0.02505385133683271,0.765
0.0345806935691889,0.766
0.040829502992845004,0.767
0.04255261925981897,0.768
0.038813838977292195,0.769
0.02932355843872946,0.77
0.014801770807173518,0.771
-0.00285951699233937,0.772
-0.020820263462238694,0.773
-0.03593707606239044,0.774
-0.045631681475030786,0.775
-0.04861336821727333,0.776
-0.04513810578476442,0.777
-0.03675795279593923,0.778
-0.02572977739940683,0.779
-0.014284030163554808,0.78
-0.004017410123847566,0.781
0.004366116524585576,0.782
0.010990496037973028,0.783
0.016539507921459574,0.784
0.021849352896818146,0.785
0.02745956707503164,0.786
0.033271519059087214,0.787
0.03843822122169408,0.788
0.04154280736060431,0.789
0.04100278723159633,0.79
0.03551398774676011,0.791
0.024385024597192655,0.792
0.007736628592498682,0.793
-0.013397769943285625,0.794
-0.03699230985546433,0.795
-0.05999436177090115,0.796
-0.07861341025234216,0.797
-0.08915141235961895,0.798
-0.08916751601023827,0.799
-0.07845250803504232,0.8
-0.059218328974135585,0.801
-0.03521507803277293,0.802
-0.010268724804643957,0.803
0.012797531989560369,0.804
0.032387783181734194,0.805
0.04779742687630739,0.806
0.05881188257701473,0.807
0.06548009119500656,0.808
0.06801157471727373,0.809
0.06666816466012133,0.81
0.061661825144762865,0.811
0.05315496294636746,0.812
0.041394817746788805,0.813
0.026933268388799805,0.814
0.01081889522712343,0.815
-0.005379184776554444,0.816
-0.01978980817118788,0.817
-0.030629919343525127,0.818
-0.03661061080060052,0.819
-0.037251699596348394,0.82
-0.03304214692919387,0.821
-0.025354904197373032,0.822
-0.01606605748552518,0.823
-0.007006613068913602,0.824
0.0004961885082352747,0.825
0.005800009657551747,0.826
0.00885113182030394,0.827
0.009953535826447835,0.828
0.009540039001920294,0.829
0.008004400247837088,0.83
0.005624171399729011,0.831
0.0025907133587833105,0.832
-0.0008935427795668199,0.833
-0.004535363962396819,0.834
-0.007948212705249124,0.835
-0.01072849354564753,0.836
-0.012561659386327821,0.837
-0.013271185173084852,0.838
-0.01276747623445741,0.839
-0.010978643538057258,0.84
-0.007861007504426004,0.841
-0.003460356959092307,0.842
0.002051125916963165,0.843
0.008345410057017624,0.844
0.014871354441487452,0.845
0.020788170485220973,0.846
0.02498584445356926,0.847
0.026261315049670778,0.848
0.023653411165568506,0.849
0.016819039640920606,0.85
0.006283117526779582,0.851
-0.00654173076758384,0.852
-0.019614059401275776,0.853
-0.030752819507192275,0.854
-0.03816129285605044,0.855
-0.04080326264276327,0.856
-0.03856301725839283,0.857
-0.03216310004043268,0.858
-0.02289464064464355,0.859
-0.012319255564611487,0.86
-0.0020315639060011865,0.861
0.006583470685878399,0.862
0.012637436289568921,0.863
0.015947070878071797,0.864
0.017006788966146144,0.865
0.01669604690978199,0.866
0.015873443794066317,0.867
0.015096285313275767,0.868
0.014566344309797578,0.869
0.014211419345989565,0.87
0.013791841749768947,0.871
0.012993297732092273,0.872
0.011512351374075172,0.873
0.009146541368063548,0.874
0.00588176330583988,0.875
0.0019435837815009037,0.876
-0.002225121146759195,0.877
-0.006052249997577847,0.878
-0.008943598724200903,0.879
-0.010376311276110377,0.88
-0.0099705739811995,0.881
-0.007537802264395235,0.882
-0.003076928926856782,0.883
0.0033007872693577144,0.884
0.01141532548283542,0.885
0.020859140878633217,0.886
0.030646522131871246,0.887
0.0389519578539036,0.888
0.04326210788621919,0.889
0.04104465424026134,0.89
0.030739676524036242,0.891
0.012666800897202525,0.892
-0.010583613040042449,0.893
-0.03456109562289778,0.894
-0.054172525865160324,0.895
-0.06530753164130723,0.896
-0.06619006726905932,0.897
-0.057865830970718825,0.898
-0.04360600125001067,0.899
-0.027523288217505566,0.9
-0.013103931028079212,0.901
-0.0022510891246404316,0.902
0.004931784498294402,0.903
0.009614328541388953,0.904
0.013228655415320995,0.905
0.016489240212108916,0.906
0.01895290598846986,0.907
0.019338006846380876,0.908
0.01635329965049886,0.909
0.009500586227344355,0.91
-0.0005146370592249265,0.911
-0.01181948375344078,0.912
-0.021813679691178103,0.913
-0.02791994339670662,0.914
-0.028417926653583933,0.915
-0.023026618430972146,0.916
-0.012905336134434148,0.917
-4.974009829643078e-05,0.918
0.013474179887862448,0.919
0.025992651400226007,0.92
0.0363312068111706,0.921
0.04374641981068391,0.922
0.0477977857678304,0.923
0.04821508457975753,0.924
0.04484520642471988,0.925
0.03775598685303957,0.926
0.02745606743394441,0.927
0.015068233274941193,0.928
0.002291281480087825,0.929
-0.008922173943406969,0.93
-0.016904743565332045,0.931
-0.020817143127184596,0.932
-0.020910891940709508,0.933
-0.018331364259051065,0.934
-0.014569158166866887,0.935
-0.010904664742375,0.936
-0.008138424633735413,0.937
-0.006625962447618216,0.938
-0.006429716071032836,0.939
-0.007437976738486564,0.94
-0.009433111554903006,0.941
-0.012126786920280084,0.942
-0.0151554719978243,0.943
-0.01804999837485843,0.944
-0.02025399519834289,0.945
-0.02127263868443509,0.946
-0.02090007918250761,0.947
-0.019302807555333944,0.948
-0.01683012883341284,0.949
-0.013755618947698287,0.95
-0.010217704551588547,0.951
-0.006321120320168875,0.952
-0.0021971936578100942,0.953
0.002017101064167654,0.954
0.00618679393055211,0.955
0.01015875588672745,0.956
0.013778722553288427,0.957
0.016937405239226832,0.958
0.019584307790665695,0.959
0.021705133626891783,0.96
0.023291878825769642,0.961
0.024317760133008716,0.962
0.024729697038495563,0.963
0.024473203482259853,0.964
0.023526550451643518,0.965
0.02190139679665912,0.966
0.019610485243888722,0.967
0.016635503784327037,0.968
0.012927465291625731,0.969
0.008457119548359622,0.97
0.003296830345997604,0.971
-0.002308244987177078,0.972
-0.007911016455285675,0.973
-0.01290474957052741,0.974
-0.016697584844368688,0.975
-0.019021671360153244,0.976
-0.02015316707911502,0.977
-0.020766677363399114,0.978
-0.02150412656184213,0.979
-0.022606579353966646,0.98
-0.023807309240978798,0.981
-0.02446114415990179,0.982
-0.023812900771386033,0.983
-0.021327470858765445,0.984
-0.01697924383160342,0.985
-0.011316044880705341,0.986
-0.0052328385799314545,0.987
0.0003520389664021418,0.988
0.004713806522846547,0.989
0.007413476695714494,0.99
0.008352392671946589,0.991
0.007843540936064966,0.992
0.006638593633812573,0.993
0.005774741507838032,0.994
0.006210435749568854,0.995
0.00842135205220611,0.996
0.012176339600264584,0.997
0.016592907493744674,0.998
0.020455885372748603,0.999
0.022661629608455813,1.0
0.02257437990846007,1.001
0.020173991584724448,1.002
0.015979482545566963,1.003
0.010775230485824929,1.004
0.005265533264190806,1.005
-0.00013599922795861104,1.006
-0.005262136386243636,1.007
-0.009977032504257724,1.008
-0.013997864642025877,1.009
-0.01689757892318507,1.01
-0.01827478723377577,1.011
-0.01795492104985804,1.012
-0.016074402958881306,1.013
-0.01300562590598813,1.014
-0.009206961809239172,1.015
-0.005098608267067145,1.016
-0.0010163097955375427,1.017
0.002752580285350276,1.018
0.005916821949923047,1.019
0.008181136131030171,1.02
0.009299513946929487,1.021
0.009149120096287574,1.022
0.007764622933709146,1.023
0.0053005843200575895,1.024
0.0019800184696573317,1.025
-0.0019049726483781797,1.026
-0.005951015280538277,1.027
-0.009627342469464822,1.028
-0.012334768170598904,1.029
-0.013520462991242363,1.03
-0.012812884795997695,1.031
-0.010161081715634818,1.032
-0.005914741692949896,1.033
-0.0007526484686334347,1.034
0.004519501386443,1.035
0.009171721098583288,1.036
0.012663356035700563,1.037
0.014669515406909398,1.038
0.015065133347672222,1.039
0.013909182604660897,1.04
0.01143907532254951,1.041
0.008057195124602361,1.042
0.004290909819708949,1.043
0.0007193916230133345,1.044
-0.0021318234082403856,1.045
-0.003921528679841972,1.046
-0.004604263047660381,1.047
-0.004428799308380633,1.048
-0.0037885914839037877,1.049
-0.003028961925117426,1.05
-0.002342146427774175,1.051
-0.0017746985412346661,1.052
-0.0012807431617033332,1.053
-0.0007615916250367696,1.054
-9.724324390670635e-05,1.055
0.0008002076765406328,1.056
0.0019145792636059194,1.057
0.0030625464412393,1.058
0.0038733133115744327,1.059
0.003848912587612029,1.06
0.0025142949546634427,1.061
-0.00037414779381918,1.062
-0.004624078512789583,1.063
-0.009519835258124753,1.064
-0.013954502658893047,1.065
-0.016739439077889672,1.066
-0.016925853581117128,1.067
-0.014031572779000951,1.068
-0.008188872798622956,1.069
-0.00020317685792746324,1.07
0.008553394491172256,1.071
0.016403696728409058,1.072
0.021699333801975338,1.073
0.023168636477623406,1.074
0.020226385385962276,1.075
0.013197676589497807,1.076
0.0033876916693362565,1.077
-0.0071142314044856355,1.078
-0.015949620607790836,1.079
-0.021206533978367227,1.08
-0.022027609387743334,1.081
-0.0187852555848545,1.082
-0.012765627238213385,1.083
-0.005616379405982286,1.084
0.0011397364926359092,1.085
0.006400716512056258,1.086
0.009611462654401305,1.087
0.010749413142348542,1.088
0.010164532155720924,1.089
0.008322455583612642,1.09
0.0055968717746475915,1.091
0.00224417817090882,1.092
-0.0014569070358249345,1.093
-0.005069584480348389,1.094
-0.008022295135757869,1.095
-0.00979826680260006,1.096
-0.010158505359512557,1.097
-0.009218305407056235,1.098
-0.007304062585195914,1.099
-0.004686281433403261,1.1
-0.0013656152819272504,1.101
0.0029479759502243296,1.102
0.008646529337229343,1.103
0.0159119249785915,1.104
0.02441396806646276,1.105
0.033166478241562034,1.106
0.040601187807876936,1.107
0.044815457547055,1.108
0.0439618433795848,1.109
0.03678531412792413,1.11
0.02322263466676249,1.111
0.004770396569304056,1.112
-0.01572657483446782,1.113
-0.03489962024136743,1.114
-0.04986575471802115,1.115
-0.058880370960097655,1.116
-0.061443919658211235,1.117
-0.058059308414106586,1.118
-0.049908552623081616,1.119
-0.038547817725834384,1.12
-0.025588587969824363,1.121
-0.012400167010824274,1.122
6.634479413549703e-05,1.123
0.01130723962523449,1.124
0.02116037947259438,1.125
0.029566895193017185,1.126
0.036265516972743814,1.127
0.04057020739283109,1.128
0.04139852222144817,1.129
0.03762151803650337,1.13
0.02864247417057121,1.131
0.014969990083524736,1.132
-0.0015068237837367706,1.133
-0.017744295373644914,1.134
-0.030293108814105758,1.135
-0.03639585680238189,1.136
-0.03500500582064436,1.137
-0.027162688221879887,1.138
-0.01549396948104435,1.139
-0.0031375229589814544,1.14
0.007277628263282338,1.141
0.014200528038658414,1.142
0.017233762348170274,1.143
0.01688963858345058,1.144
0.014209757276501917,1.145
0.010381449349742904,1.146
0.0064578505849681314,1.147
0.003214712536369393,1.148
0.0010988914212584798,1.149
0.00023824702827972494,1.15
0.0005128349194610737,1.151
0.001659909979177995,1.152
0.0033601529015567346,1.153
0.005275908872368712,1.154
0.0070502954539836075,1.155
0.008310871479424088,1.156
0.008719367726768543,1.157
0.00804548194714053,1.158
0.006221817054243563,1.159
0.003374072894267996,1.16
-0.000179228200557407,1.161
-0.003966782853028879,1.162
-0.007439772735310772,1.163
-0.010083843383282977,1.164
-0.011554699738732759,1.165
-0.011776064198848513,1.166
-0.010932807419462164,1.167
-0.009369205559196426,1.168
-0.0074806657689156265,1.169
-0.005664065752708305,1.17
-0.004304815594011176,1.171
-0.0037437219615323917,1.172
-0.004193104606405777,1.173
-0.005616637900644005,1.174
-0.007638421896934153,1.175
-0.009551579460013436,1.176
-0.010455271306312646,1.177
-0.009518594491908302,1.178
-0.006312500988721045,1.179
-0.0010543599345286783,1.18
0.005387420997444875,1.181
0.011746785968761546,1.182
0.016758233548912045,1.183
0.01951162501715422,1.184
0.019620749272990925,1.185
0.017222419528733025,1.186
0.012888961203750996,1.187
0.007499516808171179,1.188
0.0020966190731244974,1.189
-0.0022695084791139594,1.19
-0.004720261274536391,1.191
-0.00476188046457632,1.192
-0.0025217178787036395,1.193
0.0011314552906365233,1.194
0.004779081479494971,1.195
0.006934889186248501,1.196
0.006573426139541917,1.197
0.003480985833930358,1.198
-0.0016863085885847533,1.199
-0.007673546026067126,1.2
-0.013120411802497017,1.201
-0.016999426120176124,1.202
-0.018764316270786247,1.203
-0.01825259815129602,1.204
-0.015572144221241258,1.205
-0.011084845067268975,1.206
-0.005389872903321539,1.207
0.0007948539567433366,1.208
0.006791557224868003,1.209
0.012059565342703105,1.21
0.016230301653132585,1.211
0.01910049473095422,1.212
0.020574959414385165,1.213
0.020589725596883466,1.214
0.019066828807110445,1.215
0.015926281750223894,1.216
0.01116407946618955,1.217
0.004968295783420592,1.218
-0.0022059411042480498,1.219
-0.00964968791382981,1.22
-0.01647227750406261,1.221
-0.02173013675199437,1.222
-0.024650788031484117,1.223
-0.024884798946551382,1.224
-0.02262694813893792,1.225
-0.018536869071901357,1.226
-0.01350860204389902,1.227
-0.008381086351375617,1.228
-0.0037101594211450964,1.229
0.00030213240386929195,1.23
0.0037214854036190827,1.231
0.006708604759866766,1.232
0.009351239113989173,1.233
0.011579147848632156,1.234
0.013184590565841385,1.235
0.013919961933378976,1.236
0.013622173535578387,1.237
0.012288446658206399,1.238
0.010042757503139417,1.239
0.007028216203274494,1.24
0.003322625557740606,1.241
-0.0010611102240489678,1.242
-0.006089410519799975,1.243
-0.011590756012961709,1.244
-0.0171764545212332,1.245
-0.022242864525149196,1.246
-0.026061895424620042,1.247
-0.027930913810936663,1.248
-0.027337869181710318,1.249
-0.02408950508832357,1.25
-0.018338597364420776,1.251
-0.010475140629852026,1.252
-0.0009425293115324221,1.253
0.00989965124444332,1.254
0.021827015032028208,1.255
0.03475891715162173,1.256
0.04870701974038168,1.257
0.06356893358270815,1.258
0.07872431384132181,1.259
0.09257648640043468,1.26
0.1023319583829303,1.261
0.10425562120828367,1.262
0.09446434388810569,1.263
0.07016135824766773,1.264
0.03102537752638302,1.265
-0.019752850880801618,1.266
-0.0753294630197348,1.267
-0.12627834892076098,1.268
-0.16284684579343062,1.269
-0.17789241988143656,1.27
-0.16937425617934856,1.271
-0.141020296596153,1.272
-0.10067153860424778,1.273
-0.057322456934822255,1.274
-0.01844822911256042,1.275
0.011434330818018493,1.276
0.030898690136561272,1.277
0.040892863030791184,1.278
0.043737354649593406,1.279
0.042203312286504285,1.28
0.03882438044330038,1.281
0.03549105287550096,1.282
0.03331558596841028,1.283
0.03269331217935406,1.284
0.03346499319895432,1.285
0.03510615819464182,1.286
0.03691580814744393,1.287
0.038210413818898885,1.288
0.03849125276334851,1.289
0.03751630070166628,1.29
0.0352589639993434,1.291
0.03181121741937945,1.292
0.027306537667559014,1.293
0.021897577975323223,1.294
0.015775009356575245,1.295
0.009195470439065757,1.296
0.0024869277211728765,1.297
-0.003987811156183447,1.298
-0.009903721236005799,1.299
-0.015040914167423623,1.3
-0.019291474355897672,1.301
-0.022613659753872487,1.302
-0.024999508171405373,1.303
-0.02647566812592162,1.304
-0.027099996207658655,1.305
-0.026936269502697497,1.306
-0.02603065197125224,1.307
-0.02441489934797926,1.308
-0.022135612668311534,1.309
-0.01929853623031628,1.31
-0.0161043759683404,1.311
-0.012823476004503828,1.312
-0.0097028179698997,1.313
-0.006893329630273068,1.314
-0.004455968612062637,1.315
-0.002396980996625021,1.316
-0.0006702275856082809,1.317
0.0008325751298925931,1.318
0.002244245808739831,1.319
0.0036546191190032227,1.32
0.005087408002526562,1.321
0.006533990888493826,1.322
0.007985320209664021,1.323
0.009417581813675654,1.324
0.010753572704657974,1.325
0.011854221008853003,1.326
0.012563624809849478,1.327
0.012774028457138039,1.328
0.012454615538812002,1.329
0.011637030257525523,1.33
0.010404081471407823,1.331
0.008904457660669442,1.332
0.007352553952297657,1.333
0.0059707270477027344,1.334
0.00490466765884161,1.335
0.004180473454198622,1.336
0.003729835058675756,1.337
0.003451134559716326,1.338
0.003251110720292034,1.339
0.0030461824167128835,1.34
0.002751040905584481,1.341
0.0022774084976537362,1.342
0.001538881118912941,1.343
0.00046413674105293465,1.344
-0.0009784785809839357,1.345
-0.0027638796704810183,1.346
-0.004807674207417162,1.347
-0.0069681872893186505,1.348
-0.009061610210830686,1.349
-0.010899376976970732,1.35
-0.012332820967220616,1.351
-0.013279719801696599,1.352
-0.013720165747599386,1.353
-0.013673883555562637,1.354
-0.01317826917441224,1.355
-0.012275331563336675,1.356
-0.011008364656612469,1.357
-0.009427168510172782,1.358
-0.007601918089922109,1.359
-0.005638151632290449,1.36
-0.0036650651117717476,1.361
-0.0017927717552177252,1.362
-8.485913039381403e-05,1.363
0.0014318128991589183,1.364
0.002749077799155057,1.365
0.003873189576835177,1.366
0.004834618393471247,1.367
0.0056956905034901565,1.368
0.006531287391036442,1.369
0.007382384452569963,1.37
0.008218050129117485,1.371
0.008941464438729388,1.372
0.009436781819722899,1.373
0.009630938857591071,1.374
0.009540969836761792,1.375
0.009271186893558651,1.376
0.008954683728739645,1.377
0.008681777167575493,1.378
0.008463465000895632,1.379
0.008247931579225468,1.38
0.007967797538784687,1.381
0.007572089944674607,1.382
0.007025868305184378,1.383
0.006309906190907536,1.384
0.005437689727033782,1.385
0.0044517886131108944,1.386
0.0033779271329438493,1.387
0.0021711213142035952,1.388
0.0006961251082005081,1.389
-0.0012263050814648893,1.39
-0.00371041742591539,1.391
-0.006700169766852906,1.392
-0.009937877261312298,1.393
-0.013016014889158961,1.394
-0.015476948030734829,1.395
-0.01693094037426232,1.396
-0.01716319543980913,1.397
-0.016180642267498706,1.398
-0.014187726550738895,1.399
-0.0115292414859477,1.4
-0.008613546680381948,1.401
-0.005818707417350995,1.402
-0.0034197997997630664,1.403
-0.0015666287852678156,1.404
-0.00029568084051075555,1.405
0.0004469685239939822,1.406
0.0007788607291171086,1.407
0.000853987135300293,1.408
0.0008351650559326436,1.409
0.0008635302779863921,1.41
0.001029062847151101,1.411
0.0013498831060744115,1.412
0.001771878374399366,1.413
0.002203326033712881,1.414
0.002577615075240482,1.415
0.0028986573877423033,1.416
0.0032332709830530187,1.417
0.0036716740998097605,1.418
0.004289035416954008,1.419
0.005118030794022524,1.42
0.006139558051705868,1.421
0.007291853362288879,1.422
0.008484640504420852,1.423
0.009598774283053167,1.424
0.010478361294396582,1.425
0.010951084695291111,1.426
0.010869449689513705,1.427
0.010131620577131455,1.428
0.008679953187538775,1.429
0.0065083452203479695,1.43
0.00369043443205285,1.431
0.0003993025419624403,1.432
-0.0031063866497999643,1.433
-0.00651399749399125,1.434
-0.009495208475344647,1.435
-0.011751328349714346,1.436
-0.01304484595125203,1.437
-0.013218921483939322,1.438
-0.012229378924977805,1.439
-0.010172965336238364,1.44
-0.007282411843835326,1.441
-0.003894277459666722,1.442
-0.0004119718028609309,1.443
0.002728506612846845,1.444
0.005103531248628407,1.445
0.006372399958067536,1.446
0.00636423135174611,1.447
0.005135497722317251,1.448
0.0029487333012494714,1.449
0.0001783212167679778,1.45
-0.0027930204205544613,1.451
-0.005624474825203615,1.452
-0.008012213820427678,1.453
-0.009678961825319963,1.454
-0.010397162765939605,1.455
-0.01005055039762202,1.456
-0.008689881297708731,1.457
-0.006513735530312728,1.458
-0.0037822372058159354,1.459
-0.0007506172105132471,1.46
0.0023312906151456004,1.461
0.005199698165510088,1.462
0.007601791874110927,1.463
0.009356176120806015,1.464
0.010388317837225073,1.465
0.010724228376765389,1.466
0.01046672476581426,1.467
0.009758732860365306,1.468
0.008744607518013828,1.469
0.007550261564138433,1.47
0.006267783310055751,1.471
0.0049343262702786495,1.472
0.0035201507718053615,1.473
0.0019339847832803715,1.474
6.739463761236612e-05,1.475
-0.0021117447348556265,1.476
-0.00448152217190339,1.477
-0.0067780226732249505,1.478
-0.00868832529581868,1.479
-0.009959728358114166,1.48
-0.010459694981071022,1.481
-0.01016362388959725,1.482
-0.009113681711391644,1.483
-0.007398031175283521,1.484
-0.005158094974763627,1.485
-0.002605806939880418,1.486
-1.7506759063833495e-05,1.487
0.0023076858863309265,1.488
0.004102883348165563,1.489
0.005184935783109546,1.49
0.005484471570424335,1.491
0.0050339053270534746,1.492
0.003926265051791195,1.493
0.002280621666167877,1.494
0.00023409722707982587,1.495
-0.002046651813388919,1.496
-0.004352368621583724,1.497
-0.006425775464075645,1.498
-0.0079676311275433,1.499
-0.008663366403310406,1.5
-0.00824176765163223,1.501
-0.006561588713128477,1.502
-0.0036800130502379316,1.503
0.00015477903780527547,1.504
0.004576290735700618,1.505
0.009171832348789995,1.506
0.013521404790490054,1.507
0.01721909616269855,1.508
0.01990048009856433,1.509
0.021277861911504364,1.51
0.021167035927768304,1.511
0.019500882889714223,1.512
0.016343916792718488,1.513
0.011920182761179314,1.514
0.006629097013831296,1.515
0.0009955068373097167,1.516
-0.004442000156728735,1.517
-0.00922922952130674,1.518
-0.013036592998601982,1.519
-0.01566964890411656,1.52
-0.017077353096111948,1.521
-0.01734363981765624,1.522
-0.01665028919986389,1.523
-0.015233307844084687,1.524
-0.013356583824929253,1.525
-0.01129649681566871,1.526
-0.009328457918932583,1.527
-0.007706152931273577,1.528
-0.006617272319413942,1.529
-0.006136704994949083,1.53
-0.006213568073333475,1.531
-0.006692938658787267,1.532
-0.0073581389733469805,1.533
-0.007977259000700888,1.534
-0.008333436972438005,1.535
-0.008236224067615741,1.536
-0.007533398478658864,1.537
-0.00613180344522732,1.538
-0.004000386895372359,1.539
-0.0011397903048518355,1.54
0.002435936728322625,1.541
0.006666452266918513,1.542
0.011395948411614187,1.543
0.016345072858587432,1.544
0.021102481753126564,1.545
0.025166743427363723,1.546
0.02807080494388722,1.547
0.029519726361283218,1.548
0.02942875176996045,1.549
0.027843403809077967,1.55
0.024826164879153477,1.551
0.0203960783363725,1.552
0.01454728780802937,1.553
0.007332620105967329,1.554
-0.0010117027561066805,1.555
-0.009948300548479687,1.556
-0.018597806075465226,1.557
-0.02582152961574777,1.558
-0.030449902748898614,1.559
-0.03163887058391674,1.56
-0.02920661643590328,1.561
-0.023727908266039686,1.562
-0.01632681049858694,1.563
-0.008339214120891704,1.564
-0.001034867214034816,1.565
0.0045594458914465725,1.566
0.0077867959918389235,1.567
0.008445306447964788,1.568
0.006771546790592164,1.569
0.003306242855760192,1.57
-0.0012792661767971642,1.571
-0.006311199856262458,1.572
-0.01116729750218181,1.573
-0.015279953625827505,1.574
-0.018140335697586243,1.575
-0.019327814073574277,1.576
-0.01854605263002566,1.577
-0.015664184581442264,1.578
-0.010786762267354774,1.579
-0.004318458929917264,1.58
0.0030677462872765824,1.581
0.010575031772634289,1.582
0.017448716063135517,1.583
0.023088987806935198,1.584
0.027108451346364502,1.585
0.0293446477548124,1.586
0.0298248974816424,1.587
0.028703708415012446,1.588
0.02620633039153377,1.589
0.022591769171777226,1.59
0.01813395177568457,1.591
0.01311305606700893,1.592
0.007807544195839474,1.593
0.002482904520380404,1.594
-0.0026216796705204135,1.595
-0.007301660117432106,1.596
-0.011388958962915743,1.597
-0.014757952754693238,1.598
-0.017342709637949684,1.599
-0.01916158944277514,1.6
-0.020330138755638494,1.601
-0.021022933220582855,1.602
-0.02136816127192652,1.603
-0.021337141622378306,1.604
-0.020734562703836168,1.605
-0.01932885208433429,1.606
-0.017032555893357476,1.607
-0.013983313429190639,1.608
-0.010465152011934825,1.609
-0.0067557050027767,1.61
-0.0030231182527325705,1.611
0.0006830326704104716,1.612
0.004370614728864253,1.613
0.008015154878213023,1.614
0.011495513997049648,1.615
0.014595155109257858,1.616
0.017059965635719293,1.617
0.01867211915462069,1.618
0.019308914107199475,1.619
0.018982018946918144,1.62
0.017848403121956537,1.621
0.016172150555750196,1.622
0.014243454630777868,1.623
0.012286999358823861,1.624
0.010402130300917401,1.625
0.008570557133246176,1.626
0.006712577289855906,1.627
0.004741670708864494,1.628
0.002605666381957124,1.629
0.0003222775733298273,1.63
-0.0019991040359705766,1.631
-0.00417028146455751,1.632
-0.005986937701756051,1.633
-0.007306449090228671,1.634
-0.008081651548327016,1.635
-0.008349742448554888,1.636
-0.008212959244795032,1.637
-0.007815210649962115,1.638
-0.007305556354507104,1.639
-0.006809780125682142,1.64
-0.006436844722706054,1.641
-0.006309546666408362,1.642
-0.006581333537814243,1.643
-0.007410623266897499,1.644
-0.008891221942283584,1.645
-0.010968708261616542,1.646
-0.01339496823339277,1.647
-0.01576521900666448,1.648
-0.017629320829226684,1.649
-0.018609621423312888,1.65
-0.018465982634281616,1.651
-0.017108838110595877,1.652
-0.014587347374954663,1.653
-0.011063174016394778,1.654
-0.00677357880390078,1.655
-0.0019930718173248253,1.656
0.0030036780766836686,1.657
0.007976908265453223,1.658
0.012741915907451187,1.659
0.017154281551038587,1.66
0.021061350642160165,1.661
0.024263857144769235,1.662
0.0265332130597001,1.663
0.027677419485546733,1.664
0.02760209396134587,1.665
0.02631847852864644,1.666
0.023913634466010983,1.667
0.02053832540410995,1.668
0.0164130392724376,1.669
0.011810125267936818,1.67
0.007012553331745146,1.671
0.0022653159706938226,1.672
-0.0022702067542759354,1.673
-0.006517215880733257,1.674
-0.01042480667886955,1.675
-0.01389437620453851,1.676
-0.016735244737081555,1.677
-0.018676409228542693,1.678
-0.019439824131202495,1.679
-0.01884234457874955,1.68
-0.01687685609073252,1.681
-0.013744449379968934,1.682
-0.00983920001193626,1.683
-0.005686446397636557,1.684
-0.0018306193531218429,1.685
0.0012902506173692108,1.686
0.0034214691374949203,1.687
0.0045042206696525415,1.688
0.004643672967182637,1.689
0.00405329325599117,1.69
0.002995169417148414,1.691
0.0017237468594152794,1.692
0.0004383543710040377,1.693
-0.0007427147379320282,1.694
-0.0017852394048704823,1.695
-0.002720702447842928,1.696
-0.0035995633169773897,1.697
-0.004434367418771294,1.698
-0.005177177056996529,1.699
-0.005740843663612731,1.7
-0.006024861490577654,1.701
-0.005922624054213517,1.702
-0.0053387495247819074,1.703
-0.004237521084199213,1.704
-0.0026815287751505144,1.705
-0.0008162009670189749,1.706
0.0011743160324616938,1.707
0.003096544213049828,1.708
0.004769133201152545,1.709
0.0060516014203954305,1.71
0.006869387752160048,1.711
0.007222767799546286,1.712
0.007177631626981745,1.713
0.00684811627018724,1.714
0.0063854211825652195,1.715
0.005967282889342118,1.716
0.005768037341330392,1.717
0.005906232295362446,1.718
0.006389073156990207,1.719
0.007090863340145398,1.72
0.007797409845270774,1.721
0.00828981565068076,1.722
0.008395428363974876,1.723
0.007981515410835187,1.724
0.006945621037421912,1.725
0.005243400122353053,1.726
0.0029266090930769634,1.727
0.00015642229097372973,1.728
-0.0028140507686919597,1.729
-0.005685229430414955,1.73
-0.008172551080332616,1.731
-0.01006189750903275,1.732
-0.011246207485428664,1.733
-0.011744676563953733,1.734
-0.011699151284408335,1.735
-0.011332945892513482,1.736
-0.010878052093458076,1.737
-0.010504290647077892,1.738
-0.010282163865189748,1.739
-0.010180915116639412,1.74
-0.010080950981627639,1.741
-0.009799470913985798,1.742
-0.009146618464829375,1.743
-0.008001405359839422,1.744
-0.006361220774860327,1.745
-0.004331716830996878,1.746
-0.002077328992222068,1.747
0.00022743966427987938,1.748
0.002430989242449649,1.749
0.00441417653418507,1.75
0.00607506037476864,1.751
0.007322280259412961,1.752
0.00810765389434872,1.753
0.008472094449477208,1.754
0.008550099194060412,1.755
0.008520053872613266,1.756
0.008545799722554153,1.757
0.00874123347823698,1.758
0.009144764975099372,1.759
0.009704601961562077,1.76
0.010292561623645348,1.761
0.01073779532935453,1.762
0.010860924779429819,1.763
0.010498151451311681,1.764
0.00951249645838881,1.765
0.007816264450191275,1.766
0.005425411405342331,1.767
0.002493861843709879,1.768
-0.0007317898765914711,1.769
-0.003993149249443706,1.77
-0.0070535505878071185,1.771
-0.009680056556405503,1.772
-0.011636714847500592,1.773
-0.012727421319729034,1.774
-0.012857424018843362,1.775
-0.012067736013072813,1.776
-0.010529462747845794,1.777
-0.008505003962251767,1.778
-0.0062900430676300755,1.779
-0.004151204536314597,1.78
-0.002279900848667258,1.781
-0.0007850229073241375,1.782
0.00028114939360532695,1.783
0.000901679625784636,1.784
0.0011029359292095374,1.785
0.000968957489497846,1.786
0.0006265606313011706,1.787
0.00020411981385268354,1.788
-0.00020736503351660707,1.789
-0.0005683127317569984,1.79
-0.0008717107684314304,1.791
-0.0011047740840014375,1.792
-0.0012167237753990564,1.793
-0.0011206372155480404,1.794
-0.0007394406426566699,1.795
-6.167914481395415e-05,1.796
0.000837190406246776,1.797
0.0018197721726026296,1.798
0.0027441237359024898,1.799
0.0035171555854775017,1.8
0.004105037672742041,1.801
0.004510215129289121,1.802
0.004749750897251853,1.803
0.004835543283204264,1.804
0.004750287772600335,1.805
0.004442734492072773,1.806
0.003865031954789349,1.807
0.003030956396214208,1.808
0.0020417372340041373,1.809
0.001059930159864147,1.81
0.0002571599482040962,1.811
-0.0002416000873695632,1.812
-0.0004016630078376396,1.813
-0.00028860487177982804,1.814
-3.860459890933318e-05,1.815
0.0001911079601763316,1.816
0.00026846000757541874,1.817
0.00011819180495880729,1.818
-0.0002672971724755626,1.819
-0.0008368610366706853,1.82
-0.0014919385031841863,1.821
-0.0020907631177459404,1.822
-0.002475037777435765,1.823
-0.0025377111624282876,1.824
-0.002275365206777422,1.825
-0.0017718220017521925,1.826
-0.0011407248507796228,1.827
-0.0004803427649673275,1.828
0.00013187834838238597,1.829
0.0006125975706560898,1.83
0.0008485679699816054,1.831
0.0007066383179642737,1.832
8.177947533268275e-05,1.833
-0.0010479046184728679,1.834
-0.002598547814051215,1.835
-0.004397760847460005,1.836
-0.006222329415762229,1.837
-0.007835308306572274,1.838
-0.009009524640412329,1.839
-0.009543929847468288,1.84
-0.009288858831491895,1.841
-0.008179172193674646,1.842
-0.0062611980460916756,1.843
-0.0036999645997373358,1.844
-0.0007586170370254251,1.845
0.002245771529206105,1.846
0.0050004690837106725,1.847
0.007258940505661813,1.848
0.008875888222164846,1.849
0.009792654448729593,1.85
0.010008367024915544,1.851
0.009578677182582243,1.852
0.008625129592098508,1.853
0.007322510829970637,1.854
0.005864677429573161,1.855
0.004430890503509483,1.856
0.0031669905546735026,1.857
0.0021688557329845844,1.858
0.001454317367163734,1.859
0.0009435480763619829,1.86
0.00047884730807720314,1.861
-0.00011106759469381878,1.862
-0.0009295358694498246,1.863
-0.0019633078388946856,1.864
-0.0030999978197779206,1.865
-0.0041841952526180835,1.866
-0.0050557111599047605,1.867
-0.005563088254484897,1.868
-0.005588778760282611,1.869
-0.005088275752206894,1.87
-0.004116805327666041,1.871
-0.0028365713857975523,1.872
-0.001497084040663447,1.873
-0.00037562650539456495,1.874
0.0003062821604445814,1.875
0.00045098637664871467,1.876
0.00010653125258356766,1.877
-0.0005583565382600471,1.878
-0.0013087009500913009,1.879
-0.0019159604650388431,1.88
-0.0022257176019539514,1.881
-0.002185115661371654,1.882
-0.0018311919976885598,1.883
-0.0012646279985013052,1.884
-0.0006100961433255956,1.885
2.9126554573399036e-05,1.886
0.0005863906983489581,1.887
0.0010156356257800972,1.888
0.001289336660615981,1.889
0.0014211862656007233,1.89
0.0014796800736901026,1.891
0.0015742913076916328,1.892
0.0018140618612268449,1.893
0.0022495398627406836,1.894
0.0028381868365560128,1.895
0.0034625926094177294,1.896
0.00397980864505729,1.897
0.004269853135999085,1.898
0.00427005439672477,1.899
0.003988912205960887,1.9
0.0034998419453145073,1.901
0.0029158642984963286,1.902
0.0023451131156997825,1.903
0.001840022313864814,1.904
0.0013730604222566437,1.905
0.0008678346425384459,1.906
0.00026331833400269764,1.907
-0.00044997005129251744,1.908
-0.0012460984684603271,1.909
-0.0020953606760301716,1.91
-0.002970976447062493,1.911
-0.003835036899688475,1.912
-0.004633844276838787,1.913
-0.00531641747044802,1.914
-0.005858991287172122,1.915
-0.006260866671261734,1.916
-0.006504543117711565,1.917
-0.006527518759579219,1.918
-0.006247075858226438,1.919
-0.005619320975725085,1.92
-0.004687904858045509,1.921
-0.0035937320801328713,1.922
-0.0025422585956011738,1.923
-0.0017445950421328172,1.924
-0.0013532106806035734,1.925
-0.001412388344399325,1.926
-0.0018343001614694059,1.927
-0.0023987750281262484,1.928
-0.002783182958267412,1.929
-0.002629414971994532,1.93
-0.0016396006793310193,1.931
0.0003148829128973147,1.932
0.0031170755712899823,1.933
0.00642345916802657,1.934
0.009772758086791093,1.935
0.012710643808506226,1.936
0.014873040286882471,1.937
0.016018045488687807,1.938
0.0160263651230135,1.939
0.014895706626694762,1.94
0.012737415053014711,1.941
0.009772190277020336,1.942
0.006313733313338848,1.943
0.0027187869295815835,1.944
-0.0006892354735636775,1.945
-0.0036749610556500215,1.946
-0.006097219092801108,1.947
-0.007893090933590427,1.948
-0.009070246707405272,1.949
-0.009699754401107319,1.95
-0.009896181413542302,1.951
-0.009785872264658614,1.952
-0.009462665254423672,1.953
-0.008958862858421667,1.954
-0.008268791785768493,1.955
-0.007403517730607526,1.956
-0.006422040671146304,1.957
-0.005418000843540272,1.958
-0.004487069321822007,1.959
-0.0037009050328671465,1.96
-0.003081138478716734,1.961
-0.0025705237606334823,1.962
-0.002032107953680525,1.963
-0.001301924789649325,1.964
-0.00027460203071039753,1.965
0.0010308340189220664,1.966
0.0024737732871364755,1.967
0.0038612858400719242,1.968
0.005028405799555213,1.969
0.005885799597865876,1.97
0.006419882236482455,1.971
0.00665084624786156,1.972
0.0065875795704321664,1.973
0.006215838828060396,1.974
0.0055123153709887365,1.975
0.004463469268822295,1.976
0.003096351267994971,1.977
0.0015206074464965264,1.978
-6.715761758441721e-05,1.979
-0.001444249351614129,1.98
-0.002440251207130143,1.981
-0.002979426223946352,1.982
-0.0030846517892674356,1.983
-0.002854224726522949,1.984
-0.0024183526408990495,1.985
-0.0019017824440205184,1.986
-0.0014143006550896167,1.987
-0.001051290551870924,1.988
-0.0008728608844237094,1.989
-0.0008711716235783045,1.99
-0.0009696128128498765,1.991
-0.001056877414541558,1.992
-0.0010155043092405097,1.993
-0.0007340953838771494,1.994
-0.00013145891246149822,1.995
0.000797181361108062,1.996
0.0019419642794099602,1.997
0.00308494044054384,1.998
0.003960168738289327,1.999
0.0043443672404555045,2.0
0.0041408873420114645,2.001
0.0034138919435491586,2.002
0.0023462533258548756,2.003
0.0011482800386748834,2.004
-2.1886763741240647e-05,2.005
-0.0010913898042531117,2.006
-0.0020632835161523647,2.007
-0.002972995940364306,2.008
-0.003829678226685032,2.009
-0.004583627208255493,2.01
-0.0051324629012811035,2.011
-0.005353350214142416,2.012
-0.005159291780549138,2.013
-0.004551602503312527,2.014
-0.0036264652879196345,2.015
-0.0025376259823057163,2.016
-0.0014416767473757546,2.017
-0.000453246025435372,2.018
0.0003621892100380295,2.019
0.0009644177933858418,2.02
0.0013227212132570167,2.021
0.0014249646315235467,2.022
0.001295664016088813,2.023
0.0010049035984825091,2.024
0.0006674643837921584,2.025
0.00044305904013339155,2.026
0.0005191242504426084,2.027
0.0010451374240300973,2.028
0.002041219314985774,2.029
0.003343522285683556,2.03
0.004636883380508613,2.031
0.005571170368804126,2.032
0.005891493556075892,2.033
0.0055113491058048835,2.034
0.004513990110007679,2.035
0.0031095420429259083,2.036
0.0015800552992219802,2.037
0.000226730154372475,2.038
-0.0006876591402364114,2.039
-0.0010071502777651354,2.04
-0.0007289538398418927,2.041
1.5899675289207058e-05,2.042
0.0010295995513970703,2.043
0.002099148785280981,2.044
0.003004557584468855,2.045
0.0035127343098456543,2.046
0.003394671760041529,2.047
0.0024763328274749223,2.048
0.0007056002505512187,2.049
-0.0018040199223785516,2.05
-0.004778713434335587,2.051
-0.00782758975926258,2.052
-0.01051311742311659,2.053
-0.01244597423026486,2.054
-0.013366477055387512,2.055
-0.01316856960345947,2.056
-0.011883164410393084,2.057
-0.009671523475755018,2.058
-0.0068310474253191495,2.059
-0.003760506491401275,2.06
-0.0008684751361700694,2.061
0.0015181019760960414,2.062
0.0031983200560424746,2.063
0.0041086023182478814,2.064
0.004322998985019787,2.065
0.004019694906010193,2.066
0.00340704073560053,2.067
0.0026726264177672596,2.068
0.001988207596278889,2.069
0.0015185209630183144,2.07
0.0013964827076701925,2.071
0.0016824884908371504,2.072
0.002331286224334916,2.073
0.0031886573194740376,2.074
0.004033104169463567,2.075
0.004647166366487356,2.076
0.004895554702325821,2.077
0.004780367406048428,2.078
0.004429159723748524,2.079
0.0040170295443488465,2.08
0.0036889253787791613,2.081
0.003529983021034938,2.082
0.0035603138710515693,2.083
0.0037276694157744065,2.084
0.003914155228561002,2.085
0.0039653855522125666,2.086
0.0037290099834123252,2.087
0.0030913637061057756,2.088
0.002003758631696693,2.089
0.000504136302464398,2.09
-0.0012556561034925205,2.091
-0.0030103294340618823,2.092
-0.004455165839804045,2.093
-0.005363746082422378,2.094
-0.0056670897248790415,2.095
-0.0054457182273088,2.096
-0.004855170022528127,2.097
-0.004052429001652977,2.098
-0.003176308707411323,2.099
-0.0023710402295692456,2.1
-0.001783729690597814,2.101
-0.0014973859346976085,2.102
-0.0014612535236577851,2.103
-0.0014988570255916687,2.104
-0.0013973126159556235,2.105
-0.0010159862829303558,2.106
-0.00034360019094532667,2.107
0.0005149178199738565,2.108
0.001384705566858334,2.109
0.002073833362986142,2.11
0.002426078562204666,2.111
0.00235865957344039,2.112
0.0018737871659033221,2.113
0.0010386518326588655,2.114
-5.237696824800188e-05,2.115
-0.0012982341151017657,2.116
-0.002584159952675327,2.117
-0.003769257511670058,2.118
-0.004693799657454896,2.119
-0.005212990906267492,2.12
-0.005238022155189884,2.121
-0.004761755488778986,2.122
-0.0038645374802216046,2.123
-0.0027114893652513245,2.124
-0.0015421823027493258,2.125
-0.0006247946094657144,2.126
-0.00016195891585391806,2.127
-0.00019406146908487935,2.128
-0.0005716774748092983,2.129
-0.0010238136130399746,2.13
-0.001269953047701921,2.131
-0.001105111220146615,2.132
-0.0004372681336735796,2.133
0.0007137548077700143,2.134
0.0022467356171107476,2.135
0.004015827297823584,2.136
0.005847320253754358,2.137
0.00754339831753654,2.138
0.008901376940368758,2.139
0.009753500948905942,2.14
0.010003058613050632,2.141
0.009634513311465247,2.142
0.008705944631269185,2.143
0.007342113176912194,2.144
0.0057165621278993965,2.145
0.004012624149668908,2.146
0.0023832718402144446,2.147
0.0009193919212243588,2.148
-0.00036665062000532984,2.149
-0.0015218616506578457,2.15
-0.0026066540200379946,2.151
-0.003648848236289643,2.152
-0.004619181736457106,2.153
-0.005450630927617505,2.154
-0.006085820057184972,2.155
-0.006501730964793718,2.156
-0.00669916041331805,2.157
-0.006691490091515173,2.158
-0.00651108499290539,2.159
-0.006208642389335124,2.16
-0.005829229769567799,2.161
-0.005400994457239672,2.162
-0.00495959011327981,2.163
-0.004563796424212753,2.164
-0.004271599900057806,2.165
-0.004101185957445129,2.166
-0.004005028306134708,2.167
-0.0038783122740169143,2.168
-0.003604063349865565,2.169
-0.003101551257546902,2.17
-0.002348321489893195,2.171
-0.0013802302714004371,2.172
-0.00028020908828375917,2.173
0.0008470917959303007,2.174
0.001905418471218396,2.175
0.0028231278645345177,2.176
0.0035589002264756826,2.177
0.0041051405876241535,2.178
0.004484524413454717,2.179
0.004743268266666418,2.18
0.004944001974441299,2.181
0.005144272657614702,2.182
0.00536345714646651,2.183
0.005571124095613879,2.184
0.00570645703695071,2.185
0.005698071256152053,2.186
0.005476375002026379,2.187
0.00499677280157838,2.188
0.0042647125429579455,2.189
0.0033397035841293515,2.19
0.0023090308780695915,2.191
0.0012445249020513075,2.192
0.00018006258531499226,2.193
-0.0008744042763543516,2.194
-0.0019046526776643868,2.195
-0.0028696394116535947,2.196
-0.0036957865690389626,2.197
-0.004293800285815154,2.198
-0.0045864654487844875,2.199
-0.004530252048041167,2.2
-0.004123319046397151,2.201
-0.0034035922797305686,2.202
-0.002442079073520377,2.203
-0.0013341364334750207,2.204
-0.00019104897902406853,2.205
0.0008730018479285347,2.206
0.0017608146303755708,2.207
0.002408010567182176,2.208
0.002781875470025042,2.209
0.0028645641845223674,2.21
0.002648048512007719,2.211
0.002154663965824675,2.212
0.0014530680729563548,2.213
0.0006477615348001006,2.214
-0.00015235158750131323,2.215
-0.0008717714259372515,2.216
-0.0014827851544702924,2.217
-0.0019876620851699634,2.218
-0.002396630988379608,2.219
-0.002715225558231759,2.22
-0.002939815606576453,2.221
-0.003069262461721566,2.222
-0.003123218529327214,2.223
-0.003144740333260721,2.224
-0.003185717246936642,2.225
-0.0032877202195387865,2.226
-0.0034673877977659338,2.227
-0.003705731487171471,2.228
-0.003943124142385131,2.229
-0.004086546297284411,2.23
-0.004025392492247233,2.231
-0.003658008536486191,2.232
-0.0029341028371229023,2.233
-0.0018879722974819687,2.234
-0.0006325320968581921,2.235
0.0006839995976329883,2.236
0.0019401669197199,2.237
0.003084546567093148,2.238
0.004117255456296954,2.239
0.005027835089113871,2.24
0.005754590017801656,2.241
0.006192838038226617,2.242
0.0062361104180797405,2.243
0.005831154477975175,2.244
0.005017035652456363,2.245
0.003912692230046597,2.246
0.002658434686844003,2.247
0.0013631468238543257,2.248
0.00010373997805601361,2.249
-0.0010350856540954322,2.25
-0.0019411698734053005,2.251
-0.0025003127548032795,2.252
-0.0026268054850240165,2.253
-0.002274921130361316,2.254
-0.0014503448200977093,2.255
-0.00022484274151572187,2.256
0.0012562303419287213,2.257
0.002779846182391808,2.258
0.004099902275219306,2.259
0.005004166625889517,2.26
0.005382415149652141,2.261
0.005246634188972801,2.262
0.004689780840491261,2.263
0.0038222574182528012,2.264
0.0027304609525884756,2.265
0.001471341939005924,2.266
8.573951833669425e-05,2.267
-0.0013881914761573835,2.268
-0.0028981942504998567,2.269
-0.00435892654770725,2.27
-0.005657641164780745,2.271
-0.006696623018779616,2.272
-0.007432815137709999,2.273
-0.007873496491844014,2.274
-0.00804477322485628,2.275
-0.007973115875288891,2.276
-0.007685206096108545,2.277
-0.007206986401923081,2.278
-0.006556630646572558,2.279
-0.005743368470319723,2.28
-0.004778947818153502,2.281
-0.0036889097470719544,2.282
-0.0025088061687931103,2.283
-0.0012701402296147338,2.284
7.474746616844782e-06,2.285
0.001309497972452634,2.286
0.00261835277704752,2.287
0.003914665864346399,2.288
0.005167914715292407,2.289
0.006310078738565745,2.29
0.007223707103453517,2.291
0.0077637975115959846,2.292
0.007802133631796128,2.293
0.0072732317370221575,2.294
0.0062081917807121955,2.295
0.004751018832160915,2.296
0.0031426856992370867,2.297
0.0016617025797703703,2.298
0.0005407489425596197,2.299
-0.0001008620292969922,2.3
-0.0002787205482911373,2.301
-0.00011975464091203749,2.302
0.0001895783839774026,2.303
0.00046302438300278875,2.304
0.000555936384673544,2.305
0.0003829174297256349,2.306
-7.465356856264509e-05,2.307
-0.0007666232920179011,2.308
-0.0015833743785024633,2.309
-0.00238097435194325,2.31
-0.0030142429633890225,2.311
-0.003369366210460092,2.312
-0.0033968657540570228,2.313
-0.003132631071064834,2.314
-0.002683705369732404,2.315
-0.0021833384064463683,2.316
-0.0017427274084669897,2.317
-0.001412774358065097,2.318
-0.001167934025502677,2.319
-0.0009273047043310584,2.32
-0.0006029739460218821,2.321
-0.00014982727109322803,2.322
0.0004129439538904394,2.323
0.0010251813979972404,2.324
0.0016282489587390889,2.325
0.0021866381143875527,2.326
0.0026767740723048004,2.327
0.0030673965078116443,2.328
0.0033203863345575985,2.329
0.0034021093437290855,2.33
0.0032837189541926113,2.331
0.002933710604323692,2.332
0.002314195082703203,2.333
0.0013958428509532478,2.334
0.00019670313593284463,2.335
-0.0011913677688752985,2.336
-0.0026246078347159666,2.337
-0.00395474524430001,2.338
-0.005060944195640582,2.339
-0.005859946069294304,2.34
-0.006307072090612814,2.341
-0.006394650834126971,2.342
-0.006146093787034547,2.343
-0.005604171083421685,2.344
-0.004821946067429581,2.345
-0.003860483083670302,2.346
-0.0027812163973092727,2.347
-0.0016363411503466773,2.348
-0.0004717652095094828,2.349
0.0006671275165763236,2.35
0.0017328098533418638,2.351
0.002669768156638298,2.352
0.0034213014761644307,2.353
0.0039573270871581185,2.354
0.004295214257402274,2.355
0.004486870288680986,2.356
0.004577166944363326,2.357
0.004569226468164881,2.358
0.0044320758377893845,2.359
0.004147787641523985,2.36
0.0037576685569405605,2.361
0.0033617619338313586,2.362
0.0030642849708183307,2.363
0.0029084276151741524,2.364
0.0028463134734407324,2.365
0.0027538424081997343,2.366
0.002478333664547508,2.367
0.0019000167816284098,2.368
0.000980185618139514,2.369
-0.0002292143163267931,2.37
-0.001616894415046606,2.371
-0.003054035851787196,2.372
-0.004417788757837655,2.373
-0.005602362681285842,2.374
-0.006522148524782572,2.375
-0.007102865723653523,2.376
-0.007281283402963059,2.377
-0.007020173229608378,2.378
-0.006314882570515575,2.379
-0.005188975608679212,2.38
-0.003698065739001483,2.381
-0.0019427359270474483,2.382
-7.663958139720029e-05,2.383
0.001698451648936699,2.384
0.003162328619417108,2.385
0.004132412366196729,2.386
0.004519803807371036,2.387
0.004362395413489759,2.388
0.003817904746186713,2.389
0.0030977784393373367,2.39
0.002375328459779591,2.391
0.0017436150816511533,2.392
0.0012418745406071365,2.393
0.0008963556617217344,2.394
0.0007335696533850944,2.395
0.000769693687025397,2.396
0.000983155798555745,2.397
0.0012909853138330016,2.398
0.0015656536103592813,2.399
0.00168143441988545,2.4
0.0015545737183526333,2.401
0.001169488092402914,2.402
0.0005789875149190319,2.403
-0.00012629513272529067,2.404
-0.0008470240267626217,2.405
-0.0014903678266506462,2.406
-0.001984476549258243,2.407
-0.0022879677033876703,2.408
-0.002395779957340448,2.409
-0.0023478713302064005,2.41
-0.002227097387628876,2.411
-0.0021327191504866205,2.412
-0.0021360329655610803,2.413
-0.002246162813034587,2.414
-0.0024100837888511167,2.415
-0.0025400007638181313,2.416
-0.0025522746923685113,2.417
-0.002402864405090631,2.418
-0.002095302485128779,2.419
-0.0016561469484977806,2.42
-0.0011035321533552818,2.421
-0.0004383384329937994,2.422
0.0003366233966147927,2.423
0.0011946625613333908,2.424
0.002081358736826192,2.425
0.0029242509669203903,2.426
0.0036439524448623082,2.427
0.004158079941429627,2.428
0.004384287119184007,2.429
0.0042594892801609005,2.43
0.003769927565530055,2.431
0.0029669110089479375,2.432
0.001958320988630459,2.433
0.0008806674684887449,2.434
-0.0001401972514667959,2.435
-0.0010192196183713346,2.436
-0.0017156501064458367,2.437
-0.002219473388279797,2.438
-0.0025428417682734155,2.439
-0.0027206861984982165,2.44
-0.0028028608091075708,2.441
-0.0028305844228129267,2.442
-0.0028135214318565673,2.443
-0.0027223383563405143,2.444
-0.0025001050788709075,2.445
-0.0020859135153327765,2.446
-0.0014371017685501088,2.447
-0.0005477628681867454,2.448
0.0005319912487810666,2.449
0.0016885193648424558,2.45
0.002764679854150647,2.451
0.0035968057669676624,2.452
0.00404482932254418,2.453
0.004014561608651345,2.454
0.0034848533843075975,2.455
0.0025279227414446042,2.456
0.0012977053387691231,2.457
-9.192863744463597e-06,2.458
-0.0011912889532968327,2.459
-0.002069613011608511,2.46
-0.002518673696215959,2.461
-0.0024997776680344614,2.462
-0.0020752121254354557,2.463
-0.0013930652910457047,2.464
-0.0006431617303088815,2.465
6.1142076787538356e-06,2.466
0.0004564317852006219,2.467
0.0006850112920578737,2.468
0.0007152627493640744,2.469
0.0005831385794308809,2.47
0.0003169278619444251,2.471
-7.145431099654827e-05,2.472
-0.0005831613687065583,2.473
-0.0012151813821704078,2.474
-0.0019394013483012898,2.475
-0.0026931785618135944,2.476
-0.003381736870526641,2.477
-0.0038841359073744563,2.478
-0.004070835817398015,2.479
-0.0038384569766692373,2.48
-0.003147172838922123,2.481
-0.0020443814057808487,2.482
-0.000661015652795121,2.483
0.000818647412780879,2.484
0.002195137036027394,2.485
0.003290543938372793,2.486
0.00398511440125364,2.487
0.00424759402608131,2.488
0.004138939299464476,2.489
0.003777397641371276,2.49
0.003284453762981834,2.491
0.002742350461633941,2.492
0.0021831564568294045,2.493
0.001611596602899617,2.494
0.0010398627447910213,2.495
0.0005028672410268555,2.496
4.301409282610403e-05,2.497
-0.00031932483294476726,2.498
-0.0006056874249646313,2.499
-0.0008753079981047526,2.5
-0.0011983893811872745,2.501
-0.0016182549296539354,2.502
-0.002124137426259424,2.503
-0.0026566462097066456,2.504
-0.0031369397161383032,2.505
-0.0034979213261158,2.506
-0.0037096363102173077,2.507
-0.0037832875024670395,2.508
-0.0037423082954838897,2.509
-0.0035761673777668116,2.51
-0.0032123042131647936,2.511
-0.002539756485216411,2.512
-0.0014665829675554719,2.513
4.040254842535096e-05,2.514
0.0019385379577327247,2.515
0.004089856640152626,2.516
0.006251621503945664,2.517
0.00810997845065185,2.518
0.009352498197638327,2.519
0.009741218139619747,2.52
0.009164257310677146,2.521
0.007671221451486965,2.522
0.005479488865028929,2.523
0.0029199566786897763,2.524
0.0003399607987138168,2.525
-0.0019778823389935535,2.526
-0.0038537073162249256,2.527
-0.005208452804715973,2.528
-0.0060364448914967325,2.529
-0.006381746682433067,2.53
-0.006332374839721322,2.531
-0.0060159722662156264,2.532
-0.00557553557296784,2.533
-0.005133419956055017,2.534
-0.0047737538882279724,2.535
-0.004541101216980799,2.536
-0.004431365927597896,2.537
-0.004382000413001898,2.538
-0.0042836237680724965,2.539
-0.004010017445620505,2.54
-0.0034514785729860887,2.541
-0.002550327406179698,2.542
-0.0013282147023887987,2.543
0.00011792664817019929,2.544
0.001647613598759312,2.545
0.0031100619330363373,2.546
0.004364564504438999,2.547
0.005294838435077946,2.548
0.00582686394003709,2.549
0.005948198459950421,2.55
0.0057164490674637206,2.551
0.005240015904605307,2.552
0.004639130859981545,2.553
0.004014459201252431,2.554
0.0034244267241796906,2.555
0.0028644637522171642,2.556
0.0022645836815803236,2.557
0.0015161562950252408,2.558
0.0005158503847837335,2.559
-0.0007895710461418772,2.56
-0.0023691691678699527,2.561
-0.00408649405432969,2.562
-0.005700117791927647,2.563
-0.006920146124528882,2.564
-0.007511206622465768,2.565
-0.007361630424424424,2.566
-0.006482834093046068,2.567
-0.004981291807102736,2.568
-0.0030348759987583176,2.569
-0.0008710266538993648,2.57
0.0012589052120908298,2.571
0.0031138599260337064,2.572
0.004508868281228323,2.573
0.00535360784701374,2.574
0.005656777566981396,2.575
0.005504108822823827,2.576
0.005030307250030913,2.577
0.004383363343798562,2.578
0.0036942569124984886,2.579
0.003074518440715499,2.58
0.0026173033429120304,2.581
0.002369659831708201,2.582
0.0022949312999775637,2.583
0.0022636398845227927,2.584
0.002091572208512208,2.585
0.0016079256614067573,2.586
0.0007114815750883016,2.587
-0.0006009543748926758,2.588
-0.0022209707374512256,2.589
-0.003934703749402721,2.59
-0.005464065493729966,2.591
-0.006528977714655495,2.592
-0.0069029965773731205,2.593
-0.006461204663165359,2.594
-0.005221355696872593,2.595
-0.0033488498016711176,2.596
-0.0011173118998297087,2.597
0.0011381908855290666,2.598
0.0030642701643370475,2.599
0.004354549388225187,2.6
0.00482992295133336,2.601
0.004486888489313613,2.602
0.0034801948202748123,2.603
0.0020487119451973995,2.604
0.00043035047957935027,2.605
-0.0011896260409802338,2.606
-0.002686836770476258,2.607
-0.003975327672711055,2.608
-0.004977276384079218,2.609
-0.005615018059267451,2.61
-0.005831693216960708,2.611
-0.005615447735577231,2.612
-0.005015154297390306,2.613
-0.004154939565294742,2.614
-0.0032344278307295973,2.615
-0.0024836574814755315,2.616
-0.0020708506688093303,2.617
-0.002013336952725834,2.618
-0.002154713236812406,2.619
-0.002224775147051507,2.62
-0.0019435119981179945,2.621
-0.001114446903935864,2.622
0.00031848588430889534,2.623
0.002247197385453747,2.624
0.00441472923112227,2.625
0.0064832097524491275,2.626
0.008140349876802332,2.627
0.009191721191063297,2.628
0.009587139185396807,2.629
0.009385593753773246,2.63
0.008702608897761453,2.631
0.0076663645617900174,2.632
0.006389409983523953,2.633
0.004966052342805384,2.634
0.003495544793709129,2.635
0.002105059845748251,2.636
0.0009402182015644282,2.637
0.00011652669405660428,2.638
-0.0003360723949538003,2.639
-0.0004942605972487986,2.64
-0.0005198900020341232,2.641
-0.0006128635245998093,2.642
-0.0009537307680350933,2.643
-0.001648043366009039,2.644
-0.0026889671915444153,2.645
-0.003957463176378382,2.646
-0.005266023852810276,2.647
-0.006429550920627741,2.648
-0.007329631321272107,2.649
-0.007938167826646404,2.65
-0.008293062227188983,2.651
-0.008451580492186186,2.652
-0.008457408959867074,2.653
-0.008334830669913348,2.654
-0.00809251676327245,2.655
-0.007723833738540994,2.656
-0.007206900534953315,2.657
-0.006497291394517309,2.658
-0.00551332156448872,2.659
-0.004142388910641385,2.66
-0.0022883913710651477,2.661
5.283458634842113e-05,2.662
0.002734098809534451,2.663
0.005467209817981394,2.664
0.007917361349576765,2.665
0.009831721683001445,2.666
0.011115674129935,2.667
0.011812048961299634,2.668
0.012026285401397125,2.669
0.01186640819213613,2.67
0.011421702480109739,2.671
0.010757215274590044,2.672
0.009901155785291282,2.673
0.00884162091239478,2.674
0.007552822988253199,2.675
0.006032913877476479,2.676
0.004321259695847076,2.677
0.002477438108832909,2.678
0.0005438131663686168,2.679
-0.0014680412007050086,2.68
-0.003563190463768586,2.681
-0.0057315570867478875,2.682
-0.007907001875234068,2.683
-0.009944167096515794,2.684
-0.011630829596333455,2.685
-0.012729146562898684,2.686
-0.013036790916180575,2.687
-0.012451460270321199,2.688
-0.01100855391506042,2.689
-0.008880977269457706,2.69
-0.006350807506932548,2.691
-0.003756167964279187,2.692
-0.0014232351407544952,2.693
0.0003890589572107872,2.694
0.0015161472623464887,2.695
0.0019008034870932682,2.696
0.0016014847031676992,2.697
0.0007824528434255552,2.698
-0.00031301889042919574,2.699
-0.0013911983372644286,2.7
-0.002153769355003178,2.701
-0.0023752147739340354,2.702
-0.001971509383765859,2.703
-0.0010044254794345539,2.704
0.00038667241610321413,2.705
0.0020725841388599337,2.706
0.003973887986028447,2.707
0.0060332610997931154,2.708
0.008155609089593235,2.709
0.010161025850334156,2.71
0.01176934954601212,2.711
0.012623669499783566,2.712
0.012372428162981612,2.713
0.010810078378112896,2.714
0.008011919342935573,2.715
0.004365344513567414,2.716
0.00046352782476924464,2.717
-0.00307410528126896,2.718
-0.0057621771211367155,2.719
-0.007339587304132585,2.72
-0.007785742849816073,2.721
-0.00727731179162461,2.722
-0.006098500560433839,2.723
-0.004533324844457465,2.724
-0.0028030737920637285,2.725
-0.0010817013360670577,2.726
0.00046812386708760834,2.727
0.0016996810328258507,2.728
0.0025047854846069898,2.729
0.0028122262428240717,2.73
0.0025828800833941523,2.731
0.0018345140569505382,2.732
0.0006702795710286935,2.733
-0.0007267576868167983,2.734
-0.002126296430135842,2.735
-0.003297194776706663,2.736
-0.004068341402266841,2.737
-0.004381938382674393,2.738
-0.004302297958452783,2.739
-0.003977270896619784,2.74
-0.00357803829963176,2.741
-0.0032377147918248063,2.742
-0.003015896095633785,2.743
-0.002916510513276915,2.744
-0.0029334328266016484,2.745
-0.0030690855841973954,2.746
-0.0033180819820593224,2.747
-0.0036439721294407906,2.748
-0.0039678650869185775,2.749
-0.004175302033109681,2.75
-0.004141478606531498,2.751
-0.0037667349572727787,2.752
-0.0030001825421181313,2.753
-0.0018349282890515342,2.754
-0.00028915859343193394,2.755
0.001602982327620311,2.756
0.003779514377093002,2.757
0.006121803155255891,2.758
0.008435450179104315,2.759
0.010467608387729437,2.76
0.011959373821095479,2.761
0.012710474389238315,2.762
0.012622607078116244,2.763
0.011707125682852544,2.764
0.010079393531017292,2.765
0.00794465675739081,2.766
0.00555177103254372,2.767
0.00313120817657411,2.768
0.0008586428154949888,2.769
-0.0011573075666139925,2.77
-0.0028779630088082964,2.771
-0.004321869300456245,2.772
-0.005541475554054975,2.773
-0.00659753114795918,2.774
-0.0075287060014817405,2.775
-0.00833620062981992,2.776
-0.008999928329708404,2.777
-0.009499730879610785,2.778
-0.009805076413690002,2.779
-0.009836724617924428,2.78
-0.009456253506565634,2.781
-0.008517103898093155,2.782
-0.006936015994305745,2.783
-0.0047406507865485024,2.784
-0.0020819721337910118,2.785
0.0007953581334188891,2.786
0.0036120029519645337,2.787
0.0061089414931354965,2.788
0.008070887077189285,2.789
0.009320060275327302,2.79
0.00972720960599198,2.791
0.009264520388066586,2.792
0.00804562492577153,2.793
0.00630093169083111,2.794
0.00430859332287678,2.795
0.0023248214045380367,2.796
0.0005312338136891147,2.797
-0.000992278375291858,2.798
-0.0022548858300721975,2.799
-0.0033046325230318948,2.8
-0.004168785622014748,2.801
-0.004822760394978605,2.802
-0.005214642628818469,2.803
-0.005327026554842702,2.804
-0.005211731909451744,2.805
-0.00495802123868225,2.806
-0.0046259798649253715,2.807
-0.0042021280389294615,2.808
-0.0036010167636618103,2.809
-0.0027082328747993164,2.81
-0.0014531521512047396,2.811
0.00013104130377231154,2.812
0.0019096252155626728,2.813
0.00368822822632593,2.814
0.005248575968143547,2.815
0.0063964091808808516,2.816
0.007020115832300746,2.817
0.007093847055137851,2.818
0.006623314350463662,2.819
0.005621514464943912,2.82
0.004145778252791218,2.821
0.0023338930596663613,2.822
0.00039198676801170245,2.823
-0.0014551873702905937,2.824
-0.0030136819386696588,2.825
-0.004140116947690864,2.826
-0.0047465558580898504,2.827
-0.004819356247610941,2.828
-0.004436359281582864,2.829
-0.0037430267266607997,2.83
-0.0028895237684507234,2.831
-0.0019748364401629874,2.832
-0.001033400871989984,2.833
-6.331031793725447e-05,2.834
0.0009227060585970156,2.835
0.0018472553515206254,2.836
0.0025533645981776687,2.837
0.0028486411418893027,2.838
0.002593169173368269,2.839
0.0017832624450392965,2.84
0.0005743170528663614,2.841
-0.0007770839361377947,2.842
-0.0020071172732905995,2.843
-0.002915378657290727,2.844
-0.0033902520696376874,2.845
-0.003401194752713391,2.846
-0.0029801552894955573,2.847
-0.002205283797920956,2.848
-0.0011950724972598957,2.849
-0.00010369783197970531,2.85
0.0009123684347810332,2.851
0.0017390004338228983,2.852
0.0023138079131110514,2.853
0.0026174703170241797,2.854
0.0026698254270241693,2.855
0.002502279799304518,2.856
0.002120782806006586,2.857
0.0015178143106170758,2.858
0.0007295633136275412,2.859
-0.00011975873928062665,2.86
-0.0008279666317050705,2.861
-0.0011820043456557468,2.862
-0.001043123365718533,2.863
-0.0003933969741556739,2.864
0.0006709599497107242,2.865
0.001969680845550813,2.866
0.0032712944892555156,2.867
0.0043260167702301395,2.868
0.004903199310802849,2.869
0.004831959169916233,2.87
0.004028114833678794,2.871
0.0025003262806976524,2.872
0.0003465870635469556,2.873
-0.002253925830109587,2.874
-0.0050640266664303815,2.875
-0.007827919765691112,2.876
-0.010303593725215705,2.877
-0.012270567563374525,2.878
-0.013519539893439288,2.879
-0.01384170820774284,2.88
-0.013053245942229631,2.881
-0.011080354465122934,2.882
-0.00804375807430001,2.883
-0.004247785539137725,2.884
-8.07371906715046e-05,2.885
0.004094753886838997,2.886
0.00800204946384267,2.887
0.011441458609584737,2.888
0.014249249253289789,2.889
0.016276995145133866,2.89
0.01740062415232579,2.891
0.017549764407601202,2.892
0.01673807632411105,2.893
0.015062349614015319,2.894
0.012667402792121175,2.895
0.00970950687391457,2.896
0.0063362416974703075,2.897
0.0026820620440671044,2.898
-0.0011163885212342511,2.899
-0.004900639568277273,2.9
-0.00849155676967947,2.901
-0.011706808097787678,2.902
-0.014375886718216675,2.903
-0.01634902181107207,2.904
-0.01751062638864975,2.905
-0.017795363831258765,2.906
-0.017194874213829873,2.907
-0.015762452793021076,2.908
-0.013618413375147744,2.909
-0.010936213019706209,2.91
-0.007908777912430295,2.911
-0.004720324927576784,2.912
-0.001531906022111554,2.913
0.0015264171284140725,2.914
0.004355010510594265,2.915
0.006879690906222152,2.916
0.009048977581249916,2.917
0.010824582607413903,2.918
0.012163920242590729,2.919
0.013012949090145949,2.92
0.013315425993710725,2.921
0.013024849587960229,2.922
0.012119047383176061,2.923
0.01062279593860533,2.924
0.008620530280850818,2.925
0.00625218511868228,2.926
0.003706382220536068,2.927
0.0012041037145308243,2.928
-0.0010444357957839208,2.929
-0.0028970811847301484,2.93
-0.0043127016860579955,2.931
-0.005339081101496648,2.932
-0.006068112218220468,2.933
-0.006576471652014966,2.934
-0.006877721204106713,2.935
-0.006923601407767071,2.936
-0.006657435511105361,2.937
-0.006067272059630805,2.938
-0.0051964803036673455,2.939
-0.004119261301479808,2.94
-0.0029016575433071326,2.941
-0.0015788831253502505,2.942
-0.0001790282212689981,2.943
0.0012263399395971172,2.944
0.0024982104340002605,2.945
0.003464730306647925,2.946
0.003989795590273915,2.947
0.004019963438373031,2.948
0.003588646151080733,2.949
0.002794731348957343,2.95
0.0017745929342978413,2.951
0.0006784498356888656,2.952
-0.0003499814862907932,2.953
-0.001196064372666025,2.954
-0.0017894218130486297,2.955
-0.0020947029770961413,2.956
-0.002083214768684017,2.957
-0.001721072569752022,2.958
-0.00099989000496328,2.959
1.4823185074399562e-05,2.96
0.001163592842398482,2.961
0.0022191813238753148,2.962
0.0029511243178503453,2.963
0.003200564707884933,2.964
0.002921573078242881,2.965
0.002165210771474981,2.966
0.0010288917843697153,2.967
-0.0003750371070033738,2.968
-0.001899566114767902,2.969
-0.003330972695942253,2.97
-0.004415538761305919,2.971
-0.004946864872320021,2.972
-0.004841690474115762,2.973
-0.004160373172023782,2.974
-0.0030896768730901613,2.975
-0.0019024958669766384,2.976
-0.0008813521055377935,2.977
-0.00021939673854299283,2.978
3.9213040319043154e-05,2.979
-2.107904559899056e-05,2.98
-0.0002534800404583083,2.981
-0.0005048063407994429,2.982
-0.0006496936381253926,2.983
-0.0006126601855004823,2.984
-0.0003739089037988473,2.985
3.716952430980096e-05,2.986
0.0005447919696921816,2.987
0.0010281487563826856,2.988
0.001340530294731291,2.989
0.0013582685470348737,2.99
0.0010420992585804551,2.991
0.0004654291795618087,2.992
-0.00021126616310755708,2.993
-0.0007978265963141686,2.994
-0.001137299278211788,2.995
-0.0011488404354335644,2.996
-0.000829534188250566,2.997
-0.00023246777227700356,2.998
0.0005471731476702484,2.999
0.0013867953276963222,3.0
0.0021640221203306736,3.001
0.0027757306353882434,3.002
0.0031411958735506665,3.003
0.0032065150945181638,3.004
0.0029599672242124346,3.005
0.002445322593930198,3.006
0.001756129707032791,3.007
0.0010251709421425271,3.008
0.000416325910375206,3.009
9.237995597339514e-05,3.01
0.0001539355135808882,3.011
0.0005871725705806881,3.012
0.0012689178406836293,3.013
0.0020333219229918586,3.014
0.002744183317140116,3.015
0.0033223424572922837,3.016
0.0037284269139487005,3.017
0.00393281357801841,3.018
0.003897929903051849,3.019
0.0035750334804966854,3.02
0.002914678696899418,3.021
0.0018968826146646743,3.022
0.0005713748134801092,3.023
-0.0009263771191328522,3.024
-0.0024047716202877847,3.025
-0.0036657921748420213,3.026
-0.004542163639641114,3.027
-0.0049242067981527795,3.028
-0.00478089098750039,3.029
-0.004162075504559097,3.03
-0.0031851853432896256,3.031
-0.0020309299102447653,3.032
-0.0009467781059388253,3.033
-0.00022158701170122265,3.034
-0.00011252737108640923,3.035
-0.00074736506926243,3.036
-0.0020563099445415492,3.037
-0.003789557899548437,3.038
-0.005628399743122558,3.039
-0.007324535531495311,3.04
-0.00876889707054791,3.041
-0.009954713453183169,3.042
-0.010888419165728606,3.043
-0.011523135597896816,3.044
-0.011755362105940489,3.045
-0.011460967781804705,3.046
-0.010532216752297556,3.047
-0.008927800764084358,3.048
-0.006731721711611357,3.049
-0.004159294160861171,3.05
-0.0014849909419481643,3.051
0.0010520999625076995,3.052
0.003310863896541458,3.053
0.005276769617896637,3.054
0.007059197797043323,3.055
0.008844019019409914,3.056
0.010814662142366904,3.057
0.013081950564910945,3.058
0.015636869171417104,3.059
0.01831585761801049,3.06
0.02079977379122269,3.061
0.022685933927291714,3.062
0.023611835845505778,3.063
0.023346498851440023,3.064
0.02180289613624288,3.065
0.019013861443762905,3.066
0.01512570919193602,3.067
0.010396886118311572,3.068
0.005164978765941502,3.069
-0.00020315462806341512,3.07
-0.005343770682118464,3.071
-0.009923094699281586,3.072
-0.01368520177599541,3.073
-0.01650165451230219,3.074
-0.018383333041938753,3.075
-0.01944256574550574,3.076
-0.01981876054979085,3.077
-0.019606860416231872,3.078
-0.01884282976838265,3.079
-0.017550435188839444,3.08
-0.015784782418760822,3.081
-0.013623922023720939,3.082
-0.011137564896016515,3.083
-0.008381770521464655,3.084
-0.005414952148595963,3.085
-0.002303184572871862,3.086
0.0008756343798002979,3.087
0.0040046240773934875,3.088
0.0069109832239303655,3.089
0.009393571864005648,3.09
0.01126040476732033,3.091
0.012344618884484052,3.092
0.012527903668190028,3.093
0.011789756767706558,3.094
0.010245364368090945,3.095
0.008133971237204668,3.096
0.00575136048074096,3.097
0.0033554405866638116,3.098
0.0011019026778166352,3.099
-0.0009538857942193247,3.1
-0.0028043867979245687,3.101
-0.00443604815264059,3.102
-0.005809511598515152,3.103
-0.006871405908957974,3.104
-0.007574956104184669,3.105
-0.007888681511348104,3.106
-0.007796366854568316,3.107
-0.0073011523316211056,3.108
-0.006426944176166679,3.109
-0.005213429978648141,3.11
-0.003718549483492358,3.111
-0.0020287811304826042,3.112
-0.00025931129773770474,3.113
0.0014597847200981827,3.114
0.002992851279131237,3.115
0.004198775089666592,3.116
0.00494867395418162,3.117
0.005171685696244453,3.118
0.004895455300020852,3.119
0.00424749488148943,3.12
0.003411174172188752,3.121
0.002558954041968311,3.122
0.0018115772002033454,3.123
0.0012434954863704123,3.124
0.0009026466376826569,3.125
0.0008247913016776009,3.126
0.0010490060003685141,3.127
0.001617157686952942,3.128
0.002530997587389678,3.129
0.0036931714536877686,3.13
0.004893310692780934,3.131
0.005861629951144482,3.132
0.006353506180106338,3.133
0.006214100801325898,3.134
0.005407511401160142,3.135
0.004015943497612282,3.136
0.0022144379890862635,3.137
0.00024258542032471386,3.138
-0.0016154929551624316,3.139
-0.003069095675168289,3.14
-0.0039012318147794195,3.141
-0.004064980170916797,3.142
-0.003733422129107217,3.143
-0.003265109829952605,3.144
-0.0031013247532322608,3.145
-0.003645444606474852,3.146
-0.005161526099672569,3.147
-0.007684629778882036,3.148
-0.010940041496894874,3.149
-0.014334267066981264,3.15
-0.017075975072554407,3.151
-0.018377101573076936,3.152
-0.017629932645773203,3.153
-0.014521966932953158,3.154
-0.009108404979096636,3.155
-0.001839084681556746,3.156
0.0064790573605902225,3.157
0.01477716249454158,3.158
0.02186106911475714,3.159
0.026589697048345004,3.16
0.028100650652140863,3.161
0.026048264345474297,3.162
0.020763086213376056,3.163
0.013239855144222563,3.164
0.004930549438425412,3.165
-0.0025973252169281176,3.166
-0.008041913954390701,3.167
-0.010683894445607425,3.168
-0.010527296906119504,3.169
-0.00819939806917733,3.17
-0.004672786633907375,3.171
-0.0009703976963855532,3.172
0.0020432879205575733,3.173
0.003791767762393782,3.174
0.0040486356437311926,3.175
0.0029126281320642333,3.176
0.0007048258755878243,3.177
-0.002159706130439237,3.178
-0.005276755668373399,3.179
-0.008309246736566031,3.18
-0.010991566040375366,3.181
-0.013109694725854186,3.182
-0.01448775414037833,3.183
-0.014983848908737522,3.184
-0.014493089569128124,3.185
-0.012964771380175604,3.186
-0.010428676438487461,3.187
-0.007012930071315367,3.188
-0.0029528160345156235,3.189
0.0014026214773022003,3.19
0.005613123905422317,3.191
0.009234898500900032,3.192
0.011937527783054373,3.193
0.013564832526845453,3.194
0.014126543549504147,3.195
0.013767683407857024,3.196
0.012723070070088667,3.197
0.011249603529058854,3.198
0.009561814717644527,3.199
0.007800217277871435,3.2
0.006043038818358762,3.201
0.004348177000089664,3.202
0.0027932761950210587,3.203
0.001480380729660944,3.204
0.0004905359630667605,3.205
-0.0001796357846646832,3.206
-0.0006381227925936605,3.207
-0.0010541311779707835,3.208
-0.0015884138915007308,3.209
-0.0023431400479683125,3.21
-0.0033478757139828517,3.211
-0.004566470891363741,3.212
-0.005909005178680566,3.213
-0.007246568390164389,3.214
-0.008420716284698601,3.215
-0.009247512201283215,3.216
-0.00953983592953127,3.217
-0.00916266829717191,3.218
-0.008086878931473798,3.219
-0.006384942876806158,3.22
-0.004183569143765658,3.221
-0.0016383641948670956,3.222
0.00107423357576186,3.223
0.0037906530766892432,3.224
0.006409827702617134,3.225
0.00891593220062753,3.226
0.01132794651837496,3.227
0.013573352431926722,3.228
0.0153727787119671,3.229
0.016229658208791232,3.23
0.01553112758172676,3.231
0.012708621302788055,3.232
0.007424667877244274,3.233
-0.0002290093634726746,3.234
-0.009581206547762473,3.235
-0.019385396157529128,3.236
-0.02804641246414363,3.237
-0.03402032255798398,3.238
-0.03623633834014749,3.239
-0.03438216911546986,3.24
-0.028947171851833254,3.241
-0.020995189750386854,3.242
-0.01177650540418996,3.243
-0.002379837231452801,3.244
0.006444753130726743,3.245
0.0142755106761472,3.246
0.020877795424630415,3.247
0.026034576038310074,3.248
0.02944513799655628,3.249
0.030750640343664547,3.25
0.029702327724114935,3.251
0.02639097363639128,3.252
0.021358949479234723,3.253
0.015490947124484252,3.254
0.00975080744721453,3.255
0.004880605763938983,3.256
0.0011563922238184378,3.257
-0.0016771665424285302,3.258
-0.0042091061074482185,3.259
-0.006995135752895338,3.26
-0.010232754196416616,3.261
-0.01363103915476254,3.262
-0.016517875718145128,3.263
-0.018126558357398962,3.264
-0.017920896587815347,3.265
-0.015811247964935018,3.266
-0.012175309622115467,3.267
-0.007697680332429714,3.268
-0.0031442309243432075,3.269
0.0008075833573310451,3.27
0.0036622384504603326,3.271
0.005162767107089724,3.272
0.005311834582877756,3.273
0.0043325637387554815,3.274
0.0025815270345441823,3.275
0.0004715757715166165,3.276
-0.0015559701874678662,3.277
-0.0030461022320146507,3.278
-0.0035939189615994726,3.279
-0.0029512838998096854,3.28
-0.001100979432601786,3.281
0.0017521658346091999,3.282
0.0052409525590850605,3.283
0.008886591237078065,3.284
0.012134230849477077,3.285
0.014421782935934909,3.286
0.015314434009760357,3.287
0.014670410468988117,3.288
0.01274275051306576,3.289
0.01011393713909076,3.29
0.007443678707048693,3.291
0.005127268933344115,3.292
0.003032903082879082,3.293
0.0005030302862335857,3.294
-0.0032801290632754436,3.295
-0.008709235025316358,3.296
-0.015324751192422733,3.297
-0.021861133876292592,3.298
-0.026765152746479913,3.299
-0.02886644679984891,3.3
-0.027780115150982557,3.301
-0.023892171692190992,3.302
-0.018100191321497306,3.303
-0.011490988806212877,3.304
-0.005047004394243223,3.305
0.0005451805215506476,3.306
0.004951639944116026,3.307
0.008149614406112116,3.308
0.010340921961103084,3.309
0.011837126639939563,3.31
0.01293671449251754,3.311
0.013826174065720183,3.312
0.014514793058537413,3.313
0.014823041527946609,3.314
0.01444397166114534,3.315
0.013054848344255417,3.316
0.010446032080370662,3.317
0.006637807029700592,3.318
0.0019436868531618608,3.319
-0.003047967507586118,3.32
-0.007596641547961042,3.321
-0.011044638739870912,3.322
-0.01305811948004894,3.323
-0.013698354734303307,3.324
-0.013275760762042415,3.325
-0.012112710449435791,3.326
-0.010378787802947691,3.327
-0.00805839100530982,3.328
-0.005005133365448852,3.329
-0.0010429398114274997,3.33
0.0039008494644417035,3.331
0.00967654683919137,3.332
0.015860770532577066,3.333
0.021794532566299055,3.334
0.026708779073316594,3.335
0.029897255896161018,3.336
0.030874111789770852,3.337
0.02946552174505992,3.338
0.025793327407427378,3.339
0.020146594359995613,3.34
0.012809407105717084,3.341
0.003982861200059704,3.342
-0.006087317758787946,3.343
-0.01686545964727625,3.344
-0.027411745487871675,3.345
-0.03652715635316347,3.346
-0.04303162448140875,3.347
-0.04597853388019297,3.348
-0.04475875619254241,3.349
-0.03921107588271771,3.35
-0.02981572960988567,3.351
-0.01780732955017282,3.352
-0.004979690465190992,3.353
0.006771599462234927,3.354
0.015905811850553942,3.355
0.021501556183576423,3.356
0.0233074747730836,3.357
0.021650413652955648,3.358
0.017286878293720102,3.359
0.01125987870942917,3.36
0.004765603987063589,3.361
-0.0010106309239669036,3.362
-0.005092037405857333,3.363
-0.006900400869390617,3.364
-0.006399046275408266,3.365
-0.004110329303316274,3.366
-0.0009244285818171152,3.367
0.002236351496645018,3.368
0.0047147030486484045,3.369
0.0062629486622964034,3.37
0.007014814274105224,3.371
0.007309838403199396,3.372
0.007473870349901708,3.373
0.007680686689175626,3.374
0.007949289426244911,3.375
0.008246835292982148,3.376
0.008592914690152062,3.377
0.009064102421735182,3.378
0.009684311052080194,3.379
0.010270935878202823,3.38
0.010368707171186521,3.381
0.009370009002463726,3.382
0.006770048344979057,3.383
0.002407921331766771,3.384
-0.0034236137829056325,3.385
-0.010024110069110592,3.386
-0.01641658786534562,3.387
-0.021458317566450585,3.388
-0.02392694041253488,3.389
-0.022728190434233794,3.39
-0.01731725765761179,3.391
-0.008176250610058909,3.392
0.0029922676371469626,3.393
0.013611182018074033,3.394
0.02099352097409842,3.395
0.023124110387244566,3.396
0.019202091027877972,3.397
0.009900433874210903,3.398
-0.002723481194420026,3.399
-0.015729579929748817,3.4
-0.02608865087075395,3.401
-0.031433102636197065,3.402
-0.030464250920807786,3.403
-0.023053838688148212,3.404
-0.01027440272770091,3.405
0.005603783173210897,3.406
0.021375622011914192,3.407
0.033572181145419676,3.408
0.039318671289962005,3.409
0.0370462365826014,3.41
0.02694080298081691,3.411
0.011055175695946459,3.412
-0.0071025949498193745,3.413
-0.023551381831056904,3.414
-0.03503474913905427,3.415
-0.03984797993635743,3.416
-0.037980407475080843,3.417
-0.03073171005068243,3.418
-0.020106794236286203,3.419
-0.008219637550022805,3.42
0.003074585420245765,3.421
0.012245221605282651,3.422
0.018055221177003377,3.423
0.019685208558438107,3.424
0.017033126854966815,3.425
0.010984677420434652,3.426
0.0034308866706830718,3.427
-0.0030850313305070213,3.428
-0.006077108054513376,3.429
-0.0039876509741672075,3.43
0.003103710337257275,3.431
0.013288081523604493,3.432
0.023381346851926554,3.433
0.030058927651131943,3.434
0.03106428218783401,3.435
0.026012376843500853,3.436
0.016520256031312484,3.437
0.005594082299899439,3.438
-0.0035663699536383825,3.439
-0.008870774851814159,3.44
-0.010087582889240623,3.441
-0.00865335872050734,3.442
-0.006761588501920678,3.443
-0.006317299202639017,3.444
-0.008244941139904012,3.445
-0.012335924937850046,3.446
-0.017539086139911887,3.447
-0.02243024318146251,3.448
-0.025646854376715326,3.449
-0.026233885729827974,3.45
-0.02387358296453386,3.451
-0.01891324969353172,3.452
-0.012184942908556713,3.453
-0.004741463699019051,3.454
0.002377871038917311,3.455
0.008303391816779814,3.456
0.012406296221012456,3.457
0.014341490309959968,3.458
0.014120448001695133,3.459
0.012150822201125492,3.46
0.009129041645104842,3.461
0.005836896395971456,3.462
0.003000943259243227,3.463
0.0012192711620336919,3.464
0.000869129771762088,3.465
0.0020460555455392598,3.466
0.004617093365782745,3.467
0.00832502549885985,3.468
0.012821240144305362,3.469
0.017607863800822028,3.47
0.022001102465119753,3.471
0.025181595533173774,3.472
0.026252562584851164,3.473
0.024278904139554257,3.474
0.01841993229364472,3.475
0.008243378663399213,3.476
-0.005811851400045557,3.477
-0.02201272778427806,3.478
-0.03730750737581766,3.479
-0.04796197666212152,3.48
-0.050734488437304194,3.481
-0.04413601926705423,3.482
-0.029159636875504356,3.483
-0.009078656458444865,3.484
0.011505661592950151,3.485
0.0278904244803516,3.486
0.036428623687497844,3.487
0.03542009717982503,3.488
0.025582476204729067,3.489
0.009956537827960556,3.49
-0.006814388198174245,3.491
-0.019728641440275724,3.492
-0.024967521300489178,3.493
-0.021253453724448052,3.494
-0.010316649253935828,3.495
0.0038165519311844295,3.496
0.016246820384980848,3.497
0.022675360925615035,3.498
0.020547108918177882,3.499
0.009711400631916275,3.5
-0.007467032533761957,3.501
-0.026623592835732988,3.502
-0.04261763885418603,3.503
-0.051205382264480924,3.504
-0.05033692520961378,3.505
-0.0403707373518942,3.506
-0.023389513451022456,3.507
-0.002313987266705113,3.508
0.01974254830715207,3.509
0.03980924352001695,3.51
0.05521761205740258,3.511
0.06376868296159395,3.512
0.0639965518873562,3.513
0.05554091745469311,3.514
0.03953051359713847,3.515
0.018699126302477567,3.516
-0.0030244496043136055,3.517
-0.021424661040692197,3.518
-0.03308492202575661,3.519
-0.036242113600260986,3.52
-0.031140380320136538,3.521
-0.01985788109948499,3.522
-0.0057767670590246735,3.523
0.007130242261810882,3.524
0.015199417001341954,3.525
0.016160243566681793,3.526
0.01004715854931594,3.527
-0.0006699734575250629,3.528
-0.012048706741357862,3.529
-0.020361412315676248,3.53
-0.02358222093318232,3.531
-0.021829357002215267,3.532
-0.016691946645723103,3.533
-0.010108710546167009,3.534
-0.0035386137294916233,3.535
0.0022908505628078213,3.536
0.00723742020188735,3.537
0.011424902516900124,3.538
0.01482979941219861,3.539
0.016967317270359297,3.54
0.01694238935768917,3.541
0.01387466024571509,3.542
0.00744373085528487,3.543
-0.0017463867753230707,3.544
-0.012181134711758506,3.545
-0.021857154163712752,3.546
-0.02891114306525519,3.547
-0.03211221386991539,3.548
-0.031053534886616486,3.549
-0.026132218822740274,3.55
-0.01837215299035522,3.551
-0.009072963551899226,3.552
0.0005801396558913208,3.553
0.009735708469830857,3.554
0.0178726681300248,3.555
0.024650807234151948,3.556
0.029716132488246325,3.557
0.03259075804553059,3.558
0.03274389026045346,3.559
0.029848796323038933,3.56
0.02419129854008609,3.561
0.01705720002167714,3.562
0.01065152837877727,3.563
0.0072313214389240175,3.564
0.007901632739282365,3.565
0.0120400257650336,3.566
0.017747278276408724,3.567
0.022788117109547586,3.568
0.025368042772250604,3.569
0.024514514955822176,3.57
0.020012488758493777,3.571
0.01196535428915501,3.572
0.00033908448894814187,3.573
-0.015047947105063792,3.574
-0.033953103696186725,3.575
-0.0549257926644886,3.576
-0.07496251456124717,3.577
-0.09002601948109695,3.578
-0.09625299187447824,3.579
-0.09137162543082128,3.58
-0.0757936434468287,3.581
-0.05263504291739903,3.582
-0.02640715813489178,3.583
-0.0012741166535163169,3.584
0.02005185612824311,3.585
0.03652775816326537,3.586
0.04840433389071911,3.587
0.05660596990344372,3.588
0.062127306822755635,3.589
0.06562213880768153,3.59
0.06725037546101668,3.591
0.06671065804766076,3.592
0.06337281750893436,3.593
0.05654293989944151,3.594
0.0458980061913493,3.595
0.031898704121593416,3.596
0.01582428696574294,3.597
-0.0006676263254719558,3.598
-0.016085221910326044,3.599
-0.029347567325017247,3.6
-0.03975638188429979,3.601
-0.046906295557510615,3.602
-0.05051209196298786,3.603
-0.050118182941186556,3.604
-0.045058451526899794,3.605
-0.035058589403372406,3.606
-0.021152530921984266,3.607
-0.0060304237918070245,3.608
0.006685523013758736,3.609
0.01387402532401326,3.61
0.014199312615798992,3.611
0.008563228119579774,3.612
-0.00042921485430743564,3.613
-0.009646125016099565,3.614
-0.016618776964719275,3.615
-0.020217584679044224,3.616
-0.02065595210029912,3.617
-0.018898805677451766,3.618
-0.015765148561072407,3.619
-0.01131173762754071,3.62
-0.004930679015036347,3.621
0.004009358861342873,3.622
0.015468119514744095,3.623
0.028351540288880962,3.624
0.040611267500278644,3.625
0.049794133167046985,3.626
0.05376881074528924,3.627
0.05128305488930052,3.628
0.04218870764216763,3.629
0.027390991114092562,3.63
0.00868876848760734,3.631
-0.011389843275056592,3.632
-0.029904797008679762,3.633
-0.044135020653170355,3.634
-0.05224524274223605,3.635
-0.053558602847492295,3.636
-0.048443639891233584,3.637
-0.03811765184996998,3.638
-0.024470167540758613,3.639
-0.009717852205113625,3.64
0.004158300021148361,3.641
0.015813158806990208,3.642
0.02450756983382434,3.643
0.02992649657999771,3.644
0.03219145253614237,3.645
0.03197281677078446,3.646
0.03032821740196505,3.647
0.02812170491791333,3.648
0.02538399063062889,3.649
0.021250068508048347,3.65
0.014710173386107674,3.651
0.005605611743290165,3.652
-0.004922777816654961,3.653
-0.014789166438135555,3.654
-0.021801483454910106,3.655
-0.02447797666196517,3.656
-0.02251370579582848,3.657
-0.016773148234499626,3.658
-0.008813690469550117,3.659
-0.00019308932052357314,3.66
0.008021384739869119,3.661
0.015206557514166373,3.662
0.020675485121406562,3.663
0.02335716799578027,3.664
0.022085679133358425,3.665
0.01601877224277911,3.666
0.004772013221460787,3.667
-0.011225869316546852,3.668
-0.0298885567433901,3.669
-0.04722859413746331,3.67
-0.05881105117529155,3.671
-0.06201986493130985,3.672
-0.05705299540955289,3.673
-0.046029970501726844,3.674
-0.031547992853829324,3.675
-0.015946550841274165,3.676
-0.0012882684873537296,3.677
0.01053554088760563,3.678
0.017958109301556988,3.679
0.020201337690768886,3.68
0.01784175220513627,3.681
0.013043815186407572,3.682
0.009088995155379939,3.683
0.009199257206432181,3.684
0.015129168021372189,3.685
0.02631064153824967,3.686
0.040004278605677915,3.687
0.05219316390994431,3.688
0.058712466645118366,3.689
0.056367379846722965,3.69
0.04396923503479387,3.691
0.02313604461610756,3.692
-0.0015147595407157797,3.693
-0.02325182071322646,3.694
-0.03524652974490088,3.695
-0.032991925976608875,3.696
-0.01607384414828173,3.697
0.011380346894031284,3.698
0.041654418482813156,3.699
0.06536601167019669,3.7
0.07386219643800487,3.701
0.061860143171033215,3.702
0.029815525888070026,3.703
-0.015221253764445287,3.704
-0.06146403009683527,3.705
-0.09689107521139952,3.706
-0.11425959403733427,3.707
-0.11338904498902043,3.708
-0.09936571226887639,3.709
-0.07869804550224382,3.71
-0.05632366386326166,3.711
-0.03465199215003108,3.712
-0.0142375096131424,3.713
0.005001204180876363,3.714
0.02296625181217117,3.715
0.039098558832663485,3.716
0.05236174396027434,3.717
0.061517676488544046,3.718
0.06565543530773771,3.719
0.06454300912334475,3.72
0.058473422202816795,3.721
0.04779332448220314,3.722
0.03272362407860993,3.723
0.013863087861536776,3.724
-0.007109358367983443,3.725
-0.02742301157304054,3.726
-0.04411666654223023,3.727
-0.05521653503912193,3.728
-0.06031297172595016,3.729
-0.06003418280313688,3.73
-0.05479728137535066,3.731
-0.04399008130224123,3.732
-0.026377534225204804,3.733
-0.0014572667412318864,3.734
0.029084764906898677,3.735
0.060747548561093365,3.736
0.08698761837463609,3.737
0.10102910327893139,3.738
0.09794084003016103,3.739
0.07666265041482613,3.74
0.04151245113983025,3.741
0.001788888784771542,3.742
-0.03157515710092463,3.743
-0.050751638527597745,3.744
-0.05357927497112328,3.745
-0.04242468889098958,3.746
-0.021572210362246592,3.747
0.004261997538930168,3.748
0.030063930560119752,3.749
0.05030869733895835,3.75
0.05929404860326194,3.751
0.052599888805789835,3.752
0.029270451162433337,3.753
-0.0067359944111766165,3.754
-0.04710439106622412,3.755
-0.08182661342204549,3.756
-0.10270875906080608,3.757
-0.10586822049735176,3.758
-0.0922302088096955,3.759
-0.06644832608535799,3.76
-0.035184865068690875,3.761
-0.005267336183985367,3.762
0.017979364795606096,3.763
0.03174185438203176,3.764
0.0357505071251325,3.765
0.031531512731827,3.766
0.02148637252215377,3.767
0.008406450167631483,3.768
-0.004587337916076952,3.769
-0.014267734888045907,3.77
-0.01798106276128287,3.771
-0.014467964199773895,3.772
-0.004312867995183857,3.773
0.010379886880935617,3.774
0.02694295339745037,3.775
0.04294508376279752,3.776
0.05621980437586273,3.777
0.06440294767356045,3.778
0.06497366688450795,3.779
0.056502506080700746,3.78
0.04040175396090677,3.781
0.021328912544831335,3.782
0.005117814915499132,3.783
-0.004598081286194612,3.784
-0.008493860860872057,3.785
-0.010922422081635,3.786
-0.017165008273412077,3.787
-0.03017373741989329,3.788
-0.04832979135221582,3.789
-0.06538028179933135,3.79
-0.0729851858185705,3.791
-0.06484158425680599,3.792
-0.04017336737315438,3.793
-0.004800767504155784,3.794
0.0306565721525144,3.795
0.054794727951989725,3.796
0.060118558097703834,3.797
0.04637849634522311,3.798
0.020774357232523917,3.799
-0.005693548635668023,3.8
-0.02412499285175506,3.801
-0.03185783960303977,3.802
-0.031790605137733255,3.803
-0.028259092412188807,3.804
-0.023668797480663258,3.805
-0.018399886548227058,3.806
-0.012723270852585336,3.807
-0.007797301530279743,3.808
-0.00483111640653039,3.809
-0.0038485245870885938,3.81
-0.003359392177655685,3.811
-0.0011693367658425873,3.812
0.0043078263935090785,3.813
0.01343472314991822,3.814
0.025888207097287053,3.815
0.04126270630604038,3.816
0.058545188985790295,3.817
0.07492743910493127,3.818
0.08551372937010557,3.819
0.08459626374123247,3.82
0.06793230437305496,3.821
0.03513202698775018,3.822
-0.008987620148369119,3.823
-0.05519470637447118,3.824
-0.09285863247835623,3.825
-0.1139943279540018,3.826
-0.11621307844001258,3.827
-0.10263405903229367,3.828
-0.0789738975010284,3.829
-0.0503708025972671,3.83
-0.020223756793429068,3.831
0.009042989518952074,3.832
0.03504117548994624,3.833
0.05543326409780852,3.834
0.06838258995965299,3.835
0.07273390597256855,3.836
0.06808491675405898,3.837
0.05493426654351111,3.838
0.03500126996977569,3.839
0.0118929879961655,3.84
-0.008754565762587664,3.841
-0.021189848959166185,3.842
-0.022979174853841024,3.843
-0.016857101858362315,3.844
-0.008978502412733262,3.845
-0.0051762876259166535,3.846
-0.008021919368837893,3.847
-0.015972359974973763,3.848
-0.02468323196417545,3.849
-0.02966245324270677,3.85
-0.02851494658834088,3.851
-0.021494664616044972,3.852
-0.010595692717747754,3.853
0.0016936379149063412,3.854
0.01302116360827034,3.855
0.02105261725560397,3.856
0.023359576990134405,3.857
0.018198720940663528,3.858
0.0061329444044895855,3.859
-0.008852667034649672,3.86
-0.020592621703049062,3.861
-0.024537553235307076,3.862
-0.021101553387000063,3.863
-0.015188362808073305,3.864
-0.012397646428896184,3.865
-0.01532077459581725,3.866
-0.02231946805356885,3.867
-0.02879402810839279,3.868
-0.02960074522583477,3.869
-0.021236479300491475,3.87
-0.002931265615879226,3.871
0.02348669043143037,3.872
0.05438757436516246,3.873
0.08522702011171136,3.874
0.11128089242713342,3.875
0.12813964375691733,3.876
0.13228060398044003,3.877
0.12201342579503899,3.878
0.09822003283461184,3.879
0.06414617117187069,3.88
0.024419313885172985,3.881
