VaMe,time
-0.0009300295753415324,0.001
0.010494543095030895,0.002
0.019790518777818303,0.003
0.025268356016263434,0.004
0.026039616080202187,0.005
0.022387767751669566,0.006
0.015694547899946815,0.007
0.007621074461761918,0.008
-0.0009515999758192662,0.009
-0.010193537330552638,0.01
-0.020465439433305203,0.011
-0.031172277946562743,0.012
-0.04049231330352728,0.013
-0.046318286645520415,0.014
-0.04752836412228403,0.015
-0.04436928840285516,0.016
-0.037890402168050015,0.017
-0.029341814691293943,0.018
-0.0198481318402921,0.019
-0.010013228071066955,0.02
0.00046644043869098267,0.021
0.012711816375722015,0.022
0.02786541735996521,0.023
0.04582668433355627,0.024
0.0641375308819155,0.025
0.07775727211552683,0.026
0.08028416302487018,0.027
0.06659240579067201,0.028
0.03593129489636695,0.029
-0.006180119612368662,0.03
-0.04885884875087264,0.031
-0.07989762416377992,0.032
-0.09096999782710281,0.033
-0.08066135759382921,0.034
-0.053738483102459635,0.035
-0.018227823752293832,0.036
0.01727505235434954,0.037
0.04530806388966165,0.038
0.06087658144090027,0.039
0.06257183760235162,0.04
0.0527501112395567,0.041
0.03634727435133809,0.042
0.018884430698164395,0.043
0.004862250833138962,0.044
-0.0028336315652435808,0.045
-0.0032432234865636483,0.046
0.0020729478135007736,0.047
0.009091340174328506,0.048
0.012917395947991057,0.049
0.010066572118397408,0.05
-0.00010454807348510123,0.051
-0.015388210844762322,0.052
-0.03167767372697863,0.053
-0.044230314798784545,0.054
-0.049069041078236446,0.055
-0.04451540406179701,0.056
-0.03214146100434163,0.057
-0.01618902506966789,0.058
-0.0016430852800926024,0.059
0.007747257779588727,0.06
0.010477580075431741,0.061
0.0072705982203675424,0.062
0.00043254694628238493,0.063
-0.007067154960658522,0.064
-0.012476444266643719,0.065
-0.013876365260055725,0.066
-0.010607665138652283,0.067
-0.0035781060945041187,0.068
0.004894600198596962,0.069
0.011908700178650903,0.07
0.01500304945327177,0.071
0.012914413260551453,0.072
0.006035113704682788,0.073
-0.003519650635259849,0.074
-0.012491234650272976,0.075
-0.017713942265579825,0.076
-0.017405029004906248,0.077
-0.011580664851859598,0.078
-0.0014597916245111381,0.079
0.011314857855071627,0.08
0.025052512079454598,0.081
0.03809513925536062,0.082
0.04882232119249693,0.083
0.055622782384393325,0.084
0.05684744303581694,0.085
0.05094533295648551,0.086
0.037033709791697934,0.087
0.015791156097174165,0.088
-0.009852665499425841,0.089
-0.03489188589817737,0.09
-0.05362639091726523,0.091
-0.06169231453190409,0.092
-0.057560867294435054,0.093
-0.04289020677924484,0.094
-0.02188352365532281,0.095
6.503727231102202e-05,0.096
0.01799758879866495,0.097
0.028739767576094723,0.098
0.03164366237865701,0.099
0.028480719571586623,0.1
0.022344867344728476,0.101
0.01595164239805683,0.102
0.010275498401753716,0.103
0.004461225135510434,0.104
-0.002870207846536611,0.105
-0.011978009556065643,0.106
-0.021479223227373098,0.107
-0.02930329129320665,0.108
-0.03399625481496414,0.109
-0.035193872346965506,0.11
-0.03324193661956928,0.111
-0.028708904231771734,0.112
-0.022257559749298036,0.113
-0.014671812062382033,0.114
-0.0067271717909957954,0.115
0.0009587336530786676,0.116
0.007856078992853911,0.117
0.013424661550755935,0.118
0.01733146359680332,0.119
0.019864621884774097,0.12
0.02200948983078792,0.121
0.024946533683096645,0.122
0.029396623854908037,0.123
0.03522896417801221,0.124
0.04113662177686803,0.125
0.04437586165967755,0.126
0.04146446753424413,0.127
0.030237364773154054,0.128
0.011712268368959096,0.129
-0.010101273240092641,0.13
-0.030173038305326444,0.131
-0.04442422779335495,0.132
-0.05063451388394503,0.133
-0.048382635213620975,0.134
-0.038539197598536454,0.135
-0.022883180242823983,0.136
-0.004095355482390491,0.137
0.0142588453564893,0.138
0.028293565729717144,0.139
0.0349052563880158,0.14
0.032879218952251286,0.141
0.023422018906989625,0.142
0.009772966219196414,0.143
-0.004178148598166364,0.144
-0.015671947789221263,0.145
-0.02395237866076472,0.146
-0.029563163159191816,0.147
-0.03296044722758151,0.148
-0.03387213867997876,0.149
-0.03188276370197763,0.15
-0.02730370361418712,0.151
-0.021238214629522637,0.152
-0.015033591763541557,0.153
-0.009754412484809231,0.154
-0.0057310021413192165,0.155
-0.0022766773985548033,0.156
0.002111123549484304,0.157
0.00900799022832157,0.158
0.019022423559322134,0.159
0.030992454517981636,0.16
0.042050901771324055,0.161
0.048606066241606856,0.162
0.047589914991298894,0.163
0.037470153232575035,0.164
0.01898827001670287,0.165
-0.00447663681119544,0.166
-0.027337234197804032,0.167
-0.04339000578560487,0.168
-0.04818387884464692,0.169
-0.04081175818231579,0.17
-0.023928688607442794,0.171
-0.00226586742148596,0.172
0.019106264562777274,0.173
0.03598865346089264,0.174
0.04569814956965636,0.175
0.047232865404045504,0.176
0.04101963059901779,0.177
0.02844913141405524,0.178
0.011490293652925924,0.179
-0.00749840588222929,0.18
-0.025921704038890585,0.181
-0.04125821917615761,0.182
-0.051497516748959145,0.183
-0.05550374421909396,0.184
-0.05311319034330359,0.185
-0.044909074405637635,0.186
-0.031802553083590104,0.187
-0.014662839396722603,0.188
0.005728723258924542,0.189
0.028229233504241884,0.19
0.0506433847756605,0.191
0.069524987025964,0.192
0.08093167475136066,0.193
0.08169833640820037,0.194
0.0704907851521191,0.195
0.04834311676702168,0.196
0.018668318728693758,0.197
-0.013290943491194186,0.198
-0.041526036423525675,0.199
-0.06062787140062759,0.2
-0.06719982805883455,0.201
-0.060988026118080345,0.202
-0.045111065201644485,0.203
-0.024956796681574234,0.204
-0.006339496708821724,0.205
0.0060614660074327096,0.206
0.009722090416551558,0.207
0.004878461205773732,0.208
-0.0054912944108681545,0.209
-0.016521835570700492,0.21
-0.023032672256510133,0.211
-0.02137493877910683,0.212
-0.010827950227071602,0.213
0.00610562632802299,0.214
0.02460535401118568,0.215
0.039172755794278105,0.216
0.04529553100106237,0.217
0.040587072430679376,0.218
0.025296682527959673,0.219
0.002320399864408887,0.22
-0.02326683722257916,0.221
-0.04517382094026346,0.222
-0.05722491002525764,0.223
-0.054919988800964666,0.224
-0.03701792892212652,0.225
-0.006429947626862789,0.226
0.030401815846393135,0.227
0.0654507588512897,0.228
0.09131343741039895,0.229
0.10284112100548919,0.23
0.09794604524573615,0.231
0.07766628819904958,0.232
0.04563233955956551,0.233
0.00709043439479589,0.234
-0.032145829808213074,0.235
-0.06650658699621183,0.236
-0.09144007496670566,0.237
-0.10432262269601893,0.238
-0.10503899556661388,0.239
-0.09563537685746672,0.24
-0.07912551201255308,0.241
-0.05827944900762142,0.242
-0.03514476208022137,0.243
-0.01125524153093917,0.244
0.01197180314753806,0.245
0.033009238016774474,0.246
0.0502661208713735,0.247
0.062291516867653156,0.248
0.06796697028009915,0.249
0.06664676185269064,0.25
0.05830307678858102,0.251
0.0437812115105711,0.252
0.025190117363106952,0.253
0.006061907918100751,0.254
-0.00938114322914739,0.255
-0.017932468683457686,0.256
-0.018967330650694135,0.257
-0.014561386230067174,0.258
-0.00818216352238382,0.259
-0.0030974945674509913,0.26
-0.0014002573206072229,0.261
-0.003782671919113752,0.262
-0.00977671999224277,0.263
-0.01809475358244901,0.264
-0.026864424983946228,0.265
-0.03387627121548281,0.266
-0.037046109483460994,0.267
-0.03497211709784172,0.268
-0.027254677679955902,0.269
-0.014480996520362025,0.27
0.001930635015161254,0.271
0.019863351277276793,0.272
0.03665197861397741,0.273
0.04936037598152831,0.274
0.05523691767743641,0.275
0.05236716108697036,0.276
0.04046710927772474,0.277
0.02153426381055783,0.278
-0.00012877030960413427,0.279
-0.018908165544801535,0.28
-0.02981238211858836,0.281
-0.030519692171666637,0.282
-0.02223751221294214,0.283
-0.008795675105904007,0.284
0.005168270427037127,0.285
0.015738518470413777,0.286
0.020549959213072823,0.287
0.018960026330467714,0.288
0.011690724390471068,0.289
0.00027664089844096614,0.29
-0.013345727644286518,0.291
-0.027090482360862284,0.292
-0.03892864882064917,0.293
-0.047022648020536864,0.294
-0.04983473256868033,0.295
-0.04642806006068788,0.296
-0.03688346717263845,0.297
-0.02242365277756289,0.298
-0.005154397046184745,0.299
0.012335735576391341,0.3
0.02742575843643733,0.301
0.037951467926015094,0.302
0.04260314970206008,0.303
0.04114173962283437,0.304
0.034534624012079344,0.305
0.02503673845062539,0.306
0.015847805022091887,0.307
0.010083909595986828,0.308
0.009587006689397232,0.309
0.014385465870786322,0.31
0.02297347493153763,0.311
0.03299291372245127,0.312
0.04192320217239131,0.313
0.04757815160820341,0.314
0.04833651038498821,0.315
0.04316230679527702,0.316
0.031598394758132274,0.317
0.013941952620832603,0.318
-0.008433898045674902,0.319
-0.03297680718522396,0.32
-0.05639237723611569,0.321
-0.07550797564601398,0.322
-0.08809697442843131,0.323
-0.09319255683460512,0.324
-0.09072378602016402,0.325
-0.08089330627443529,0.326
-0.06402648430552224,0.327
-0.04107549551899438,0.328
-0.014161083138565114,0.329
0.013500688528104649,0.33
0.03822088053390014,0.331
0.05647960998813503,0.332
0.0653382317238626,0.333
0.06279704263131264,0.334
0.04832364983494955,0.335
0.02354036740436842,0.336
-0.0072633764622303506,0.337
-0.03742679642639822,0.338
-0.05959303752351036,0.339
-0.06838873198815719,0.34
-0.06242145879136053,0.341
-0.04417534623771334,0.342
-0.018379707166187313,0.343
0.009688494155995549,0.344
0.03546896308781307,0.345
0.055979581266401186,0.346
0.0700494187420552,0.347
0.07785191843590551,0.348
0.08010404365729085,0.349
0.07747736487319815,0.35
0.07057796005224513,0.351
0.06034141465299744,0.352
0.048276390058962414,0.353
0.036120184948067555,0.354
0.025126402496205305,0.355
0.015696944842921324,0.356
0.007540153756476081,0.357
-0.00016465807686055745,0.358
-0.00864786332973293,0.359
-0.018983439428588544,0.36
-0.031173125916282608,0.361
-0.043689777257174,0.362
-0.05405242185463964,0.363
-0.06010223668750711,0.364
-0.06108986998543141,0.365
-0.05801618850542654,0.366
-0.053199761698003126,0.367
-0.049234697891215685,0.368
-0.04781014553100986,0.369
-0.04904882865843782,0.37
-0.0515504828617002,0.371
-0.052919174389641194,0.372
-0.050653118737900876,0.373
-0.04318868892089367,0.374
-0.030533599194340597,0.375
-0.01411477164752744,0.376
0.0038745424208048904,0.377
0.02113478187900791,0.378
0.03571843530626905,0.379
0.04629471163297434,0.38
0.05224499895636608,0.381
0.05362522716896039,0.382
0.051083179856851936,0.383
0.04573274693162916,0.384
0.03888089987062978,0.385
0.03165194497487834,0.386
0.024757753966190846,0.387
0.01854818938268045,0.388
0.013200131603531852,0.389
0.008909458541594403,0.39
0.006038425928850028,0.391
0.005020835603054089,0.392
0.005945692272614212,0.393
0.008234582609369776,0.394
0.010815541114904117,0.395
0.012604375434754355,0.396
0.012870862054491889,0.397
0.011357211307348347,0.398
0.008243274299449932,0.399
0.004037807358476632,0.4
-0.0005978738963755856,0.401
-0.005085753176909578,0.402
-0.009123384725653085,0.403
-0.012685616708505532,0.404
-0.01584221379804271,0.405
-0.01856664611072299,0.406
-0.02064028546953716,0.407
-0.02163647269636669,0.408
-0.02101651766410192,0.409
-0.01836202925044553,0.41
-0.01362659298391996,0.411
-0.007252542826463983,0.412
-0.00010545920912122048,0.413
0.006684781728526224,0.414
0.01186041541743724,0.415
0.014190531569955561,0.416
0.012782116149486926,0.417
0.007552607403485715,0.418
-0.000338267646088864,0.419
-0.008504137576339896,0.42
-0.014188123931932067,0.421
-0.015697830945483406,0.422
-0.013335849763480744,0.423
-0.009023174042003328,0.424
-0.005043626318416471,0.425
-0.002901023015895155,0.426
-0.002853345419645266,0.427
-0.00420072436709601,0.428
-0.0060379207606215506,0.429
-0.007895528183964015,0.43
-0.009837722999324021,0.431
-0.01206016866498272,0.432
-0.014369052354786416,0.433
-0.015944294285878804,0.434
-0.015580845082532034,0.435
-0.012265496099472403,0.436
-0.005669290902392201,0.437
0.00382946325450531,0.438
0.01557039120734317,0.439
0.029054901324307655,0.44
0.043929712684274654,0.441
0.05935424832566476,0.442
0.07322308449193705,0.443
0.08204244268900197,0.444
0.08176848968056555,0.445
0.06929131487491894,0.446
0.0440342542915464,0.447
0.009026449105242093,0.448
-0.029263540139941514,0.449
-0.06269283404825174,0.45
-0.08425097227867524,0.451
-0.0904420785325189,0.452
-0.08187924721306375,0.453
-0.062159243084439694,0.454
-0.036313678277728044,0.455
-0.009660672861317735,0.456
0.013096566168523973,0.457
0.028667465354243426,0.458
0.03557879909467429,0.459
0.03400383531843358,0.46
0.02534371126233661,0.461
0.0119318498120992,0.462
-0.0032186127301161572,0.463
-0.016888494348811844,0.464
-0.026426526915512415,0.465
-0.03064182236092609,0.466
-0.030342551834902327,0.467
-0.02789102111240726,0.468
-0.025672875505973507,0.469
-0.024501598875491925,0.47
-0.023315531288955933,0.471
-0.020342184981682054,0.472
-0.014567146184204464,0.473
-0.006368385378284837,0.474
0.0028301515815796975,0.475
0.011334819908004057,0.476
0.017833133354255206,0.477
0.021708219363235956,0.478
0.02305080592098782,0.479
0.02242542840843388,0.48
0.020529020376848523,0.481
0.017990518214112645,0.482
0.015397029306161493,0.483
0.013364086327395292,0.484
0.01247454397268915,0.485
0.013105648183854944,0.486
0.015264886879316085,0.487
0.01854834779258251,0.488
0.022253352359046116,0.489
0.0255577304355203,0.49
0.027664036835537382,0.491
0.027893316188124597,0.492
0.025760600414541653,0.493
0.021057902437386276,0.494
0.013943048514986341,0.495
0.004976217056077159,0.496
-0.004969889788499099,0.497
-0.014914075290843291,0.498
-0.023964067786081848,0.499
-0.03139291107247491,0.5
-0.03662811341695959,0.501
-0.03928225312898883,0.502
-0.03924820556307625,0.503
-0.03676875722594098,0.504
-0.032437027068337135,0.505
-0.027138043958845746,0.506
-0.02191126844345958,0.507
-0.017725171770477888,0.508
-0.015226119084111683,0.509
-0.014559279217220467,0.51
-0.015327738397909837,0.511
-0.01668536095746302,0.512
-0.01752005514228265,0.513
-0.01668515791662931,0.514
-0.013214285165820778,0.515
-0.0064424161467621244,0.516
0.003941114992545807,0.517
0.017748301740571244,0.518
0.03398550599750547,0.519
0.05057723927722812,0.52
0.06444633762665913,0.521
0.07213904986747062,0.522
0.07085414506026672,0.523
0.05949049343372642,0.524
0.0393315043023547,0.525
0.01406990093079766,0.526
-0.010976035148843537,0.527
-0.030320812266940788,0.528
-0.03995621999416634,0.529
-0.0384487812242465,0.53
-0.027038214005695595,0.531
-0.008956957664062223,0.532
0.01153542058457834,0.533
0.030124341852176734,0.534
0.04330234245176699,0.535
0.04898318490921147,0.536
0.04673119299367969,0.537
0.03756114752217449,0.538
0.02338377229919118,0.539
0.0062869175624789796,0.54
-0.012008325221500426,0.541
-0.030180790138046452,0.542
-0.046937777570028795,0.543
-0.06074969441314215,0.544
-0.07000549662438996,0.545
-0.0735043740362985,0.546
-0.07095106037955802,0.547
-0.0630603030175119,0.548
-0.05122403762004673,0.549
-0.03708363308099268,0.55
-0.022221242016945246,0.551
-0.007971709762216997,0.552
0.004630883210189011,0.553
0.014859597783958784,0.554
0.022363033368972315,0.555
0.0272106364106624,0.556
0.029816954617282423,0.557
0.03078060662292769,0.558
0.030714408741843384,0.559
0.03013189760849395,0.56
0.029408955240917592,0.561
0.028758212151596328,0.562
0.028139247949884042,0.563
0.027133184752109483,0.564
0.024972154056552537,0.565
0.02088364359241361,0.566
0.014582749418528121,0.567
0.006554928641708194,0.568
-0.0020495764729531536,0.569
-0.009875060613532853,0.57
-0.015983398298051604,0.571
-0.020287714832071452,0.572
-0.0234654742083341,0.573
-0.026307645425074716,0.574
-0.028899353867559464,0.575
-0.030270879596351025,0.576
-0.028828447748049806,0.577
-0.023257101094207082,0.578
-0.013301437319422793,0.579
-9.93464572315602e-06,0.58
0.014606186530162156,0.581
0.02824064395152154,0.582
0.03891163815052979,0.583
0.045314006350995535,0.584
0.04691884725185969,0.585
0.04390749256334745,0.586
0.036989003090963236,0.587
0.027158660347049727,0.588
0.01551323377585225,0.589
0.0031758944246040085,0.59
-0.008761134834288153,0.591
-0.019339826761714404,0.592
-0.027821205804330423,0.593
-0.033703024962831486,0.594
-0.03672073515932455,0.595
-0.03688240195141901,0.596
-0.03452203682098391,0.597
-0.030338465892495118,0.598
-0.025369251619877103,0.599
-0.020804205013591523,0.6
-0.017629523771966162,0.601
-0.01628325010686253,0.602
-0.01651464188907449,0.603
-0.017484229574936345,0.604
-0.018043884851500692,0.605
-0.017105737052719585,0.606
-0.01398889555271384,0.607
-0.008597769196510889,0.608
-0.0013115819178014614,0.609
0.007287467158340893,0.61
0.016542961451062214,0.611
0.025660588822278594,0.612
0.03369980496424445,0.613
0.0397633745670276,0.614
0.04325716145313772,0.615
0.04403001585233022,0.616
0.042341466272149714,0.617
0.03873095620613284,0.618
0.03388230695256608,0.619
0.02853034919153996,0.62
0.02338519940758443,0.621
0.0190073290716511,0.622
0.01560963901953389,0.623
0.012880794902971638,0.624
0.00998296525233217,0.625
0.005766886170819694,0.626
-0.0008729932147088014,0.627
-0.010576875412809359,0.628
-0.023132839522057573,0.629
-0.03730134743029177,0.63
-0.05098827874449181,0.631
-0.061773220403132094,0.632
-0.0676003896877676,0.633
-0.06726909378405761,0.634
-0.06052322194688647,0.635
-0.04791166151170534,0.636
-0.030689650865024627,0.637
-0.0108032230647219,0.638
0.0092248317917228,0.639
0.02669147116226079,0.64
0.03935488863801649,0.641
0.04603001014549479,0.642
0.04684001094466505,0.643
0.04308207831610977,0.644
0.03688566807675672,0.645
0.030735644782722327,0.646
0.026689669852544617,0.647
0.0253792243499601,0.648
0.02549930604909013,0.649
0.024354841492178085,0.65
0.01913699097726042,0.651
0.008181021081779066,0.652
-0.008244315475938251,0.653
-0.027734207548205072,0.654
-0.04620100300066913,0.655
-0.059097507309782325,0.656
-0.06313771876566307,0.657
-0.05756838677147503,0.658
-0.04416549490475505,0.659
-0.026157751619235586,0.66
-0.006967086573762306,0.661
0.010609785066527624,0.662
0.024728648262258675,0.663
0.03450512152475672,0.664
0.03981187191059823,0.665
0.04096967217586606,0.666
0.038472071832074156,0.667
0.03284317478273553,0.668
0.02464273378741122,0.669
0.014542718893923116,0.67
0.0033894074190072517,0.671
-0.00777675977038978,0.672
-0.017764060195640124,0.673
-0.025383562909527917,0.674
-0.029715637523831627,0.675
-0.030381329442008283,0.676
-0.0276713664013333,0.677
-0.022448433914999566,0.678
-0.01585625449292567,0.679
-0.008982591247589341,0.68
-0.002622517295179771,0.681
0.002816980461264423,0.682
0.007293699571018143,0.683
0.011007340098923882,0.684
0.01421351661131354,0.685
0.017052818193994523,0.686
0.019461703523889068,0.687
0.021183407649843545,0.688
0.021875260234401846,0.689
0.021274190714109017,0.69
0.01932835525462461,0.691
0.01622197842495308,0.692
0.012299133055544524,0.693
0.007928298750165798,0.694
0.0033553435258233152,0.695
-0.0013677269926572354,0.696
-0.0062837062158028045,0.697
-0.011308248064836011,0.698
-0.01608383456337735,0.699
-0.020041298174434497,0.7
-0.0226224634821757,0.701
-0.023486517270474475,0.702
-0.02253941207555611,0.703
-0.019855223256198075,0.704
-0.015661640820926415,0.705
-0.010378897553480237,0.706
-0.004605698262360595,0.707
0.0009692713526145494,0.708
0.005692485534117267,0.709
0.009071998823362697,0.71
0.010883746594108673,0.711
0.011228812403100981,0.712
0.010497219454335469,0.713
0.00922742955177079,0.714
0.007915435861126582,0.715
0.006850012686042969,0.716
0.0060247725540514,0.717
0.005160145887700943,0.718
0.0038667129032513626,0.719
0.00191668907777438,0.72
-0.000534220457142414,0.721
-0.0029706893964411914,0.722
-0.004828076350912275,0.723
-0.005859419709463747,0.724
-0.006251499576354271,0.725
-0.006446479513619102,0.726
-0.00687005937772971,0.727
-0.007727153697293546,0.728
-0.008912830007804556,0.729
-0.010050338575659496,0.73
-0.010631780110982187,0.731
-0.010188427307142965,0.732
-0.008424710764983837,0.733
-0.005298394526291661,0.734
-0.0010468986970562336,0.735
0.003856934311353427,0.736
0.008827465324663926,0.737
0.013317653355882236,0.738
0.01690897262490023,0.739
0.01931979693557408,0.74
0.020404269159532272,0.741
0.020143885480349687,0.742
0.018555984812288467,0.743
0.015581512906753449,0.744
0.011125773184912811,0.745
0.005247121736988368,0.746
-0.0017080815742809567,0.747
-0.009115688667041525,0.748
-0.016112610708078033,0.749
-0.021605738200710423,0.75
-0.02442988977823435,0.751
-0.023806453403850715,0.752
-0.01983146870179032,0.753
-0.013483975937533444,0.754
-0.006097136170734893,0.755
0.0012096354404752428,0.756
0.0077529832096293935,0.757
0.013206337427020695,0.758
0.017429716266611387,0.759
0.020367962315997377,0.76
0.022034944679230655,0.761
0.02247799864782639,0.762
0.021664806306613674,0.763
0.019394368128524214,0.764
0.015364812690712264,0.765
0.009389835983616715,0.766
0.0016440221298509481,0.767
-0.007187181421898921,0.768
-0.015941262727888286,0.769
-0.02324117094572814,0.77
-0.02794977937750372,0.771
-0.029621477447178517,0.772
-0.028672001769761847,0.773
-0.0261430725101224,0.774
-0.0231779777617187,0.775
-0.02047723308978668,0.776
-0.01803457141949983,0.777
-0.015281838996222718,0.778
-0.011510272491081833,0.779
-0.00632176578839166,0.78
0.00010664569809144688,0.781
0.007055261508529598,0.782
0.013519722121875652,0.783
0.01852422063794884,0.784
0.021388770212207427,0.785
0.02188835907048486,0.786
0.020245375293051496,0.787
0.016990240091506757,0.788
0.01277944688582371,0.789
0.008238122793724845,0.79
0.0038761586540426722,0.791
7.521604301721585e-05,0.792
-0.0028936577367179722,0.793
-0.00483224416854865,0.794
-0.005563690847589815,0.795
-0.004910745180964076,0.796
-0.0027229535121803482,0.797
0.0010980006405636295,0.798
0.006593943854834957,0.799
0.013693432976254872,0.8
0.02206876583155286,0.801
0.03098111905128272,0.802
0.039203873698553576,0.803
0.045076209338708796,0.804
0.04673174011360329,0.805
0.042536924595164706,0.806
0.031671385663123094,0.807
0.014632487228843936,0.808
-0.0066070111007374725,0.809
-0.028940670167499162,0.81
-0.0488799044390211,0.811
-0.06343210164299753,0.812
-0.07079733240830255,0.813
-0.07068186909788791,0.814
-0.06417107624488831,0.815
-0.05325898504546797,0.816
-0.0402495865285229,0.817
-0.027204855991386948,0.818
-0.015525067891367587,0.819
-0.005766559658777109,0.82
0.002226380329745765,0.821
0.00893501565714103,0.822
0.014726057289611032,0.823
0.019618871057992943,0.824
0.023343815458630866,0.825
0.02552921591122974,0.826
0.025851872291083638,0.827
0.024132338065527326,0.828
0.020428383774965517,0.829
0.015123715846222591,0.83
0.008942743858618202,0.831
0.002869167893167389,0.832
-0.002011526197547741,0.833
-0.004781207741901585,0.834
-0.00503797014293932,0.835
-0.003078854613556015,0.836
0.00028058938035770923,0.837
0.004102076432918841,0.838
0.0076264043915703645,0.839
0.010343227505596268,0.84
0.01192026315002743,0.841
0.012161013731113675,0.842
0.011070520782404709,0.843
0.008962536741953533,0.844
0.0064773696318849595,0.845
0.004456319950997019,0.846
0.0037188836976732634,0.847
0.004778401012375148,0.848
0.007541661936122047,0.849
0.011163876629312992,0.85
0.014218208675134012,0.851
0.015113134485431641,0.852
0.012580925154969228,0.853
0.006122407354384649,0.854
-0.0037150185721058033,0.855
-0.015366634930950468,0.856
-0.02660447742449539,0.857
-0.03510197096968345,0.858
-0.03906924643399468,0.859
-0.03779207360897439,0.86
-0.03184973497924545,0.861
-0.02287676452994315,0.862
-0.01297576537153266,0.863
-0.0040499830218959166,0.864
0.00269251251890099,0.865
0.006927346740996055,0.866
0.009108514927011483,0.867
0.010193988435023421,0.868
0.011308510703914518,0.869
0.013364835597061796,0.87
0.016714043857249252,0.871
0.02101787732042808,0.872
0.025429320989139657,0.873
0.028923206076325716,0.874
0.030597290072562004,0.875
0.029891275838855435,0.876
0.026696333543574362,0.877
0.021324790733563158,0.878
0.014369105977983486,0.879
0.006517649579022792,0.88
-0.0016139810947208633,0.881
-0.009608069668715703,0.882
-0.017296572392677814,0.883
-0.024651849940166237,0.884
-0.031498058804003616,0.885
-0.03725217849820495,0.886
-0.04097007701795542,0.887
-0.04175105629829937,0.888
-0.03925438880631445,0.889
-0.03394713099303679,0.89
-0.026882475466035862,0.891
-0.01920292902862722,0.892
-0.011764479256943686,0.893
-0.005062158268552176,0.894
0.000665077571691209,0.895
0.005332155629583562,0.896
0.008975240606326141,0.897
0.011740458109733327,0.898
0.01383796735576188,0.899
0.015473822023917904,0.9
0.016807268761528806,0.901
0.01795338449087447,0.902
0.019012295805030673,0.903
0.020095259851875345,0.904
0.021318240203938216,0.905
0.022756380582782038,0.906
0.024384306394375745,0.907
0.026034667448299225,0.908
0.02740597578504059,0.909
0.028109728563054034,0.91
0.027708459063601264,0.911
0.025742612751034958,0.912
0.02177893013414652,0.913
0.01548422223614317,0.914
0.0067243439044966215,0.915
-0.004297962749836564,0.916
-0.016894975392503432,0.917
-0.02982958487672591,0.918
-0.04141631374758425,0.919
-0.04979470138323224,0.92
-0.05332731468162886,0.921
-0.05104106435623572,0.922
-0.04299863747140369,0.923
-0.030458175600509646,0.924
-0.01569908363149732,0.925
-0.001513159152498073,0.926
0.009485879799148944,0.927
0.015517914403610932,0.928
0.01608165432302457,0.929
0.012065822574585768,0.93
0.005465894202630853,0.931
-0.0012288823023258331,0.932
-0.005811369908290909,0.933
-0.0070425366122131424,0.934
-0.004925667230390914,0.935
-0.00043073815835732737,0.936
0.0050975334590312015,0.937
0.01048922480918409,0.938
0.015057206038222134,0.939
0.01861999157062862,0.94
0.0213111437058506,0.941
0.02334849002975798,0.942
0.02489691080164642,0.943
0.026001351790182984,0.944
0.026508752452144492,0.945
0.025993725144877165,0.946
0.0237639743799933,0.947
0.018974869732591628,0.948
0.010884255101950608,0.949
-0.0007174164927556102,0.95
-0.01505956884206247,0.951
-0.030263859628952425,0.952
-0.043731223176333774,0.953
-0.05290220563431773,0.954
-0.056008791785042984,0.955
-0.05249053487933624,0.956
-0.04301803735017006,0.957
-0.029224620852332964,0.958
-0.013258204084920466,0.959
0.002719492920893795,0.96
0.016963839163850858,0.961
0.02839644442570101,0.962
0.03660669514141144,0.963
0.04168261429366033,0.964
0.04400607885757748,0.965
0.04406061348465611,0.966
0.04226232355598873,0.967
0.038842597207905435,0.968
0.03380577899752359,0.969
0.026984391487440373,0.97
0.018192203994965597,0.971
0.007423112154600583,0.972
-0.004998059591020886,0.973
-0.018402280865614448,0.974
-0.03187271129699462,0.975
-0.044315781832431865,0.976
-0.05448805348300936,0.977
-0.06111888051389736,0.978
-0.06317710928791931,0.979
-0.06015106103402637,0.98
-0.05221524792933991,0.981
-0.040255512061001114,0.982
-0.025733447490093764,0.983
-0.010369104964536411,0.984
0.004268842331794146,0.985
0.017091525810425705,0.986
0.02760228271869714,0.987
0.0357682304212642,0.988
0.041763547925691806,0.989
0.04575180213396581,0.99
0.047802224742009625,0.991
0.047928825871463625,0.992
0.04617302092193716,0.993
0.04264117179853546,0.994
0.03747194636378521,0.995
0.030794305116602617,0.996
0.02273741543275012,0.997
0.013489055204201834,0.998
0.003368494995662725,0.999
-0.007129256179614457,1.0
-0.017351109042253943,1.001
-0.026531486430778812,1.002
-0.03382631094323564,1.003
-0.03841017341586087,1.004
-0.039728371392731596,1.005
-0.03780164561121678,1.006
-0.03331778320174506,1.007
-0.02738449588374348,1.008
-0.021119901014526994,1.009
-0.015339297344216664,1.01
-0.010445427322172704,1.011
-0.006487637095224439,1.012
-0.0033045929832363962,1.013
-0.0006725920970965258,1.014
0.0015945215991676916,1.015
0.003621434545268707,1.016
0.005513870851081102,1.017
0.007415369315822094,1.018
0.0095080099226696,1.019
0.011941463801733901,1.02
0.014757068170082453,1.021
0.017863515950683872,1.022
0.021043107203904912,1.023
0.023958920651040043,1.024
0.026180191150985955,1.025
0.027238224553808147,1.026
0.026690414690700017,1.027
0.024181970196628964,1.028
0.019515756301762926,1.029
0.012720162916527805,1.03
0.004105520376438254,1.031
-0.0056804242685700845,1.032
-0.015628631213523543,1.033
-0.024461559478587892,1.034
-0.0308822508611916,1.035
-0.033908107818583264,1.036
-0.0331849601121239,1.037
-0.029175200631463716,1.038
-0.02305659404726617,1.039
-0.016293073828770557,1.04
-0.010136539733637687,1.041
-0.005337609330208439,1.042
-0.0021013454779174935,1.043
-0.0001941313892151157,1.044
0.000888205768460714,1.045
0.001747964207614835,1.046
0.0029322998764136337,1.047
0.004816483214342796,1.048
0.007540028827129657,1.049
0.010985556852773052,1.05
0.014780006019962388,1.051
0.018327684281731992,1.052
0.020879743129106138,1.053
0.02161929736340737,1.054
0.019781532864469292,1.055
0.014852601642543787,1.056
0.006822322402105684,1.057
-0.0036136025152387645,1.058
-0.015022243095050222,1.059
-0.025438661337232316,1.06
-0.03280308334158243,1.061
-0.03555032877876253,1.062
-0.033124101404089196,1.063
-0.026120123731011236,1.064
-0.01597181444866819,1.065
-0.004402666240297233,1.066
0.007028701606300849,1.067
0.01712957100735772,1.068
0.02507884747111373,1.069
0.030370477122899503,1.07
0.032776582943054355,1.071
0.03234392055404355,1.072
0.029409142462590503,1.073
0.024600121826312,1.074
0.01877619122006462,1.075
0.012892493101266736,1.076
0.0077947167907652624,1.077
0.0039703811403379195,1.078
0.0013734385245724834,1.079
-0.0005340236569314551,1.08
-0.002518916966986803,1.081
-0.00524523956879069,1.082
-0.009031009603232462,1.083
-0.013738479630892718,1.084
-0.01876899729005906,1.085
-0.02316594980898281,1.086
-0.02587490969481711,1.087
-0.026132111935929132,1.088
-0.023788196595575663,1.089
-0.019357138706912327,1.09
-0.013775644988825261,1.091
-0.008049939152736016,1.092
-0.0029694475878144226,1.093
0.001049715263090262,1.094
0.0039937482051442255,1.095
0.006152844161545591,1.096
0.007919163576508946,1.097
0.009572088407183417,1.098
0.011175592915309918,1.099
0.012627086763569804,1.1
0.013750811200964243,1.101
0.014326313096939568,1.102
0.014078576700607278,1.103
0.012711541266811543,1.104
0.009997726243067625,1.105
0.00587051815835626,1.106
0.0004817072546044902,1.107
-0.005763404873886665,1.108
-0.012176048821234086,1.109
-0.017796883720180914,1.11
-0.02155586848926122,1.111
-0.02261509035000528,1.112
-0.02072103576619502,1.113
-0.016324715175109517,1.114
-0.010414433291182138,1.115
-0.004178735550292834,1.116
0.0013565270893075164,1.117
0.005571517821994699,1.118
0.00829117397626176,1.119
0.009670683547396567,1.12
0.010036482041511285,1.121
0.009761750840653166,1.122
0.009197373844296189,1.123
0.008633854511471908,1.124
0.008274665607093024,1.125
0.008213393989366954,1.126
0.008418260756350247,1.127
0.00875149921626254,1.128
0.009033155389049953,1.129
0.009111305848953668,1.13
0.008901538671317339,1.131
0.008391720319033133,1.132
0.007619224090893528,1.133
0.006634792305203823,1.134
0.005477717313236629,1.135
0.004170077036265802,1.136
0.0027121725985236995,1.137
0.0010677203268981779,1.138
-0.0008454832646868202,1.139
-0.003137207089464134,1.14
-0.005891023789776883,1.141
-0.009075458019342255,1.142
-0.012456291901850604,1.143
-0.01559711726395129,1.144
-0.017992343084228528,1.145
-0.019255667897423584,1.146
-0.019238840890501218,1.147
-0.018031655240541716,1.148
-0.015884600879158814,1.149
-0.013124024840091413,1.15
-0.01009369247142919,1.151
-0.007100772537257159,1.152
-0.004362588376905564,1.153
-0.0019929739944031686,1.154
-3.258094474244807e-05,1.155
0.0015175805460203248,1.156
0.0026826133333163076,1.157
0.003517505692849759,1.158
0.004127416619090623,1.159
0.004680605645319584,1.16
0.005379050729801049,1.161
0.006405611508993288,1.162
0.007883074882031466,1.163
0.009843923871209855,1.164
0.012215481711516136,1.165
0.014829405293880302,1.166
0.017426198455788477,1.167
0.019640555555689783,1.168
0.021021009986299646,1.169
0.021124997374470055,1.17
0.019646292872374373,1.171
0.016506253993307067,1.172
0.011887901789814656,1.173
0.006230933196748291,1.174
0.00019543317841245626,1.175
-0.005425175851966208,1.176
-0.009861713515340658,1.177
-0.012574657255478622,1.178
-0.013417153834371361,1.179
-0.012660013841096437,1.18
-0.010868371396435006,1.181
-0.008698556882780772,1.182
-0.006712537117492664,1.183
-0.005287925209271738,1.184
-0.004624437750528125,1.185
-0.004779359449243988,1.186
-0.005680954557102274,1.187
-0.007128654130131649,1.188
-0.008803680123174451,1.189
-0.01030375752141965,1.19
-0.011219819728622876,1.191
-0.011240472191562968,1.192
-0.010233841279352361,1.193
-0.008283695560249195,1.194
-0.005685219778606596,1.195
-0.0028961912623686266,1.196
-0.00042968787072613046,1.197
0.001306928728494465,1.198
0.0021714753219107966,1.199
0.0023642043072888337,1.2
0.0023728926275748663,1.201
0.0027742569679412993,1.202
0.003943665558913221,1.203
0.005825576685929198,1.204
0.007917346719773524,1.205
0.009474105486210296,1.206
0.009810732001428459,1.207
0.00855341129965554,1.208
0.005765817313992088,1.209
0.001957917324409518,1.21
-0.0020144502252561606,1.211
-0.005156836639249698,1.212
-0.006616095411031021,1.213
-0.005972162723718742,1.214
-0.003423148618255712,1.215
0.0002755463053021717,1.216
0.004115448657955356,1.217
0.007197426568687378,1.218
0.008968352811358299,1.219
0.009285980274857162,1.22
0.008354444343421384,1.221
0.006586139615264312,1.222
0.004442210299910866,1.223
0.00230379479729587,1.224
0.0004120667141900197,1.225
-0.0011176108399987875,1.226
-0.002237204815680738,1.227
-0.002921514948461325,1.228
-0.003185230221528523,1.229
-0.0031396573580499214,1.23
-0.0030144996953867854,1.231
-0.0030996392321418157,1.232
-0.0036316801085982593,1.233
-0.004695838343185911,1.234
-0.00618853218240287,1.235
-0.007832815807377328,1.236
-0.009242793982825561,1.237
-0.01003288484870964,1.238
-0.009925762430329612,1.239
-0.00881781509694611,1.24
-0.006792392250909403,1.241
-0.0040753910870668245,1.242
-0.0009550662698622367,1.243
0.0022819080408072318,1.244
0.005377798791683544,1.245
0.008122231956702974,1.246
0.01037615196385868,1.247
0.012075297219105042,1.248
0.013202720789866817,1.249
0.013756713513512629,1.25
0.013734361878401583,1.251
0.013134172939927566,1.252
0.011973197510820398,1.253
0.010302305411635938,1.254
0.008207740956907723,1.255
0.005797097924163157,1.256
0.003174793885044188,1.257
0.0004313653526431206,1.258
-0.0023368416883141276,1.259
-0.004992344804707565,1.26
-0.007336137149470696,1.261
-0.009138093667766365,1.262
-0.01021951062243018,1.263
-0.010538569029010533,1.264
-0.010230319921967525,1.265
-0.009572562441160642,1.266
-0.008882954876482866,1.267
-0.008409149827206567,1.268
-0.008273310638578458,1.269
-0.00847213756123395,1.27
-0.008903675817823633,1.271
-0.00939934250955713,1.272
-0.00974178263614416,1.273
-0.00968977381979332,1.274
-0.009059252472740933,1.275
-0.007815064794059239,1.276
-0.0060762210757692855,1.277
-0.004034937998392751,1.278
-0.001861220738783001,1.279
0.00034942828018625114,1.28
0.002568328499816085,1.281
0.004787292406850987,1.282
0.006968558731323108,1.283
0.00902656725056798,1.284
0.010858711456040749,1.285
0.012395890846128362,1.286
0.013619893242144536,1.287
0.014535146653142372,1.288
0.015141967230498465,1.289
0.015443056159919295,1.29
0.015450161326097589,1.291
0.015161155425383122,1.292
0.014522612767318714,1.293
0.01340986947918589,1.294
0.011658084909039535,1.295
0.009141445898451048,1.296
0.005848954482789026,1.297
0.0019130787713505253,1.298
-0.0024101964566483236,1.299
-0.006788798722437878,1.3
-0.010869617526781901,1.301
-0.014321847999872272,1.302
-0.016864690710063,1.303
-0.018296378992568703,1.304
-0.018531730322491988,1.305
-0.017639468167772916,1.306
-0.015857856851125382,1.307
-0.013559757202716101,1.308
-0.011162819728105094,1.309
-0.009016564281792547,1.31
-0.0073103234510717065,1.311
-0.006040005387425174,1.312
-0.005053063338210222,1.313
-0.004151992961997123,1.314
-0.003198023986263431,1.315
-0.002150000779346121,1.316
-0.0010269935118240859,1.317
0.00014036660295437442,1.318
0.0013230130202151974,1.319
0.0024961298892062084,1.32
0.00365332069301395,1.321
0.004814227264555246,1.322
0.006003517715518855,1.323
0.007212943746993616,1.324
0.008386304150437372,1.325
0.009443114176362634,1.326
0.010315000746275216,1.327
0.010964778342740384,1.328
0.011380986689842835,1.329
0.011560947619473917,1.33
0.011495656577569315,1.331
0.011153752788779366,1.332
0.010475287344179941,1.333
0.009401574364249732,1.334
0.00792884423079421,1.335
0.006149052901716659,1.336
0.004254258863480326,1.337
0.0024896977764654804,1.338
0.0010722299218754651,1.339
0.00011462480326603605,1.34
-0.0004186340112318418,1.341
-0.0007047062452819806,1.342
-0.0009991193228100306,1.343
-0.0015434349484926807,1.344
-0.0024848633976378106,1.345
-0.0038374123315777766,1.346
-0.00549948910954148,1.347
-0.007314447339877751,1.348
-0.009120048304562103,1.349
-0.010750745200064197,1.35
-0.012020982901959671,1.351
-0.012738021428020883,1.352
-0.01275604222967996,1.353
-0.012038533204776146,1.354
-0.010693831479295668,1.355
-0.008966082448169673,1.356
-0.007173771017250721,1.357
-0.005618211496781297,1.358
-0.004507292105369003,1.359
-0.00392371799039556,1.36
-0.003837016822580738,1.361
-0.004133784275544331,1.362
-0.004645897712211423,1.363
-0.005178760052593647,1.364
-0.0055336225971757665,1.365
-0.005522540513892984,1.366
-0.005001317237093195,1.367
-0.0039157394628558774,1.368
-0.002311783453233336,1.369
-0.00029589117501229275,1.37
0.00200662572148724,1.371
0.004457753535061522,1.372
0.006895434666566825,1.373
0.00914192835654519,1.374
0.011039572705539211,1.375
0.012481638019948033,1.376
0.013412618608301168,1.377
0.013820429346015201,1.378
0.01375067767329336,1.379
0.013327413365146788,1.38
0.012744667245067967,1.381
0.012216006762713177,1.382
0.011892101095335268,1.383
0.01178301759088427,1.384
0.011737996211814632,1.385
0.011506978712916373,1.386
0.010854260825125674,1.387
0.009651409729615423,1.388
0.0078950876714732,1.389
0.0056706801002325375,1.39
0.0031133237727508957,1.391
0.0003759105170988386,1.392
-0.002406473050242736,1.393
-0.005137644648092658,1.394
-0.007753672598042046,1.395
-0.01020976214862172,1.396
-0.012476458042454806,1.397
-0.014539086953077117,1.398
-0.016393812494743445,1.399
-0.018028449547274804,1.4
-0.019378317400095484,1.401
-0.02028943959899398,1.402
-0.020541676044747086,1.403
-0.019934664277618995,1.404
-0.018382930619093515,1.405
-0.01595877629019335,1.406
-0.01285779063032178,1.407
-0.009312867257911321,1.408
-0.005519350926238944,1.409
-0.0016269788590531568,1.41
0.002211525016176396,1.411
0.005803184843965642,1.412
0.008932888554957349,1.413
0.011417379194967067,1.414
0.013152050168806481,1.415
0.014127625006379704,1.416
0.014410386077161866,1.417
0.01409705118496558,1.418
0.013282002028059568,1.419
0.01206031452284619,1.42
0.010550846667347638,1.421
0.008906853597193844,1.422
0.007291955500777962,1.423
0.005837205591491701,1.424
0.004622143867761659,1.425
0.003692741774863008,1.426
0.0030729888993691573,1.427
0.0027371584469890295,1.428
0.002581862418425843,1.429
0.002446504456283705,1.43
0.0021633734823835534,1.431
0.0015935702690367648,1.432
0.0006530329910152991,1.433
-0.0006457529193827089,1.434
-0.0021629209307251016,1.435
-0.00366920352529564,1.436
-0.0049450330843265125,1.437
-0.005863548233569129,1.438
-0.006410643394978275,1.439
-0.006657237178250317,1.44
-0.006713971028397281,1.441
-0.006688853924881026,1.442
-0.006651984258196166,1.443
-0.006607610874888971,1.444
-0.006495337751999046,1.445
-0.006234606581155618,1.446
-0.005782127477735906,1.447
-0.005163087159418471,1.448
-0.0044578517679639265,1.449
-0.0037460025475516963,1.45
-0.0030549172066352505,1.451
-0.002368725145173941,1.452
-0.0016748003582703445,1.453
-0.0009840104730252902,1.454
-0.00031946564372791527,1.455
0.0002874399990138505,1.456
0.0007864374237430491,1.457
0.0011174493268619457,1.458
0.001253734384525415,1.459
0.0012401037010330808,1.46
0.0011870809404463546,1.461
0.0012246904400776797,1.462
0.0014508767460921005,1.463
0.001917070685196957,1.464
0.002647779295344323,1.465
0.0036505080211672947,1.466
0.004903938000095519,1.467
0.006337632508742023,1.468
0.007813734014922535,1.469
0.009133219077856356,1.47
0.010084130165971369,1.471
0.010509056996722454,1.472
0.010347245485912059,1.473
0.009632595768991068,1.474
0.0084606542991565,1.475
0.006947076601539656,1.476
0.0051928566649528125,1.477
0.0032687914299909496,1.478
0.0012327977429287375,1.479
-0.0008404586545492889,1.48
-0.002859589253216946,1.481
-0.00473756919046007,1.482
-0.006397585708241013,1.483
-0.007775846588707291,1.484
-0.008845096063990638,1.485
-0.009636919999293525,1.486
-0.01023895810056575,1.487
-0.010770578247648713,1.488
-0.01134163819956682,1.489
-0.012000680230952392,1.49
-0.012698834799109476,1.491
-0.013292896391664455,1.492
-0.01357486028113491,1.493
-0.013309411684655803,1.494
-0.012288221889835664,1.495
-0.010397583182006382,1.496
-0.007658495026052595,1.497
-0.004204565784166047,1.498
-0.00022239233501952007,1.499
0.004073324798904612,1.5
0.008413790804956404,1.501
0.012469492272939194,1.502
0.015897742141880594,1.503
0.01840471005073606,1.504
0.01978965095247224,1.505
0.019969779213636237,1.506
0.01899597746623103,1.507
0.01705968756966571,1.508
0.014466661593939584,1.509
0.011571076506838248,1.51
0.00869738236176692,1.511
0.006082089293847754,1.512
0.003862756547330408,1.513
0.0021014836948619465,1.514
0.0007914005955023993,1.515
-0.00016467228198426096,1.516
-0.0009552810407520239,1.517
-0.0018094918149037414,1.518
-0.0029195736907980086,1.519
-0.004379835879445917,1.52
-0.00616235432300483,1.521
-0.008130579669957554,1.522
-0.010088757936478104,1.523
-0.011847514782719087,1.524
-0.013258355103338924,1.525
-0.014202360927162247,1.526
-0.014580592214617178,1.527
-0.014340575736619766,1.528
-0.013507597364814923,1.529
-0.0121844697034956,1.53
-0.010530470422324278,1.531
-0.008734284267493155,1.532
-0.006969092470990679,1.533
-0.0053337135909217095,1.534
-0.0038226198369613732,1.535
-0.00234610629500564,1.536
-0.0007766703467158757,1.537
0.0009912977301606703,1.538
0.0029799811196445296,1.539
0.005104161902711832,1.54
0.0072048761097767535,1.541
0.00911897345091511,1.542
0.010741598103547023,1.543
0.012033250194220755,1.544
0.012968153964258135,1.545
0.01349248007402313,1.546
0.013543984323130821,1.547
0.013104247148948343,1.548
0.01223610229240374,1.549
0.011077057280819787,1.55
0.00977732519601389,1.551
0.008417428069469232,1.552
0.0069642246283916145,1.553
0.005294371343399055,1.554
0.0032693038780082684,1.555
0.0008179024844188086,1.556
-0.0020116651286177963,1.557
-0.005046192622646833,1.558
-0.008020876426519148,1.559
-0.010640599187183726,1.56
-0.012654796855135165,1.561
-0.013907674361251579,1.562
-0.01433797118534776,1.563
-0.01395094635495763,1.564
-0.012798579523631825,1.565
-0.010980678849520736,1.566
-0.008652776390402713,1.567
-0.0060224906278696505,1.568
-0.0033195123582103114,1.569
-0.0007396923117760975,1.57
0.0015903523182128926,1.571
0.0035888780771275624,1.572
0.005169115217733982,1.573
0.006227484682414483,1.574
0.006681622991822839,1.575
0.006507794993013797,1.576
0.005743278599385854,1.577
0.004480905724343407,1.578
0.0028897509558533916,1.579
0.0012413889863206297,1.58
-0.00012347318418311096,1.581
-0.0009116633962063112,1.582
-0.001005338448130748,1.583
-0.0005072256949013701,1.584
0.0003240747969693664,1.585
0.0012044756031297707,1.586
0.0019386253954662943,1.587
0.00246082245037999,1.588
0.0028116299013162408,1.589
0.003083369695798036,1.59
0.0033515280629891615,1.591
0.0036154277033450992,1.592
0.0037843565934280606,1.593
0.0037180451139421653,1.594
0.003287140966404439,1.595
0.002422228777228979,1.596
0.0011430956510098437,1.597
-0.0004447747933333885,1.598
-0.002180517800348896,1.599
-0.0038766754924143497,1.6
-0.005353705391921701,1.601
-0.006499557857185652,1.602
-0.007317869309309361,1.603
-0.007903351252832794,1.604
-0.008343750592524086,1.605
-0.00861667329562241,1.606
-0.008560247806633794,1.607
-0.007951641023591355,1.608
-0.006642524138043817,1.609
-0.004653838334579362,1.61
-0.0021813413104463286,1.611
0.00046411010806922447,1.612
0.002941398951006939,1.613
0.0049672409185231685,1.614
0.006381377051213746,1.615
0.007154918159626145,1.616
0.007354305299528144,1.617
0.007112299565430144,1.618
0.006602978747004707,1.619
0.0059860626673254895,1.62
0.005352337084851844,1.621
0.004721256689866076,1.622
0.004078132266475647,1.623
0.0034146503975419633,1.624
0.0027623724802223666,1.625
0.002202731781799951,1.626
0.001828151843893641,1.627
0.0016781029886969415,1.628
0.001706751388947397,1.629
0.0017999637871627223,1.63
0.001821817912843846,1.631
0.001667242585012832,1.632
0.0012974296511945606,1.633
0.0007405530603991505,1.634
5.8688664287413384e-05,1.635
-0.0007000765906246677,1.636
-0.0015382443523877312,1.637
-0.0025056876126107767,1.638
-0.0036470628091791325,1.639
-0.0049425320409539645,1.64
-0.0062908979361838676,1.641
-0.007529178252461246,1.642
-0.008463214907986374,1.643
-0.008908099341419966,1.644
-0.008741370061136046,1.645
-0.007949941660640555,1.646
-0.006642508447855502,1.647
-0.005017372888922649,1.648
-0.0033033038805090507,1.649
-0.0017027252444901497,1.65
-0.00035524586766305535,1.651
0.000674539348830169,1.652
0.001391768754112667,1.653
0.001855067462986192,1.654
0.0021497758901442626,1.655
0.0023644268905744833,1.656
0.0025831917039137973,1.657
0.0028799317650380603,1.658
0.0033028557524152594,1.659
0.003864481240790887,1.66
0.004542638683538505,1.661
0.005276213403076484,1.662
0.0059560409984204445,1.663
0.006434757415987568,1.664
0.006565584385727388,1.665
0.006252885826020552,1.666
0.0054938202656456955,1.667
0.004395098049335501,1.668
0.003146664024442638,1.669
0.0019557599648762076,1.67
0.0009755858946547129,1.671
0.00026480876243688663,1.672
-0.00020981270216388262,1.673
-0.0005432282806467071,1.674
-0.0008529868291502728,1.675
-0.0012383971109129672,1.676
-0.0017495050973899094,1.677
-0.0023787258953063785,1.678
-0.0030746650438365233,1.679
-0.003771485051927282,1.68
-0.004416821107010853,1.681
-0.0049820574065267695,1.682
-0.005455348612048228,1.683
-0.005814633033397541,1.684
-0.005996528043862831,1.685
-0.005902146268842511,1.686
-0.005445610659615611,1.687
-0.004606965025853855,1.688
-0.0034541409456439725,1.689
-0.002134970280153103,1.69
-0.0008515874678074018,1.691
0.00019599268068561982,1.692
0.0008886372430022427,1.693
0.0012329867333020174,1.694
0.001345947555262885,1.695
0.001408707054642186,1.696
0.0016112683399086326,1.697
0.0020869993028552105,1.698
0.002859334286097541,1.699
0.0038357508270183043,1.7
0.004851084730486335,1.701
0.005726692778666965,1.702
0.006311375376077592,1.703
0.006499262427558322,1.704
0.006244483999455763,1.705
0.00557108060130315,1.706
0.0045458536420305605,1.707
0.003215394644313297,1.708
0.0015727162601406337,1.709
-0.0003923472721163244,1.71
-0.0026062889588009883,1.711
-0.004883619600235868,1.712
-0.006972651044459125,1.713
-0.008621474586842323,1.714
-0.009626995333474775,1.715
-0.009860142867539706,1.716
-0.009270172593412045,1.717
-0.007877849027596105,1.718
-0.00576680559332276,1.719
-0.0030755971964671375,1.72
4.279856506682626e-06,1.721
0.003218753775207375,1.722
0.006245072394698691,1.723
0.00871444098247295,1.724
0.010267780047541168,1.725
0.010637048905159648,1.726
0.009731237355288655,1.727
0.0076879266677338295,1.728
0.004868012657782685,1.729
0.001783002751507193,1.73
-0.0010389496346047441,1.731
-0.003185731164809702,1.732
-0.00442919964810491,1.733
-0.004730996941962171,1.734
-0.004218041647310171,1.735
-0.003142927697252059,1.736
-0.0018314484667959518,1.737
-0.000621332749290875,1.738
0.0002014990795022951,1.739
0.00046690039932988385,1.74
0.00017366357113309124,1.741
-0.0005013547519818848,1.742
-0.0012672778616580913,1.743
-0.001836312132998853,1.744
-0.0020276909662064525,1.745
-0.0018120958036040187,1.746
-0.0012984739452724888,1.747
-0.0006800971895193043,1.748
-0.00016196019451535852,1.749
0.00010947789268309992,1.75
0.00010060644175250586,1.751
-9.810221101527424e-05,1.752
-0.0003182598267100384,1.753
-0.000384875325013822,1.754
-0.0001820699598614364,1.755
0.00029448234792010006,1.756
0.0009211484019778517,1.757
0.0014874191406744363,1.758
0.001775592870977102,1.759
0.0016335830703433718,1.76
0.0010122480885376753,1.761
-2.8611105148733525e-05,1.762
-0.001334296466917263,1.763
-0.002682645813810607,1.764
-0.0038259404571268254,1.765
-0.004552054154112713,1.766
-0.00473927714443603,1.767
-0.004373425553825861,1.768
-0.003535144175331082,1.769
-0.0023690126682084202,1.77
-0.0010364156264756903,1.771
0.0003313778254052175,1.772
0.0016591101162876441,1.773
0.0029084990313708137,1.774
0.004014835211703053,1.775
0.004840861313652509,1.776
0.005203982895873419,1.777
0.004965600250234378,1.778
0.004124948765592449,1.779
0.002848177826941153,1.78
0.0014106028945669235,1.781
9.642585677179613e-05,1.782
-0.0008854670187260268,1.783
-0.001435339815458188,1.784
-0.0015529926314497954,1.785
-0.0013074195324101845,1.786
-0.000796188473518852,1.787
-0.00011804619945411422,1.788
0.0006297989684585078,1.789
0.0013586688209829704,1.79
0.002003580529188142,1.791
0.0025193855519521076,1.792
0.0028662231565550855,1.793
0.003005793732396433,1.794
0.0029017510699585855,1.795
0.0025237921442055524,1.796
0.0018679255908076763,1.797
0.0009798745065206092,1.798
-4.7870345574416224e-05,1.799
-0.0011060238805997895,1.8
-0.002094271746012257,1.801
-0.0029268392214747783,1.802
-0.0035375168836940516,1.803
-0.0038985275690543776,1.804
-0.00403926094621896,1.805
-0.004043994765862841,1.806
-0.004013134649998247,1.807
-0.004001690284792621,1.808
-0.003983522220831383,1.809
-0.003866974967442635,1.81
-0.003541013475217371,1.811
-0.002925921743869779,1.812
-0.0020148376673943904,1.813
-0.0008854805873384991,1.814
0.00033002135256491135,1.815
0.0014862181532782292,1.816
0.0024420989206983368,1.817
0.0030760860966754433,1.818
0.00332640600728039,1.819
0.0032275254499180366,1.82
0.0028985286232939226,1.821
0.002490794604694202,1.822
0.0021326578926273414,1.823
0.0018904462116144786,1.824
0.0017549662093287815,1.825
0.0016574590273236178,1.826
0.001499937605275714,1.827
0.0011898912024706594,1.828
0.0006796784760384508,1.829
-5.791317069563902e-06,1.83
-0.0007748654489282717,1.831
-0.0015101329373373362,1.832
-0.002121301547711352,1.833
-0.0025725335036245298,1.834
-0.002867189734245803,1.835
-0.0030136543412180804,1.836
-0.00299787330636675,1.837
-0.002768313206607657,1.838
-0.0022539041063433466,1.839
-0.0014242507560414197,1.84
-0.00034025985714808036,1.841
0.0008555119713890814,1.842
0.0019912818551829766,1.843
0.002917877295753842,1.844
0.0035421234678141103,1.845
0.003835259427090331,1.846
0.003813559557654004,1.847
0.0035098492685248363,1.848
0.0029563468737392345,1.849
0.0021815377518510136,1.85
0.0012203420959554223,1.851
0.00012981627199187097,1.852
-0.0010074933558968616,1.853
-0.002097283078687868,1.854
-0.0030482770535906582,1.855
-0.003777207088769891,1.856
-0.0042181271551555675,1.857
-0.004343727981089558,1.858
-0.004175766141568155,1.859
-0.003771617383254375,1.86
-0.0031990838688266106,1.861
-0.002509001557171222,1.862
-0.0017183587456972916,1.863
-0.0008207422344532857,1.864
0.0001813978973529751,1.865
0.0012520468770057095,1.866
0.0023280800198213136,1.867
0.0033410352800466434,1.868
0.0042207885898907695,1.869
0.004885720372972369,1.87
0.005249165929724281,1.871
0.00525093887586937,1.872
0.004890443749854913,1.873
0.004228378649269763,1.874
0.0033569767398312846,1.875
0.00236859136523774,1.876
0.0013388198340694311,1.877
0.00032165009588065073,1.878
-0.0006473064567419285,1.879
-0.0015453820136289954,1.88
-0.0023615318137790767,1.881
-0.0030908937601026847,1.882
-0.0037127941985361395,1.883
-0.0041693845324761915,1.884
-0.004375286939031224,1.885
-0.004258175580263566,1.886
-0.0038031617078235426,1.887
-0.0030707788848489716,1.888
-0.002178692885508787,1.889
-0.0012650961251134114,1.89
-0.00045661795598468305,1.891
0.0001512987211558383,1.892
0.0005058445999317634,1.893
0.0006001613067968355,1.894
0.0004758297030134413,1.895
0.00023194318950529766,1.896
1.048564293408079e-05,1.897
-5.8058572149194916e-05,1.898
9.26901759107141e-05,1.899
0.0004467506429220859,1.9
0.0009188332009606857,1.901
0.0013878308478050404,1.902
0.0017332313841957928,1.903
0.0018583828936454922,1.904
0.0016939880103031973,1.905
0.0011909238049467561,1.906
0.00032803993948935325,1.907
-0.0008617354995547625,1.908
-0.0022619924670888593,1.909
-0.0036525105231938,1.91
-0.0047391740684526356,1.911
-0.005254958710990564,1.912
-0.0050595214849874625,1.913
-0.004153085757315743,1.914
-0.0026227531314399837,1.915
-0.0006068349281410034,1.916
0.001695014899306346,1.917
0.004017927091897927,1.918
0.006071102464829723,1.919
0.007602312370630569,1.92
0.008456230159960438,1.921
0.008599394648894337,1.922
0.00809605913381397,1.923
0.007056790635409884,1.924
0.005596898478341674,1.925
0.003817285071898102,1.926
0.0018067089298234038,1.927
-0.0003384186134855867,1.928
-0.0024929908160532697,1.929
-0.004500130455052228,1.93
-0.006189965703885761,1.931
-0.007412199160069553,1.932
-0.008071506741605219,1.933
-0.00815240500010459,1.934
-0.007721588015517445,1.935
-0.006905848057490927,1.936
-0.00585571934336007,1.937
-0.0047051530974209325,1.938
-0.0035429133932940826,1.939
-0.0024128641776525665,1.94
-0.0013302506724623263,1.941
-0.00029227334048004825,1.942
0.0007179329019619918,1.943
0.0017269062467814582,1.944
0.002754789964959584,1.945
0.003789477122810644,1.946
0.004775214159900965,1.947
0.005625481954652637,1.948
0.006242874504825829,1.949
0.006533926006935608,1.95
0.00642391878366078,1.951
0.005876376084070977,1.952
0.004916011519257569,1.953
0.0036470755063715108,1.954
0.0022476331380236027,1.955
0.0009247532286800802,1.956
-0.0001519291714328167,1.957
-0.0008982144723952251,1.958
-0.0013244540084266948,1.959
-0.0015154993554536012,1.96
-0.0015936942615733592,1.961
-0.0016697776221226946,1.962
-0.0018031234356115406,1.963
-0.002000542934885829,1.964
-0.0022470108631063345,1.965
-0.002529088679216764,1.966
-0.0028313953407715733,1.967
-0.0031228868946852483,1.968
-0.0033538515566066784,1.969
-0.003470800654094525,1.97
-0.003436526307080901,1.971
-0.003239296555068985,1.972
-0.0028941013105572805,1.973
-0.0024396299716208008,1.974
-0.0019352273586964596,1.975
-0.001458796802054696,1.976
-0.0010892666440231176,1.977
-0.0008721197737206317,1.978
-0.0007974099268260735,1.979
-0.0008137985640111062,1.98
-0.0008564263838057336,1.981
-0.0008524378618322655,1.982
-0.0007139752720551305,1.983
-0.000350734034736641,1.984
0.0002908848474453983,1.985
0.0011884376239712235,1.986
0.0022398868795539774,1.987
0.0032979251107277925,1.988
0.004215733074713794,1.989
0.00488464023521753,1.99
0.005257985658950176,1.991
0.005359119316568078,1.992
0.005264494047510011,1.993
0.005059024049435476,1.994
0.004784317870764725,1.995
0.004412334339523193,1.996
0.0038688179942948137,1.997
0.003095357388869285,1.998
0.0021007244628350004,1.999
0.000969891477647261,2.0
-0.0001630398635029771,2.001
-0.0011660979691548198,2.002
-0.0019589474151038384,2.003
-0.0025291336900390123,2.004
-0.0029226613802587503,2.005
-0.0032275666514252122,2.006
-0.0035412899504080114,2.007
-0.003930281653094222,2.008
-0.004417692341739512,2.009
-0.004991632960443093,2.01
-0.00559515477928587,2.011
-0.006111504019995183,2.012
-0.00638500787705136,2.013
-0.006270992309541932,2.014
-0.005684040372154256,2.015
-0.00462677790201453,2.016
-0.0031917728508868053,2.017
-0.0015433860146732762,2.018
0.00011276125681171903,2.019
0.0015740990163863539,2.02
0.002687604864053937,2.021
0.003379308231915601,2.022
0.0036630605875985363,2.023
0.0036288033429244864,2.024
0.0034072044088835182,2.025
0.0031208640773347915,2.026
0.0028473450209503042,2.027
0.0026106800625696485,2.028
0.002393547857625464,2.029
0.002158160929703704,2.03
0.001872997878156715,2.031
0.0015343486050643088,2.032
0.0011697615125956795,2.033
0.0008267756150096606,2.034
0.000550406097552402,2.035
0.0003576199461651374,2.036
0.00023824511585151842,2.037
0.00018211049831673307,2.038
0.00019308511867625005,2.039
0.00027599539010913447,2.04
0.0004115295725039848,2.041
0.0005409835407313326,2.042
0.0005777938627028622,2.043
0.0004426025444657489,2.044
0.00010538498381642979,2.045
-0.0003978270555016983,2.046
-0.0009896089289544773,2.047
-0.0015740782644728152,2.048
-0.0020316491729017614,2.049
-0.002228966610533208,2.05
-0.0020716925155133724,2.051
-0.0015612705063214746,2.052
-0.0008049328100531884,2.053
2.2428081028044242e-05,2.054
0.0007277819032370175,2.055
0.0011490108582207666,2.056
0.0012098964479480218,2.057
0.0009490116588555713,2.058
0.00048733039196717975,2.059
-3.817360840419085e-05,2.06
-0.0005169798539945125,2.061
-0.0008683806514529663,2.062
-0.0010409712932803756,2.063
-0.0010336777797405978,2.064
-0.0009146437596669105,2.065
-0.0007969464763962812,2.066
-0.0007740463398830623,2.067
-0.0008660222379319398,2.068
-0.0010125039748546374,2.069
-0.001107307586764843,2.07
-0.001055527471675184,2.071
-0.0008226246906098728,2.072
-0.00043853925296419847,2.073
4.056150406927617e-05,2.074
0.0005694995875769544,2.075
0.001127514026644656,2.076
0.0017116981376449508,2.077
0.002316575643508243,2.078
0.002911609506206371,2.079
0.0034259451276918342,2.08
0.003751906397598682,2.081
0.0037788072177532763,2.082
0.0034423233143021695,2.083
0.0027575999982745666,2.084
0.0018152827245391003,2.085
0.0007427681100678899,2.086
-0.00034485099882927966,2.087
-0.001373079935370487,2.088
-0.002304032465636481,2.089
-0.003116820789951991,2.09
-0.0037897732247126983,2.091
-0.004288570586240495,2.092
-0.004564990290161928,2.093
-0.004568965451014832,2.094
-0.004271237420328282,2.095
-0.0036904828651605544,2.096
-0.0029067744718590405,2.097
-0.0020433628430045463,2.098
-0.001228096421218626,2.099
-0.0005668665960797163,2.1
-0.0001370780211390176,2.101
2.270632676487816e-05,2.102
-6.45826731392971e-05,2.103
-0.0003046497294179164,2.104
-0.0005558709428674967,2.105
-0.0006789971388513734,2.106
-0.0005826079785488684,2.107
-0.00023849941406819345,2.108
0.00032690763588310375,2.109
0.0010478950980101704,2.11
0.0018404077228547685,2.111
0.0026227929330392267,2.112
0.0033256156732522444,2.113
0.0038960841591543353,2.114
0.004302378515516116,2.115
0.004528626811337272,2.116
0.00456122851683225,2.117
0.004386069166207413,2.118
0.004000122595555324,2.119
0.003417803908703706,2.12
0.0026686354290799083,2.121
0.0017978571957162621,2.122
0.0008626433969036189,2.123
-8.5265563719401e-05,2.124
-0.001013618888505161,2.125
-0.0019038383118560238,2.126
-0.0027344019979214313,2.127
-0.0034708501922501387,2.128
-0.0040665886096250894,2.129
-0.004472326525006507,2.13
-0.00465923138107475,2.131
-0.004643539740316855,2.132
-0.00447698144807178,2.133
-0.004207490453949892,2.134
-0.0038583029966187984,2.135
-0.0034411362481169484,2.136
-0.0029808455187530307,2.137
-0.0025215316523186752,2.138
-0.0020957974299054168,2.139
-0.0016876037182881334,2.14
-0.0012375593667927054,2.141
-0.0006864712943716974,2.142
-1.211933075513019e-05,2.143
0.0007642755227494344,2.144
0.001590989313485887,2.145
0.0024046972724668402,2.146
0.0031468058630024086,2.147
0.003768200154634789,2.148
0.004226792424716435,2.149
0.004495039904321803,2.15
0.004575702264252723,2.151
0.0045037621027754346,2.152
0.004329886908593708,2.153
0.004099784327464098,2.154
0.003847291815511767,2.155
0.0036032607550633322,2.156
0.0033928614782909494,2.157
0.003214799915066579,2.158
0.0030348842668119357,2.159
0.002803536809985253,2.16
0.0024700700138727337,2.161
0.001986470757268567,2.162
0.001321127611175972,2.163
0.0004741264036723606,2.164
-0.0005294421556226761,2.165
-0.0016518966333231367,2.166
-0.0028359018032828257,2.167
-0.003992240920332261,2.168
-0.00501197076316624,2.169
-0.005801507513909719,2.17
-0.006310368301263484,2.171
-0.006536251237186503,2.172
-0.006522887037031978,2.173
-0.006352715141493692,2.174
-0.0061141031880851395,2.175
-0.005853473790566138,2.176
-0.0055476368244860895,2.177
-0.005116131902617641,2.178
-0.004472970604414039,2.179
-0.0035821634301902473,2.18
-0.0024692327447572255,2.181
-0.0011943723605576505,2.182
0.00017702205793864497,2.183
0.0015890719009477052,2.184
0.0029827162870448916,2.185
0.004268721355960027,2.186
0.005327719637818943,2.187
0.006045790295001589,2.188
0.00635627443957362,2.189
0.00626167416642904,2.19
0.005831033372812539,2.191
0.0051814714949970295,2.192
0.004449385583082853,2.193
0.0037504572957770127,2.194
0.0031373066092525727,2.195
0.0025849771459421304,2.196
0.002020737295116861,2.197
0.0013762280005318653,2.198
0.0006311145340785001,2.199
-0.0001743822766982632,2.2
-0.000963539148000823,2.201
-0.0016620217343688813,2.202
-0.0022263372837075133,2.203
-0.0026505790455053965,2.204
-0.00294950537727296,2.205
-0.003130457896652871,2.206
-0.0031789410420444177,2.207
-0.0030714204784317474,2.208
-0.0028050167093744993,2.209
-0.00242337011291859,2.21
-0.002013829807403489,2.211
-0.0016649889524201387,2.212
-0.0014203485201313023,2.213
-0.0012664624796468083,2.214
-0.0011475512519779582,2.215
-0.0009903053511916137,2.216
-0.0007270328445738234,2.217
-0.00030547323998213644,2.218
0.0002992756603187827,2.219
0.0010571269790069903,2.22
0.0018672228118572648,2.221
0.002583041030212925,2.222
0.0030613208447335554,2.223
0.0031988683515342094,2.224
0.0029520177558447686,2.225
0.002351476814185189,2.226
0.0015032388592725926,2.227
0.0005560246921307231,2.228
-0.0003480283201200937,2.229
-0.001101372672938764,2.23
-0.0016327961931102703,2.231
-0.0019065410427585119,2.232
-0.001930671762614889,2.233
-0.001758368564901909,2.234
-0.0014694638285573083,2.235
-0.0011473763971440233,2.236
-0.0008643724751958655,2.237
-0.0006727041242506232,2.238
-0.0005924479931132021,2.239
-0.0005939377095559776,2.24
-0.0005993681561218476,2.241
-0.0005228720464604891,2.242
-0.0003254846156814754,2.243
-3.971991050836703e-05,2.244
0.00025823346851763514,2.245
0.0005036677933064423,2.246
0.0006819699876520885,2.247
0.0008294667776689368,2.248
0.0010047902143000443,2.249
0.0012542801254136493,2.25
0.0015887416533074557,2.251
0.0019747462567322395,2.252
0.002342080871593708,2.253
0.0026092101119674503,2.254
0.00271785824664397,2.255
0.0026543425733786424,2.256
0.0024362951855577135,2.257
0.0020769242415815264,2.258
0.0015677206528159368,2.259
0.000893170620263079,2.26
5.875062762185354e-05,2.261
-0.0008802166949803892,2.262
-0.0018065493407125818,2.263
-0.0025795715576410537,2.264
-0.0031145544939176445,2.265
-0.003431701991184182,2.266
-0.003638092340169167,2.267
-0.003872188068830122,2.268
-0.004231900081768616,2.269
-0.004711830032603998,2.27
-0.005195155127994735,2.271
-0.005498540744659194,2.272
-0.005434158239405315,2.273
-0.00486890227591845,2.274
-0.003763950492384299,2.275
-0.002180859759524248,2.276
-0.0002642509193792165,2.277
0.0017796530171084047,2.278
0.0037122897405756604,2.279
0.005315214460113699,2.28
0.006447752276588668,2.281
0.007069276579998372,2.282
0.0072144305418204045,2.283
0.006948883020775882,2.284
0.0063409100078017835,2.285
0.00545664716829411,2.286
0.004362653107010407,2.287
0.003124128725065762,2.288
0.0018051128843450195,2.289
0.0004776246833130325,2.29
-0.0007755127776609277,2.291
-0.0018757846757007182,2.292
-0.0027655473852511723,2.293
-0.003412417814419881,2.294
-0.003804769346507732,2.295
-0.003943065446034703,2.296
-0.003837584305734804,2.297
-0.0035208108540257586,2.298
-0.003059183735361505,2.299
-0.0025437852529206053,2.3
-0.002062502191762742,2.301
-0.001672942800163484,2.302
-0.0013899108314053433,2.303
-0.0011883426235552983,2.304
-0.0010222068386888667,2.305
-0.0008553525630463158,2.306
-0.0006795296551073776,2.307
-0.0005031843452086339,2.308
-0.0003317221512080769,2.309
-0.0001640955709389741,2.31
-3.110400929000139e-06,2.311
0.0001428590675550617,2.312
0.00027400868966688687,2.313
0.0004067572427845559,2.314
0.0005661777738612983,2.315
0.0007734448207504321,2.316
0.00102723706875502,2.317
0.0012873326142446532,2.318
0.0014821653868610412,2.319
0.001546720962770379,2.32
0.0014691139773130974,2.321
0.001307181678378992,2.322
0.0011614345196194786,2.323
0.0011282017893585032,2.324
0.0012557125529809446,2.325
0.0015192118365701852,2.326
0.0018343089441423114,2.327
0.0020962781597297715,2.328
0.0022103840359836893,2.329
0.002107524249120271,2.33
0.0017545097579680217,2.331
0.0011598276113550352,2.332
0.0003805646799916776,2.333
-0.0004715508548992748,2.334
-0.0012473214795957989,2.335
-0.001808599022577716,2.336
-0.0020781038887295587,2.337
-0.0020574286540877905,2.338
-0.0018114894076081808,2.339
-0.0014377185284025582,2.34
-0.0010396131658664345,2.341
-0.0007096940046807676,2.342
-0.000511557052922922,2.343
-0.0004649524836833934,2.344
-0.0005475308901060791,2.345
-0.0007092389288389833,2.346
-0.0008872383926346553,2.347
-0.001019037022392203,2.348
-0.0010580707150356266,2.349
-0.000988934355142827,2.35
-0.0008350000241115545,2.351
-0.0006501574494286774,2.352
-0.0004938978205683642,2.353
-0.0004062029656545749,2.354
-0.00039316112778982603,2.355
-0.0004272847872774744,2.356
-0.0004642844838721294,2.357
-0.0004635606233751916,2.358
-0.0004048747285568681,2.359
-0.00030028477009817924,2.36
-0.00018952892010384647,2.361
-0.00011986595306796101,2.362
-0.00012943498522855227,2.363
-0.0002341584875813053,2.364
-0.00041173088725992755,2.365
-0.0006007428000152706,2.366
-0.0007254349935222744,2.367
-0.000727967419225246,2.368
-0.0005925094557125529,2.369
-0.0003552439618198869,2.37
-9.015916024828673e-05,2.371
0.0001238660947865665,2.372
0.00023427889918489742,2.373
0.0002325184721712244,2.374
0.00014765066554261612,2.375
1.885587551520498e-05,2.376
-0.00012495155500841064,2.377
-0.0002581089450990443,2.378
-0.00034002752627092025,2.379
-0.0003129730956505359,2.38
-0.00011569836435139213,2.381
0.000294987664985741,2.382
0.0009194287258561742,2.383
0.0017060451627921459,2.384
0.0025583742038359134,2.385
0.0033393554258665656,2.386
0.003890612619530469,2.387
0.004087345959003564,2.388
0.0038937624194314894,2.389
0.0033747103653093396,2.39
0.0026568614135884477,2.391
0.001863756084412672,2.392
0.001069478604885591,2.393
0.00029973421605096094,2.394
-0.00043899051911505324,2.395
-0.0011349553626969404,2.396
-0.0017575180299474493,2.397
-0.0022515794745476517,2.398
-0.0025490018853703803,2.399
-0.0025985024058236008,2.4
-0.0023942466555424606,2.401
-0.001986789468416152,2.402
-0.001479439553944214,2.403
-0.0010086824323390208,2.404
-0.0007027127896649171,2.405
-0.0006362582725281542,2.406
-0.0008129623707123546,2.407
-0.0011839806772411135,2.408
-0.0016791052927340958,2.409
-0.0022214983348304166,2.41
-0.0027272470560867085,2.411
-0.0031117966933959644,2.412
-0.003308904982095995,2.413
-0.003280559800317086,2.414
-0.003006848653075473,2.415
-0.002485717560163618,2.416
-0.0017577860152646087,2.417
-0.0009238745718349264,2.418
-0.0001236499164007118,2.419
0.0005298813193995753,2.42
0.0010200405718407961,2.421
0.0014320794697328463,2.422
0.0018885838445610564,2.423
0.0024768644828341165,2.424
0.0032097535725314204,2.425
0.004020259083117952,2.426
0.004779695759361163,2.427
0.0053263335477763355,2.428
0.0055052419759394,2.429
0.005226850606789491,2.43
0.004518075071555391,2.431
0.003518990243875796,2.432
0.002420378228274287,2.433
0.0013876849124659135,2.434
0.0005145687025831638,2.435
-0.000175181226628714,2.436
-0.0006916473655348536,2.437
-0.0010566639785331386,2.438
-0.0013070395686882637,2.439
-0.001485154976068714,2.44
-0.0016148573962235797,2.441
-0.0016947072869442064,2.442
-0.0017152862378773223,2.443
-0.001683046258280003,2.444
-0.001637251426575236,2.445
-0.0016533289774901103,2.446
-0.0018158725575507274,2.447
-0.0021657026463339103,2.448
-0.0026746412568480764,2.449
-0.003278072724582486,2.45
-0.003919707080401897,2.451
-0.004555532218750806,2.452
-0.005128440609646559,2.453
-0.005566111677429384,2.454
-0.00581656269795982,2.455
-0.005877974538223298,2.456
-0.005789242983501727,2.457
-0.00559815973726692,2.458
-0.005336945398593867,2.459
-0.005007887621970864,2.46
-0.004571623739076322,2.461
-0.003945565786343212,2.462
-0.003020759053692911,2.463
-0.0016929393093948716,2.464
0.00010773675175873236,2.465
0.0024009100148605746,2.466
0.0051405454535722594,2.467
0.008187929447811325,2.468
0.01129638595472435,2.469
0.014137927820163855,2.47
0.016374087850558956,2.471
0.01773569259210438,2.472
0.018081408305566572,2.473
0.017431166764252635,2.474
0.015948428907432692,2.475
0.013858019091766675,2.476
0.01135437084954361,2.477
0.008556133838214118,2.478
0.005511913764096859,2.479
0.002242883886041895,2.48
-0.0011917320916411454,2.481
-0.004642421922376426,2.482
-0.00788089230754518,2.483
-0.01067115287347408,2.484
-0.012837448957748153,2.485
-0.014296654361286127,2.486
-0.015069913192751902,2.487
-0.015278310907979119,2.488
-0.015104664414119038,2.489
-0.014719425429190948,2.49
-0.014214606345083316,2.491
-0.013595685161864041,2.492
-0.012823320186368115,2.493
-0.011859458496666328,2.494
-0.010695453407618462,2.495
-0.009357546364664453,2.496
-0.007890865959580445,2.497
-0.006340642561347909,2.498
-0.004740363073318882,2.499
-0.0031034433691014994,2.5
-0.001421138554131563,2.501
0.000335158114923771,2.502
0.0022074307507734246,2.503
0.004235236518248612,2.504
0.006436995777486205,2.505
0.00880239468706681,2.506
0.011292029651378894,2.507
0.0138216863444705,2.508
0.016234171409919132,2.509
0.01829606877932874,2.51
0.01974623528228207,2.511
0.020378573050654318,2.512
0.02010377530290532,2.513
0.018952651351818357,2.514
0.01703803980462874,2.515
0.014517733539367576,2.516
0.011573576769147416,2.517
0.008379272929049606,2.518
0.005052061809218079,2.519
0.00163176445769983,2.52
-0.001899785441455534,2.521
-0.005591929887688497,2.522
-0.009496013474826601,2.523
-0.013611120699535307,2.524
-0.017819137902351585,2.525
-0.021846744369188497,2.526
-0.025276717401768695,2.527
-0.02762680019673966,2.528
-0.02848024077025393,2.529
-0.027603080434733036,2.53
-0.02499831780910538,2.531
-0.02088535309350644,2.532
-0.015612766164059159,2.533
-0.009549064649082332,2.534
-0.0030333218667912398,2.535
0.003574880607638858,2.536
0.009819048599394767,2.537
0.01516075294295207,2.538
0.019112900827459416,2.539
0.021398304219495783,2.54
0.022032231223955798,2.541
0.021307204036059492,2.542
0.01970141162354202,2.543
0.01773927358802294,2.544
0.015852830534571358,2.545
0.014290098061418953,2.546
0.013092976619664765,2.547
0.012148711726283349,2.548
0.011280650205811623,2.549
0.010317856024404536,2.55
0.009123055685959539,2.551
0.007604675771968826,2.552
0.005719155285061825,2.553
0.003451602646783115,2.554
0.0007954780288833934,2.555
-0.0022431819293513683,2.556
-0.0056156146493793,2.557
-0.009184962193436173,2.558
-0.01270569125806966,2.559
-0.015866391512258063,2.56
-0.01837032131944886,2.561
-0.020005302664001832,2.562
-0.020690856614316952,2.563
-0.020496250106513382,2.564
-0.019615805285276115,2.565
-0.018317351494201096,2.566
-0.01688706266818167,2.567
-0.015565402725327825,2.568
-0.014487610409234132,2.569
-0.013672841590146347,2.57
-0.013060408550594803,2.571
-0.012544717190151251,2.572
-0.01198868560090745,2.573
-0.011229935977024666,2.574
-0.010082316445280999,2.575
-0.008324810213882216,2.576
-0.005703806179166444,2.577
-0.0019947697289361046,2.578
0.0028867482084584265,2.579
0.008795517570555071,2.58
0.015344654068260083,2.581
0.021969681321460943,2.582
0.028032843577060786,2.583
0.03294213000451693,2.584
0.03625812998028635,2.585
0.03774763811503279,2.586
0.03738278375021734,2.587
0.0353179338344348,2.588
0.03184798583092491,2.589
0.027338751654554523,2.59
0.02214666424175908,2.591
0.016564853484653645,2.592
0.010818689038677425,2.593
0.005088376249697076,2.594
-0.00048076748366772436,2.595
-0.005783325327530344,2.596
-0.010751536085099987,2.597
-0.015336469584813672,2.598
-0.0194822870121659,2.599
-0.023107368576698515,2.6
-0.02610226747298571,2.601
-0.0283423947852883,2.602
-0.029704324177098052,2.603
-0.030086341131384586,2.604
-0.029425681440353513,2.605
-0.02768974009082986,2.606
-0.024860024783431016,2.607
-0.020954361117212904,2.608
-0.016080108350881604,2.609
-0.010464846188463791,2.61
-0.004432668403398048,2.611
0.0016539057464184453,2.612
0.007441341418996022,2.613
0.012601083814061647,2.614
0.01683056928347813,2.615
0.01986263880224161,2.616
0.02149882351959433,2.617
0.02166572217139021,2.618
0.020455935948817547,2.619
0.01811618494912982,2.62
0.01499510436262038,2.621
0.011477340424468449,2.622
0.007912746660052615,2.623
0.004552843829087621,2.624
0.0015253063275656126,2.625
-0.001140647582788986,2.626
-0.003467800458938973,2.627
-0.0054863884594850585,2.628
-0.007199544496792873,2.629
-0.008581626976340705,2.63
-0.009613328437200539,2.631
-0.010320888976085517,2.632
-0.01078906868768013,2.633
-0.011139827573190183,2.634
-0.011477249250183744,2.635
-0.011815755214345677,2.636
-0.0120331075123121,2.637
-0.011876961222110698,2.638
-0.011032483027451323,2.639
-0.009240190730781249,2.64
-0.006410059755156667,2.641
-0.0026753785168581456,2.642
0.001622732227332985,2.643
0.006011268260411112,2.644
0.010008636013489332,2.645
0.013244099515255587,2.646
0.015508356570690515,2.647
0.016730967375569675,2.648
0.01693903295549533,2.649
0.016235332488376764,2.65
0.014785043062358493,2.651
0.012787511255496094,2.652
0.010436757853025318,2.653
0.007899014102535755,2.654
0.005319954674666678,2.655
0.002838452690940443,2.656
0.0005868703221825118,2.657
-0.0013124939842780816,2.658
-0.0027455724060728858,2.659
-0.003614344466684062,2.66
-0.003866835889191845,2.661
-0.003530152030908363,2.662
-0.0027194929576530324,2.663
-0.0016210935561108881,2.664
-0.0004592745201542525,2.665
0.0005492260166989996,2.666
0.0012391995361438893,2.667
0.0015117423531310972,2.668
0.0013118861734141716,2.669
0.0005939084236545826,2.67
-0.0006836649213296723,2.671
-0.002522111617526334,2.672
-0.004845332541139,2.673
-0.007496587991916095,2.674
-0.010262674833164877,2.675
-0.01290412514363455,2.676
-0.01518374438558784,2.677
-0.016890296120540608,2.678
-0.017852142992958606,2.679
-0.01795078589140627,2.68
-0.01713743781613608,2.681
-0.015434304587898457,2.682
-0.012915754133217397,2.683
-0.009680766046074275,2.684
-0.005840349481752226,2.685
-0.0015423209618279127,2.686
0.0029926019121756142,2.687
0.007470055509831947,2.688
0.011559994967513412,2.689
0.014951337336436913,2.69
0.017409375728118657,2.691
0.01880679319961057,2.692
0.01910326565120216,2.693
0.018317797819761127,2.694
0.016547816266149196,2.695
0.013996444027070504,2.696
0.010939759592671015,2.697
0.007655171717875862,2.698
0.004380849347232489,2.699
0.0013136198531866967,2.7
-0.0013913308065574292,2.701
-0.0036283204212126476,2.702
-0.005345184829808105,2.703
-0.006532525502915564,2.704
-0.0071896646204187824,2.705
-0.007288221923463956,2.706
-0.006775899311783982,2.707
-0.005616952168285745,2.708
-0.0038272787345226184,2.709
-0.0014958697190262445,2.71
0.001195907028407909,2.711
0.003981555449858153,2.712
0.006561816785762112,2.713
0.008664124976731328,2.714
0.010072591385504167,2.715
0.010634409280457552,2.716
0.010263772091023818,2.717
0.008963487176505112,2.718
0.0068618428055197715,2.719
0.004230029427899367,2.72
0.0014438518400126251,2.721
-0.0011199433583500187,2.722
-0.0032133037001523933,2.723
-0.004793420187260056,2.724
-0.005999827072328874,2.725
-0.007054113836106518,2.726
-0.008131743800723741,2.727
-0.00926487134465269,2.728
-0.01033510502776381,2.729
-0.01115094863763422,2.73
-0.011534268977605611,2.731
-0.01136928458963109,2.732
-0.010632996356414024,2.733
-0.0094213783847844,2.734
-0.007939804446014399,2.735
-0.006428778490243204,2.736
-0.005064079883828925,2.737
-0.003907316869750221,2.738
-0.002925030917761208,2.739
-0.0020296295522453252,2.74
-0.0011072199274327363,2.741
-4.5486747791269205e-05,2.742
0.0012151337613920878,2.743
0.0026300902724401653,2.744
0.004049785078633126,2.745
0.00527221470642158,2.746
0.0061079601940929465,2.747
0.006426855341513561,2.748
0.006177003353105488,2.749
0.005387214022367514,2.75
0.004169807574253363,2.751
0.0027089361446072293,2.752
0.001211268979832888,2.753
-0.00016330492524717892,2.754
-0.001347855947433572,2.755
-0.0023638731973393214,2.756
-0.003275975253586075,2.757
-0.004132814812287517,2.758
-0.00491479604150962,2.759
-0.005516325648335548,2.76
-0.0057711114603340346,2.761
-0.005491783146212639,2.762
-0.004507103223266538,2.763
-0.0027055422335506224,2.764
-8.556226626490409e-05,2.765
0.003211849588558625,2.766
0.006910618890680019,2.767
0.010642994011423362,2.768
0.014014738920812113,2.769
0.016673559987497758,2.77
0.018362616266917833,2.771
0.01894978957286257,2.772
0.01843246922891753,2.773
0.016931225088656982,2.774
0.01467017343302537,2.775
0.011922399275008518,2.776
0.008932781460496546,2.777
0.005859851744640609,2.778
0.002761362315194692,2.779
-0.0003799299383561043,2.78
-0.0036112692410289666,2.781
-0.006965912742279664,2.782
-0.010431471946848002,2.783
-0.013932502267395933,2.784
-0.017323112784131404,2.785
-0.020389148193850046,2.786
-0.02286768942553505,2.787
-0.02449068516145838,2.788
-0.025032691901183533,2.789
-0.024333915173412317,2.79
-0.02231256097677552,2.791
-0.018985069897140813,2.792
-0.01446446070409859,2.793
-0.008927505977231083,2.794
-0.002600556956172481,2.795
0.004205585253562985,2.796
0.011048324182727907,2.797
0.017365028422498235,2.798
0.02257342335377931,2.799
0.02620655614342358,2.8
0.027999383024151753,2.801
0.02789619875415613,2.802
0.026025576059316234,2.803
0.022686660011452232,2.804
0.01830997220380038,2.805
0.013361468826901505,2.806
0.008249353689011115,2.807
0.0032957080674997016,2.808
-0.0012444186805626804,2.809
-0.005175999305729278,2.81
-0.00840172926402754,2.811
-0.010976245353443931,2.812
-0.013113910342043601,2.813
-0.015099572834883859,2.814
-0.017112475524173495,2.815
-0.019066191248287314,2.816
-0.02058857616205496,2.817
-0.021178168052606063,2.818
-0.020455308551696486,2.819
-0.01834775068354798,2.82
-0.015104644884426113,2.821
-0.011168620382782402,2.822
-0.006992306694282881,2.823
-0.002891671850121999,2.824
0.0009882880314716442,2.825
0.004597219928584852,2.826
0.00787229658094227,2.827
0.010694262113033037,2.828
0.01292223006879519,2.829
0.014441045995947992,2.83
0.015180557187754896,2.831
0.01510987003738758,2.832
0.01421685341929635,2.833
0.012503338741906317,2.834
0.010013653278468008,2.835
0.00687285661377633,2.836
0.0033021706361152543,2.837
-0.00040611263501422445,2.838
-0.00393950147839438,2.839
-0.007016662292317007,2.84
-0.009439293401039188,2.841
-0.01113645509933251,2.842
-0.012166402491605941,2.843
-0.012658965228793366,2.844
-0.012726535939784808,2.845
-0.012399391045721554,2.846
-0.011620625221586042,2.847
-0.010286460676359521,2.848
-0.008305966457479427,2.849
-0.005657656609564696,2.85
-0.00240680374994356,2.851
0.0013304412712728361,2.852
0.005436517495167848,2.853
0.009796915368082507,2.854
0.014251873301613455,2.855
0.018550484131056297,2.856
0.02235660628452019,2.857
0.025306549803237738,2.858
0.02708212441878512,2.859
0.027463597755554812,2.86
0.026353381805557574,2.861
0.02377579113341435,2.862
0.019862236569671687,2.863
0.014830777271337027,2.864
0.008960593902413787,2.865
0.0025709192724170135,2.866
-0.003979893402017929,2.867
-0.010291050223867004,2.868
-0.01594287427534541,2.869
-0.020554789216180643,2.87
-0.023857636849325844,2.871
-0.025734857263398546,2.872
-0.026204779827027538,2.873
-0.02537771124769277,2.874
-0.02342988317934295,2.875
-0.020580480471898643,2.876
-0.017051596650365982,2.877
-0.013045190766493039,2.878
-0.008761934307784075,2.879
-0.004430313661057447,2.88
-0.0003125530452138905,2.881
0.0033246903612881634,2.882
0.006268198934471177,2.883
0.008405064429517602,2.884
0.009719294516086099,2.885
0.010244994762238929,2.886
0.010017834578616453,2.887
0.009062239085300319,2.888
0.007425410667653969,2.889
0.0052331608085466556,2.89
0.002717616969398436,2.891
0.00019410175090790743,2.892
-0.0019962092951173616,2.893
-0.0035632761061053417,2.894
-0.00434662146897059,2.895
-0.004358740513431056,2.896
-0.003766696177123196,2.897
-0.0028185296676380583,2.898
-0.001753023818522136,2.899
-0.0007359936846742373,2.9
0.00015321829981180797,2.901
0.0008906641943703502,2.902
0.0014703167737725794,2.903
0.0018889179889539122,2.904
0.0021465872548300027,2.905
0.0022615220742204264,2.906
0.002292764050043514,2.907
0.0023367871012161703,2.908
0.0024853859155637317,2.909
0.002775483074150915,2.91
0.0031681834378392087,2.911
0.003568186529576019,2.912
0.0038577520096887536,2.913
0.003913485840527833,2.914
0.0036143374333674496,2.915
0.0028690421278281457,2.916
0.0016532374839525832,2.917
2.6889602632034233e-05,2.918
-0.0018685752730533724,2.919
-0.003820215642364662,2.92
-0.005565846867227757,2.921
-0.00684000425538622,2.922
-0.007426648183887538,2.923
-0.007192811339512248,2.924
-0.006106430757874325,2.925
-0.004241664834021773,2.926
-0.0017669854309006524,2.927
0.0010676638577264942,2.928
0.003946444631490376,2.929
0.006534529855129897,2.93
0.008544394312271603,2.931
0.009783934657949666,2.932
0.010181044340740457,2.933
0.009782408381136498,2.934
0.00871016529817869,2.935
0.007095460723320791,2.936
0.005041445692337068,2.937
0.0026463986656684296,2.938
5.9691415558127075e-05,2.939
-0.0024943293109623756,2.94
-0.004751508742688942,2.941
-0.006470987601693041,2.942
-0.007487941692495347,2.943
-0.007735994821330776,2.944
-0.007238122977106097,2.945
-0.006082374851524367,2.946
-0.00440971169751398,2.947
-0.0024216516581078104,2.948
-0.0003745013499653906,2.949
0.001466135753869092,2.95
0.002890883092452414,2.951
0.003792507379066074,2.952
0.004160661640651778,2.953
0.004027076464378889,2.954
0.0034144312721017048,2.955
0.002332993433723459,2.956
0.0008019573891290652,2.957
-0.001133177578302558,2.958
-0.0033793084981980745,2.959
-0.005775296671048175,2.96
-0.008100384751891298,2.961
-0.01011899051760828,2.962
-0.011637511276106316,2.963
-0.012547089972239944,2.964
-0.01283757882263177,2.965
-0.012575973533981986,2.966
-0.011854562116792366,2.967
-0.010726410021290938,2.968
-0.009162815198313417,2.969
-0.007061762900549445,2.97
-0.004297716698645504,2.971
-0.0007884891014143206,2.972
0.003448580903469592,2.973
0.008283638230270094,2.974
0.013496202158776853,2.975
0.018796930727246603,2.976
0.023834165600157414,2.977
0.028181656293084573,2.978
0.03132002012811239,2.979
0.03265299226882799,2.98
0.031602304255243796,2.981
0.027774787910087986,2.982
0.02113737632646704,2.983
0.012140501334475412,2.984
0.0017454177088772043,2.985
-0.008693087317250969,2.986
-0.017698877491535456,2.987
-0.02404287901023124,2.988
-0.02707683461957553,2.989
-0.026875138860153962,2.99
-0.024122409551941722,2.991
-0.019831814408231178,2.992
-0.015039513597583383,2.993
-0.010572116448928413,2.994
-0.006922091901178403,2.995
-0.0042405551641813,2.996
-0.002420973068013224,2.997
-0.001210244800565474,2.998
-0.00030701972021898315,2.999
0.0005458815919455212,3.0
0.0014765207689563322,3.001
0.00244188616843746,3.002
0.0032632207025368393,3.003
0.00373406548171722,3.004
0.0037341210355048165,3.005
0.0032646698814419077,3.006
0.002404172992693959,3.007
0.001254144760296456,3.008
-8.162460098692585e-05,3.009
-0.0014854101644016244,3.01
-0.002808540579685517,3.011
-0.0038907049038757156,3.012
-0.004619819486478856,3.013
-0.004977609831735063,3.014
-0.005023787308584508,3.015
-0.004846309258641032,3.016
-0.004530189987539561,3.017
-0.004137933723335979,3.018
-0.0036750709719429384,3.019
-0.003065087876594587,3.02
-0.0021706367780552913,3.021
-0.0008668708447995903,3.022
0.0008559858545853621,3.023
0.002830326800790257,3.024
0.004759333558313238,3.025
0.006354465780967515,3.026
0.007466449689671454,3.027
0.008125551114771793,3.028
0.008477528965831524,3.029
0.008665307500810139,3.03
0.008724556084182983,3.031
0.008556544716252884,3.032
0.007996180186878896,3.033
0.006920631625185921,3.034
0.005329837289587666,3.035
0.003377500800096235,3.036
0.0013633743607989663,3.037
-0.00031624556014828853,3.038
-0.0012697264656524308,3.039
-0.0012407522322219501,3.04
-0.0002189124597070406,3.041
0.0015156554982554249,3.042
0.0034387800856492986,3.043
0.004911655187332284,3.044
0.005353002863918812,3.045
0.004403826029238915,3.046
0.0020338516488012065,3.047
-0.001443746331867614,3.048
-0.005431904560151211,3.049
-0.00914992098024204,3.05
-0.011800620724234913,3.051
-0.012831810566702717,3.052
-0.012164676460128216,3.053
-0.010188687932145033,3.054
-0.007521854800068524,3.055
-0.004730037010211513,3.056
-0.0021482018724693205,3.057
0.00017838981467658204,3.058
0.0024424968770369792,3.059
0.004924743236020461,3.06
0.007795956182155757,3.061
0.010943341668523811,3.062
0.013889171706937337,3.063
0.015861159215926974,3.064
0.016015546278210092,3.065
0.013727208898689247,3.066
0.008848162345796834,3.067
0.001875668359894337,3.068
-0.00604764406598408,3.069
-0.01337713830817974,3.07
-0.018613746217919544,3.071
-0.02079358505554871,3.072
-0.01980221133011388,3.073
-0.016351845874058937,3.074
-0.011647340417300114,3.075
-0.006936960103719055,3.076
-0.003156843878770297,3.077
-0.0007669695196769596,3.078
0.0002458744514849639,3.079
0.0002675709860247659,3.08
-9.676506815977847e-05,3.081
-0.00020903838904050818,3.082
0.00041282898912648044,3.083
0.0019619235890838906,3.084
0.004309186303837919,3.085
0.007042376649170914,3.086
0.009535302335077147,3.087
0.011072249967145622,3.088
0.011055308171551485,3.089
0.009229412180377521,3.09
0.005812724377858407,3.091
0.0014680698709874664,3.092
-0.0028761973719909316,3.093
-0.006296853144839468,3.094
-0.008174929559438215,3.095
-0.008429045432424467,3.096
-0.0075186415691139005,3.097
-0.006167367247575423,3.098
-0.005009262748467488,3.099
-0.0043857832500872815,3.1
-0.00433137276161447,3.101
-0.004671561051590395,3.102
-0.005151582154296967,3.103
-0.005533912794842952,3.104
-0.005639795739148798,3.105
-0.005335638609553999,3.106
-0.004490624012016874,3.107
-0.0029634070036250967,3.108
-0.0006529305625193948,3.109
0.002427626069659728,3.11
0.006117244762914349,3.111
0.010117638121774448,3.112
0.014014244827203952,3.113
0.017313564558464715,3.114
0.01953497072689574,3.115
0.020332613066459768,3.116
0.01956633656141751,3.117
0.01729732303174278,3.118
0.013758515585370602,3.119
0.009334938232893532,3.12
0.00452848228351029,3.121
-0.00010939881220874339,3.122
-0.004050293971131951,3.123
-0.006865415687206853,3.124
-0.008320785710421438,3.125
-0.008461066592569974,3.126
-0.007629896622716676,3.127
-0.00639260533548555,3.128
-0.0053628355232387985,3.129
-0.004988427571033542,3.13
-0.005401479909890101,3.131
-0.0064260943922052945,3.132
-0.007734510971496314,3.133
-0.009038409909991557,3.134
-0.010206304886109614,3.135
-0.0112622930530757,3.136
-0.01228160861432178,3.137
-0.01325586513328998,3.138
-0.014001709028276242,3.139
-0.014140625000051251,3.14
-0.01315773497780219,3.141
-0.010536265698587196,3.142
-0.005940633855443754,3.143
0.0006073228965924239,3.144
0.008638267837760285,3.145
0.017280326647799448,3.146
0.025398560479090858,3.147
0.03176330240307211,3.148
0.03524660845812176,3.149
0.035046961254224476,3.15
0.030876385456199452,3.151
0.023044950875416987,3.152
0.012451734236964801,3.153
0.0005214731615473681,3.154
-0.010967480334751045,3.155
-0.02025155990481398,3.156
-0.026034226844412825,3.157
-0.027785111393446554,3.158
-0.02581637933243022,3.159
-0.021192955918849038,3.16
-0.01547481397837527,3.161
-0.010302988836574305,3.162
-0.0069639347487775866,3.163
-0.006064317055612575,3.164
-0.007348950319887964,3.165
-0.009732916555739598,3.166
-0.011643784589463992,3.167
-0.011572230419097803,3.168
-0.008557704600873257,3.169
-0.0024141795050756517,3.17
0.006299638942874507,3.171
0.016445016768571175,3.172
0.02650878431742391,3.173
0.034820124365494656,3.174
0.03976688429064361,3.175
0.04002216982903155,3.176
0.034809473798264615,3.177
0.024170804211278884,3.178
0.009138187612206906,3.179
-0.008276714217720036,3.18
-0.025366809149779262,3.181
-0.03934410439041608,3.182
-0.04810545007503368,3.183
-0.050756218124168924,3.184
-0.04762443962406703,3.185
-0.039891280242413514,3.186
-0.029177414146527313,3.187
-0.017218657280039032,3.188
-0.005562419608789499,3.189
0.004693535379829991,3.19
0.013015683066985488,3.191
0.019374394009975843,3.192
0.024072989791851965,3.193
0.027547964103114903,3.194
0.03019205484840149,3.195
0.03224135727313257,3.196
0.03376077286801328,3.197
0.034690735259718136,3.198
0.034856026694223864,3.199
0.033922087602318,3.2
0.03139785879725176,3.201
0.02675103076967781,3.202
0.0196084214882207,3.203
0.00997579978742196,3.204
-0.0015929771037872446,3.205
-0.01393152454476343,3.206
-0.025339540093713683,3.207
-0.03387754225396153,3.208
-0.03792888365230324,3.209
-0.03687525926881779,3.21
-0.03150756968762527,3.211
-0.023839124424699352,3.212
-0.016330712721087937,3.213
-0.010906687665779652,3.214
-0.008278769499865854,3.215
-0.00788539095979108,3.216
-0.00837907902450115,3.217
-0.008389776625650502,3.218
-0.0072201558102815465,3.219
-0.005131712949932679,3.22
-0.003097461070887167,3.221
-0.0021934253447415224,3.222
-0.002979476566382025,3.223
-0.0051926482202437505,3.224
-0.007836777883811706,3.225
-0.009532104075479267,3.226
-0.008948237204630482,3.227
-0.005181329601061643,3.228
0.0020128199896008764,3.229
0.012125685717967198,3.23
0.023897840534220085,3.231
0.03543659729102863,3.232
0.04449556139604759,3.233
0.04889107677647253,3.234
0.04697671166498051,3.235
0.03811105033331135,3.236
0.023039023837989756,3.237
0.004006974146810056,3.238
-0.015591447938462951,3.239
-0.03207042901468897,3.24
-0.0425602087365104,3.241
-0.04587825024102512,3.242
-0.04268889942223913,3.243
-0.03489158290510515,3.244
-0.02469205062257862,3.245
-0.013909798829368894,3.246
-0.0037259857907311214,3.247
0.0052716813051301974,3.248
0.012934026675088323,3.249
0.019308520056030377,3.25
0.024314299915777417,3.251
0.027556810422556092,3.252
0.028505727734389755,3.253
0.026869662616403743,3.254
0.022787537884713376,3.255
0.01673180632993352,3.256
0.009329623744993956,3.257
0.001267975479629909,3.258
-0.0067123481779410915,3.259
-0.013760686196738004,3.26
-0.018936610906725736,3.261
-0.021534132149719314,3.262
-0.021553973229643617,3.263
-0.019805788847903138,3.264
-0.017474056353097824,3.265
-0.015492676757143675,3.266
-0.014134371499058196,3.267
-0.013041218557007083,3.268
-0.011644012001648867,3.269
-0.009608167137261387,3.27
-0.006961636046671091,3.271
-0.003927623632567265,3.272
-0.0007368673963473753,3.273
0.0023948256361601703,3.274
0.005170157452417926,3.275
0.0071687859183310635,3.276
0.007976880499096421,3.277
0.007453928771748542,3.278
0.005975019001630626,3.279
0.004478076198794565,3.28
0.004273439194355068,3.281
0.006658706674632826,3.282
0.012411499194503472,3.283
0.021342773597046675,3.284
0.03212054300879768,3.285
0.042428186429817674,3.286
0.049425561935873184,3.287
0.0504910295589825,3.288
0.04415309892527683,3.289
0.030857389601483924,3.29
0.01299471332134022,3.291
-0.006118105805015855,3.292
-0.023822935708153543,3.293
-0.03911429542733626,3.294
-0.05226327981182491,3.295
-0.06354604623712377,3.296
-0.07219546490157668,3.297
-0.07627830211174451,3.298
-0.07351795965756691,3.299
-0.06251588734334478,3.3
-0.043646819792769985,3.301
-0.019222863500734252,3.302
0.007108678633522417,3.303
0.03143072973401943,3.304
0.050505122143734656,3.305
0.06223596304553682,3.306
0.06574864941878746,3.307
0.06132305851364671,3.308
0.05027323370672048,3.309
0.03474565431629853,3.31
0.017409584744477607,3.311
0.0010456728048831828,3.312
-0.011967512775150782,3.313
-0.02018963412663378,3.314
-0.02340744279624783,3.315
-0.022452906103755513,3.316
-0.018696206660805088,3.317
-0.013533497153228484,3.318
-0.00801246652532246,3.319
-0.002657665512089694,3.32
0.0023805821368915792,3.321
0.006899176947641535,3.322
0.010273192169924693,3.323
0.011479528749969787,3.324
0.009558016438958143,3.325
0.004239648195375744,3.326
-0.0036363800103892665,3.327
-0.012164425255482367,3.328
-0.01892879818932318,3.329
-0.021901759289533435,3.33
-0.02026135009623212,3.331
-0.014677832298465178,3.332
-0.006901641194233314,3.333
0.0011038933233111375,3.334
0.007940313179192348,3.335
0.012968623847937883,3.336
0.015940172763877065,3.337
0.016625596584375856,3.338
0.014920304528459773,3.339
0.011281164532523393,3.34
0.0069737610911199625,3.341
0.0038036014259272147,3.342
0.003373758332226481,3.343
0.006240934027790048,3.344
0.01151972143656976,3.345
0.0171897301107698,3.346
0.020859379172206503,3.347
0.02061050545930589,3.348
0.015620994894135716,3.349
0.00632732967141682,3.35
-0.005851588450009126,3.351
-0.018911040612264392,3.352
-0.03053862742289853,3.353
-0.038460037787216024,3.354
-0.041125031070600705,3.355
-0.03845688916746459,3.356
-0.032024795080543025,3.357
-0.024375564033449315,3.358
-0.017899481283001034,3.359
-0.01387666775259507,3.36
-0.012115101535913287,3.361
-0.011235729460946375,3.362
-0.009464940680151808,3.363
-0.005556818434323082,3.364
0.0007162365880282647,3.365
0.008731139536884298,3.366
0.01747807416430019,3.367
0.025879754806176103,3.368
0.03292875238837502,3.369
0.03785310090976968,3.37
0.040353445754171886,3.371
0.040673947357637505,3.372
0.03935219447203626,3.373
0.03689853632125405,3.374
0.03377431605058841,3.375
0.03059631617292781,3.376
0.028018871547239678,3.377
0.02603733786594422,3.378
0.02331922187700506,3.379
0.017438276959434253,3.38
0.006114257799701255,3.381
-0.01135021328796354,3.382
-0.03330142074329426,3.383
-0.05602390698903438,3.384
-0.07505235954334244,3.385
-0.08687118757825135,3.386
-0.08996221904735695,3.387
-0.08470641065577687,3.388
-0.07255557846038177,3.389
-0.055167455929700404,3.39
-0.03396331649283841,3.391
-0.010215151809641073,3.392
0.014657453466547404,3.393
0.039012637797591225,3.394
0.06115303805639988,3.395
0.07944436136137181,3.396
0.0922954488777741,3.397
0.09818182983817694,3.398
0.09586975081503972,3.399
0.08482339914096525,3.4
0.06564220536537008,3.401
0.04027550313850198,3.402
0.011754165626673509,3.403
-0.01656036184804254,3.404
-0.04184453312866361,3.405
-0.06241834920947239,3.406
-0.07788719108425919,3.407
-0.08863235884582502,3.408
-0.09481494124548977,3.409
-0.09572107290229263,3.41
-0.09011008788602988,3.411
-0.07731168384275999,3.412
-0.058195695780671235,3.413
-0.03515060144825715,3.414
-0.011014079529540942,3.415
0.012048064875685282,3.416
0.0327476486008644,3.417
0.05009694314756489,3.418
0.06295613243272034,3.419
0.07025212580443849,3.42
0.07156118921812075,3.421
0.06746140556579198,3.422
0.05938996672113802,3.423
0.049141940814312134,3.424
0.03838813488471841,3.425
0.028500839860719576,3.426
0.020572091119137416,3.427
0.015303046239957232,3.428
0.01273267136048763,3.429
0.012104137785156828,3.43
0.012038981300034744,3.431
0.010926759073458522,3.432
0.0074763987174944055,3.433
0.0013204672393942684,3.434
-0.006720759045137796,3.435
-0.015036557268929869,3.436
-0.022089320768260708,3.437
-0.02716455712760068,3.438
-0.03057902041011404,3.439
-0.03333079307899535,3.44
-0.03641600186776803,3.441
-0.040149589674516914,3.442
-0.04385875408449512,3.443
-0.046176548266341835,3.444
-0.04584096609345767,3.445
-0.042465305622048005,3.446
-0.036679150931908405,3.447
-0.02958360830634031,3.448
-0.021927463165449666,3.449
-0.013493925330154755,3.45
-0.003156196721088138,3.451
0.010292179833021838,3.452
0.02706588928384302,3.453
0.04585310939774271,3.454
0.06408153967285345,3.455
0.07856900194144985,3.456
0.0861433729980713,3.457
0.08424998084212391,3.458
0.07166717482920498,3.459
0.049230703567142264,3.46
0.02023835801592148,3.461
-0.00992296917959432,3.462
-0.03520421941963786,3.463
-0.05096510465779365,3.464
-0.055636280912524476,3.465
-0.05110424547809294,3.466
-0.04170335739164638,3.467
-0.03244024046501973,3.468
-0.02736698968888244,3.469
-0.028457934583486805,3.47
-0.03493187255521257,3.471
-0.04347104381518101,3.472
-0.049740913845656605,3.473
-0.05041246213702829,3.474
-0.04428739094553298,3.475
-0.03207323900903342,3.476
-0.015476529822121943,3.477
0.003639721964285481,3.478
0.023718726581429216,3.479
0.04357704567013888,3.48
0.062172505469106756,3.481
0.0782278103560455,3.482
0.09004536625242252,3.483
0.09582549511497747,3.484
0.09435332127118547,3.485
0.08551972073624568,3.486
0.07024914333411758,3.487
0.04997057370336133,3.488
0.026240865957280188,3.489
0.0009056527479360679,3.49
-0.02354698445432847,3.491
-0.044055837737004486,3.492
-0.0577699685484189,3.493
-0.06339734148226833,3.494
-0.06225310424330371,3.495
-0.05787288349378896,3.496
-0.054151236611738936,3.497
-0.05320470937435178,3.498
-0.054366515326589884,3.499
-0.054995032463360384,3.5
-0.05242617287462064,3.501
-0.04550918910506914,3.502
-0.03474602684410848,3.503
-0.021480906159662586,3.504
-0.007267798690223191,3.505
0.006167743762747529,3.506
0.01692781062169712,3.507
0.023501208872835865,3.508
0.025683447939714544,3.509
0.024992641132859136,3.51
0.02403589839175162,3.511
0.025214574244807064,3.512
0.02965418716225636,3.513
0.036934766066182366,3.514
0.04554521966335318,3.515
0.053566188750522686,3.516
0.0591101515100579,3.517
0.06038342353629037,3.518
0.05554244489444282,3.519
0.04271308959566042,3.52
0.02060861860044455,3.521
-0.010168499150979747,3.522
-0.04575611054051992,3.523
-0.0788482852566348,3.524
-0.10076473454244289,3.525
-0.10516228702578449,3.526
-0.09088233371845464,3.527
-0.06181327153979476,3.528
-0.024360838904744195,3.529
0.015101239782066329,3.53
0.0514056377058159,3.531
0.08065604420463897,3.532
0.09995589609642945,3.533
0.10729957530946857,3.534
0.10169153435823042,3.535
0.08327891846730191,3.536
0.053445337793239046,3.537
0.015109221691904647,3.538
-0.0268880675140845,3.539
-0.06606995272366598,3.54
-0.09578125944520686,3.541
-0.11123324063335671,3.542
-0.11097742988698034,3.543
-0.09703100362883516,3.544
-0.0736712849470309,3.545
-0.04565287112501212,3.546
-0.016844199510763366,3.547
0.010236623055858915,3.548
0.034180782308541095,3.549
0.0541037907712088,3.55
0.06903212789931458,3.551
0.07760580300153518,3.552
0.07826379331675958,3.553
0.06980698599317196,3.554
0.05212864011974883,3.555
0.02683933401808663,3.556
-0.002451918053997289,3.557
-0.030422566781520805,3.558
-0.05134304345675468,3.559
-0.061426333812779614,3.56
-0.06077749106852289,3.561
-0.053102120866522246,3.562
-0.04321678909090433,3.563
-0.03438290321251348,3.564
-0.027296863921040082,3.565
-0.020891388628476854,3.566
-0.013805218613937206,3.567
-0.005249000096770361,3.568
0.005015637085241115,3.569
0.016723871399733452,3.57
0.028658125759867547,3.571
0.03859042057966514,3.572
0.04444344994493805,3.573
0.04585369180719704,3.574
0.044734007229552036,3.575
0.04428996552145626,3.576
0.04688268001896563,3.577
0.051990166319775065,3.578
0.05587750952681877,3.579
0.053538791704999936,3.58
0.04169720866163905,3.581
0.020838368581068214,3.582
-0.005102352078546118,3.583
-0.0311210200066367,3.584
-0.05355301374568953,3.585
-0.07048547499735763,3.586
-0.08044201651164262,3.587
-0.08164597370384159,3.588
-0.07331263853600285,3.589
-0.05747763587791299,3.59
-0.03883667197395694,3.591
-0.022440585505905084,3.592
-0.011177525747809716,3.593
-0.004529990729550728,3.594
0.0008657895611965814,3.595
0.009036278684466315,3.596
0.022081923141870036,3.597
0.038783177421607716,3.598
0.05512313605868545,3.599
0.06620015032484201,3.6
0.0683959054294982,3.601
0.060860874646175386,3.602
0.04578744357469216,3.603
0.027311607853131917,3.604
0.00947390141346986,3.605
-0.005623068372653882,3.606
-0.01830579981726608,3.607
-0.030317470228801054,3.608
-0.04308857853331149,3.609
-0.05629091196963154,3.61
-0.06750705013556364,3.611
-0.07314910777484328,3.612
-0.06995729319137753,3.613
-0.05642844484248849,3.614
-0.033728877420052476,3.615
-0.005600157363817253,3.616
0.02273723816040298,3.617
0.04609488566144641,3.618
0.06068690138228046,3.619
0.06485940911019272,3.62
0.058949052014486636,3.621
0.044804968056883394,3.622
0.025532630800049912,3.623
0.005202041420752385,3.624
-0.011923574816441096,3.625
-0.022469376354427365,3.626
-0.024686159204301398,3.627
-0.018427923106496304,3.628
-0.004742314744407034,3.629
0.014309150416121824,3.63
0.03558581117256635,3.631
0.0549927981422425,3.632
0.0680496707086191,3.633
0.07074864842423405,3.634
0.06036764937584229,3.635
0.03606800444228251,3.636
-0.000556332180139902,3.637
-0.044896916528108816,3.638
-0.08938933838990175,3.639
-0.12522374797437316,3.64
-0.14539114311254872,3.641
-0.14683628256123324,3.642
-0.13021070462236675,3.643
-0.09854298444735853,3.644
-0.056473935174389485,3.645
-0.009746554996331314,3.646
0.03574342179983511,3.647
0.07501452483404496,3.648
0.10455374285885059,3.649
0.12225144423255518,3.65
0.12713976019584908,3.651
0.11939081890346614,3.652
0.10059224736318273,3.653
0.07390899869968076,3.654
0.04385919837069631,3.655
0.015777078679712724,3.656
-0.005151714042552289,3.657
-0.015548913434278111,3.658
-0.01548836277625332,3.659
-0.008784583706944203,3.66
-0.001674927188801525,3.661
-0.0007267950127080338,3.662
-0.010672534493333692,3.663
-0.03241610713809135,3.664
-0.0615987948412103,3.665
-0.088853868686161,3.666
-0.10286988364985988,3.667
-0.09557645197575007,3.668
-0.06663582607566167,3.669
-0.024272489210631135,3.67
0.018363801130767167,3.671
0.04915387390967147,3.672
0.06171348285420077,3.673
0.056605292471131496,3.674
0.039404581868090316,3.675
0.017601046569330998,3.676
-0.001855672984039957,3.677
-0.013993686885910236,3.678
-0.016796486636134252,3.679
-0.011651785047097352,3.68
-0.002501058180160359,3.681
0.00619317573789767,3.682
0.01129720479227184,3.683
0.011621085916856507,3.684
0.00745425300756924,3.685
-9.583728254526724e-05,3.686
-0.009216467911351393,3.687
-0.017348257984363933,3.688
-0.022071227885644643,3.689
-0.022644166874058794,3.69
-0.020527493796370557,3.691
-0.018214520373880206,3.692
-0.017658217549866736,3.693
-0.019672230284565866,3.694
-0.0240188488795673,3.695
-0.029212546687329987,3.696
-0.032251620815279276,3.697
-0.029301480866154483,3.698
-0.017390148886931092,3.699
0.003914011232809864,3.7
0.03169250998439368,3.701
0.06005919111951553,3.702
0.08181948477887817,3.703
0.09104094437356343,3.704
0.08552765744470277,3.705
0.06788725156759683,3.706
0.0442516478755338,3.707
0.02121702290568657,3.708
0.003392619376533175,3.709
-0.006845242529699527,3.71
-0.008683888414781665,3.711
-0.0029640267172391117,3.712
0.007431195435346518,3.713
