VaMe,time
5.0871838548625e-05,0.001
0.00035944618834118106,0.002
0.0005857170991896014,0.003
0.000675028113339671,0.004
0.0005979718116371323,0.005
0.0003480362114193816,0.006
-3.4668749384781504e-05,0.007
-0.00046151943940519547,0.008
-0.0008371912339251183,0.009
-0.001095389596685679,0.01
-0.0012016536515175827,0.011
-0.0011395988937759303,0.012
-0.0009014354431768306,0.013
-0.0004959766359463861,0.014
3.1096863489311346e-05,0.015
0.000578635229255057,0.016
0.0009945986087622448,0.017
0.0011214895986767436,0.018
0.0008672049516927099,0.019
0.0002607186196505092,0.02
-0.0005518004194052256,0.021
-0.0013732314347355257,0.022
-0.002028020173237598,0.023
-0.0023977233866735925,0.024
-0.0024299355341529222,0.025
-0.0021442467745700303,0.026
-0.0016288449525753129,0.027
-0.0010066374525199418,0.028
-0.0003810601379976761,0.029
0.00019980310700792997,0.03
0.0007322620953104841,0.031
0.0012095432095170703,0.032
0.0015821382086457815,0.033
0.0017642251841469565,0.034
0.0016812502348303269,0.035
0.0013137043720653804,0.036
0.0007046912294622592,0.037
-5.397723724809122e-05,0.038
-0.000832919448562432,0.039
-0.0014796854330337698,0.04
-0.0018496510874056588,0.041
-0.0018457306323642246,0.042
-0.0014450449152198152,0.043
-0.0006939304530571881,0.044
0.00031447760380101593,0.045
0.0014556580292815642,0.046
0.002588305130632557,0.047
0.0035746751319353574,0.048
0.004294525109281777,0.049
0.004647406675750115,0.05
0.004558732915161138,0.051
0.003999293565088759,0.052
0.0030019524582476174,0.053
0.001657694039616917,0.054
9.064002155849838e-05,0.055
-0.001565297200208107,0.056
-0.003167869713659366,0.057
-0.004564543977569788,0.058
-0.005610871193329338,0.059
-0.006195817030486026,0.06
-0.0062507355981460235,0.061
-0.005741640258865246,0.062
-0.004665754745212292,0.063
-0.0030769087299904107,0.064
-0.001124082689317804,0.065
0.0009450897064088502,0.066
0.002827783182464717,0.067
0.004235802872744132,0.068
0.00497381805262725,0.069
0.004999467569194991,0.07
0.004427953109250845,0.071
0.0034709786225777506,0.072
0.002354117059623303,0.073
0.0012592142398505975,0.074
0.0002968703310214863,0.075
-0.0004899494575979627,0.076
-0.001091482820084506,0.077
-0.0014957696786260645,0.078
-0.0016813487093041946,0.079
-0.0016380065091218183,0.08
-0.0013956718565866664,0.081
-0.0010387894357315717,0.082
-0.0006923852177035264,0.083
-0.0004780789992069666,0.084
-0.00046170507058420116,0.085
-0.0006271814252432788,0.086
-0.0008902717599166199,0.087
-0.0011414673808023657,0.088
-0.001293119780951815,0.089
-0.0013030413574343861,0.09
-0.0011696334659557117,0.091
-0.0009196481666672031,0.092
-0.000597798200107616,0.093
-0.000248103379085733,0.094
0.00010629529733740902,0.095
0.00047154529301349565,0.096
0.0008767315745846962,0.097
0.0013432672785822842,0.098
0.001842755574362388,0.099
0.002287945426639735,0.1
0.002568274719166256,0.101
0.0025945553694699548,0.102
0.002325944525471426,0.103
0.001778856654205419,0.104
0.001023379822929481,0.105
0.0001709144353233675,0.106
-0.0006529679697979951,0.107
-0.0013503467695985417,0.108
-0.0018761027947408373,0.109
-0.002224720186348049,0.11
-0.002396875359181521,0.111
-0.002374035089634805,0.112
-0.002117143518932041,0.113
-0.001591190320972777,0.114
-0.0008022331752474323,0.115
0.00018008298636541215,0.116
0.0012306205371026874,0.117
0.0021981658915134245,0.118
0.0029382744445430866,0.119
0.0033333328846348364,0.12
0.003294626277580136,0.121
0.002770242430372768,0.122
0.0017772534506808244,0.123
0.00042553927915778045,0.124
-0.0010931000089519811,0.125
-0.002534601700185548,0.126
-0.003646886391449926,0.127
-0.004233461873533173,0.128
-0.004210226157288642,0.129
-0.0036191686319811405,0.13
-0.002597744936581827,0.131
-0.0013372929048242426,0.132
-5.1730344382582335e-05,0.133
0.0010605187535399003,0.134
0.001865208842681761,0.135
0.002306982340262812,0.136
0.0023755538382888267,0.137
0.002075561325499108,0.138
0.0014369977768501378,0.139
0.0005495465317576008,0.14
-0.00042291960741463634,0.141
-0.0012836346193275433,0.142
-0.0018767450123987855,0.143
-0.0021234969225488523,0.144
-0.001995821876192648,0.145
-0.0014869036280600696,0.146
-0.0006296379223013694,0.147
0.0004737497879866392,0.148
0.001656616721722591,0.149
0.0027230514389937786,0.15
0.0034966855906957113,0.151
0.0038633517587288654,0.152
0.0037879038754652615,0.153
0.0033070762205914036,0.154
0.002512730027688854,0.155
0.0015285385624430083,0.156
0.00048077640868533826,0.157
-0.0005252320847456575,0.158
-0.0014121588144287694,0.159
-0.0021248463112183737,0.16
-0.0026237585494934858,0.161
-0.0028826964786501925,0.162
-0.0028968130536985983,0.163
-0.002696400127041996,0.164
-0.002344234664928377,0.165
-0.001919024448449987,0.166
-0.0015078749958737441,0.167
-0.0012028072120669022,0.168
-0.001071158777592503,0.169
-0.0011054251226625296,0.17
-0.0012080289418133208,0.171
-0.001234163341325102,0.172
-0.0010523583260021294,0.173
-0.000588416653428509,0.174
0.00014951043284833977,0.175
0.0010654303794072235,0.176
0.001999217133177723,0.177
0.002784018452638874,0.178
0.0033074142806307485,0.179
0.0035307076192580274,0.18
0.003461999792029004,0.181
0.0031233233833428877,0.182
0.002545245989752638,0.183
0.0017764379535320101,0.184
0.000887079878640693,0.185
-3.620686042870973e-05,0.186
-0.000903189829452479,0.187
-0.0016325762694493291,0.188
-0.0021580544488143264,0.189
-0.0024265267088188903,0.19
-0.0023947249270077054,0.191
-0.0020454091049300475,0.192
-0.0014265223388545527,0.193
-0.0006768044031551916,0.194
3.916390486647521e-06,0.195
0.00043778643199509536,0.196
0.0005560811674394974,0.197
0.00042679489683325087,0.198
0.00019406519863728015,0.199
-2.7079585935282284e-05,0.2
-0.0002168791846060941,0.201
-0.00042632743880865467,0.202
-0.0006964710919966872,0.203
-0.0010130905902662178,0.204
-0.001329849928827726,0.205
-0.0016028670143110224,0.206
-0.0017917876506850885,0.207
-0.0018453019571346464,0.208
-0.0017040482706846883,0.209
-0.0013204923732666194,0.21
-0.000666984820411735,0.211
0.00026663233124362903,0.212
0.001450265063689876,0.213
0.0027657717980934405,0.214
0.003984463647993723,0.215
0.004819324675011226,0.216
0.005040243516599752,0.217
0.0045716450045891885,0.218
0.0035096781836589474,0.219
0.002068889516932772,0.22
0.0005000758854700355,0.221
-0.0009785200656858878,0.222
-0.002209161462796509,0.223
-0.0030899364040159793,0.224
-0.0035632377545677797,0.225
-0.003612472442464785,0.226
-0.0032691543289615943,0.227
-0.002617760128618675,0.228
-0.0017783151372550126,0.229
-0.0008758884612756315,0.23
-3.020684180396438e-05,0.231
0.0006405867085223085,0.232
0.0010365662223021464,0.233
0.0011119467855642453,0.234
0.0008971068369967376,0.235
0.0004815582857155717,0.236
-3.137284784182606e-05,0.237
-0.0005615886969328898,0.238
-0.001055627430089071,0.239
-0.0014642655526503814,0.24
-0.0017285611340234221,0.241
-0.0017868119887678485,0.242
-0.0015831329467203765,0.243
-0.0010791478695135605,0.244
-0.0002803912768114193,0.245
0.0007427866788544115,0.246
0.0018573009844844793,0.247
0.0028868488493862237,0.248
0.0036495523077951907,0.249
0.004009022828954793,0.25
0.0039155605294582535,0.251
0.0034153205886908954,0.252
0.0026226622575652677,0.253
0.001671899733544161,0.254
0.0006718896522949977,0.255
-0.0003145511126747392,0.256
-0.0012552780322416708,0.257
-0.0021167758322646925,0.258
-0.0028508911688902945,0.259
-0.003407286196738406,0.26
-0.0037456490747261985,0.261
-0.0038340118094932134,0.262
-0.003649408304080518,0.263
-0.003199267949213626,0.264
-0.0025510656207796516,0.265
-0.0018312094563539966,0.266
-0.0011815381706004565,0.267
-0.0007076851482729408,0.268
-0.0004502750605959358,0.269
-0.0003781874428414198,0.27
-0.00039419111030474457,0.271
-0.00035266370724786717,0.272
-9.577289401851887e-05,0.273
0.0004911168875079579,0.274
0.0014291713925041636,0.275
0.002630462617377748,0.276
0.003920350518504068,0.277
0.005088793634205291,0.278
0.00595038232471552,0.279
0.00637832328114369,0.28
0.006300852404102506,0.281
0.005691350971943075,0.282
0.004574490575877825,0.283
0.0030293394503587076,0.284
0.0011814840229629059,0.285
-0.000799009502016779,0.286
-0.0027024537515030846,0.287
-0.004314975777392181,0.288
-0.005473679891195142,0.289
-0.006096146120838649,0.29
-0.006174369428503363,0.291
-0.00576187797958518,0.292
-0.004963311801186316,0.293
-0.00391758560313461,0.294
-0.0027738871650379816,0.295
-0.001661944889810216,0.296
-0.0006667323533244846,0.297
0.000169215782341942,0.298
0.0008162968226730725,0.299
0.0012384860775946993,0.3
0.0014077462828181893,0.301
0.0013310816038733968,0.302
0.001061502039306455,0.303
0.0006911118186776468,0.304
0.00033779349922102446,0.305
0.00012694432591032809,0.306
0.00016480386743429962,0.307
0.0005024112031976565,0.308
0.0010959749126520644,0.309
0.0017994696550694379,0.31
0.002422651421277095,0.311
0.0028152078633192907,0.312
0.0029112706504396727,0.313
0.0027244762505328314,0.314
0.0023141375160908783,0.315
0.001742947049037462,0.316
0.0010560506779122545,0.317
0.00028985868528201184,0.318
-0.0005156273806168118,0.319
-0.0013163240311166347,0.32
-0.002068127071355181,0.321
-0.002729076638437055,0.322
-0.0032577386188540757,0.323
-0.003608454682683387,0.324
-0.0037283525900401304,0.325
-0.0035706029784443876,0.326
-0.003129386321751946,0.327
-0.002461333389719405,0.328
-0.0016624988034400396,0.329
-0.0008227911561970702,0.33
3.641979770343949e-06,0.331
0.0007893565764927982,0.332
0.0015033476632134036,0.333
0.0021080904354473674,0.334
0.0025842520206503785,0.335
0.002939647037396792,0.336
0.0031947963283693944,0.337
0.0033654923021943766,0.338
0.003446467305452487,0.339
0.0033998293563490137,0.34
0.0031661913647303723,0.341
0.002701356907156867,0.342
0.0020150405376345194,0.343
0.0011843476476020014,0.344
0.0003266380570409334,0.345
-0.00045350389940259,0.346
-0.0011030520012089698,0.347
-0.0016268144310303352,0.348
-0.0020660678999155865,0.349
-0.0024549918813395453,0.35
-0.002785145861457283,0.351
-0.0030140715826870706,0.352
-0.0031010327765066833,0.353
-0.0030285894273697177,0.354
-0.0028043749230270065,0.355
-0.0024529505990784485,0.356
-0.0019960846315299876,0.357
-0.0014349967010125245,0.358
-0.0007590248847062796,0.359
2.4788714424711292e-05,0.36
0.0008688496100944127,0.361
0.0016854012126586578,0.362
0.002365826608237973,0.363
0.0028050147751573144,0.364
0.0029258489750299964,0.365
0.0027067142615459718,0.366
0.002201353041920986,0.367
0.0015240235365382262,0.368
0.0007988145400006089,0.369
0.0001148837030744435,0.37
-0.0004801499042016572,0.371
-0.0009614784671310198,0.372
-0.0013134716135418504,0.373
-0.0015278571824506179,0.374
-0.001607857731053305,0.375
-0.001581450710539277,0.376
-0.0015095358110657165,0.377
-0.0014652990696592753,0.378
-0.0014868509245169912,0.379
-0.001535471487536137,0.38
-0.0015091618704410061,0.381
-0.0013169287372979943,0.382
-0.0009415148047700068,0.383
-0.0004295873322457432,0.384
0.0001579342240374373,0.385
0.0007696487056467468,0.386
0.0013583344617668738,0.387
0.001878582680827657,0.388
0.0022886043633780083,0.389
0.002543318573185707,0.39
0.0025929626983676518,0.391
0.0024023598670498236,0.392
0.0019769894887119764,0.393
0.0013821143471762283,0.394
0.0007449898158827882,0.395
0.00023191859930076416,0.396
9.151072587044009e-07,0.397
0.00013348957530997198,0.398
0.0005782542367631457,0.399
0.001155358096327086,0.4
0.0016273588698401114,0.401
0.0017873202583179428,0.402
0.001507777585486431,0.403
0.0007420235262988387,0.404
-0.0004855671904755219,0.405
-0.0020679440200841036,0.406
-0.0037950191426500677,0.407
-0.005368317109220582,0.408
-0.006466528934575854,0.409
-0.006827656957187791,0.41
-0.006313082719459352,0.411
-0.004944950614264448,0.412
-0.002903401952379305,0.413
-0.00047772197016214535,0.414
0.001996625838087497,0.415
0.004181398380826006,0.416
0.005774088439212905,0.417
0.00656982676587657,0.418
0.006518806867406582,0.419
0.005734896797070472,0.42
0.004449737535114374,0.421
0.002926033495173193,0.422
0.0013712391935147752,0.423
-9.195029461363024e-05,0.424
-0.0013945078868700927,0.425
-0.002483514965546547,0.426
-0.003307716682576288,0.427
-0.003807696706159355,0.428
-0.003919808113194656,0.429
-0.0036176142491086798,0.43
-0.0029562279639320835,0.431
-0.0020637128226200317,0.432
-0.0010837305531320612,0.433
-0.00012990385764629817,0.434
0.0007127338967116019,0.435
0.001363373537050661,0.436
0.0017405861491357076,0.437
0.001794647570906272,0.438
0.0015477389379682316,0.439
0.0010967394149023597,0.44
0.0005759952557931275,0.441
0.00011371469620172157,0.442
-0.0001942603942027683,0.443
-0.00029404473603460905,0.444
-0.00018151820927657175,0.445
9.118165712746675e-05,0.446
0.0004352416750266226,0.447
0.0007661184646349577,0.448
0.001019598155933595,0.449
0.0011380518364405106,0.45
0.0010707589847711264,0.451
0.0007973571669363873,0.452
0.0003461913021509857,0.453
-0.00020382162045807148,0.454
-0.0007380997246702053,0.455
-0.0011387992038890012,0.456
-0.001324492533952319,0.457
-0.0012809368326721913,0.458
-0.0010623496001191586,0.459
-0.0007588878479219717,0.46
-0.00045326186631420917,0.461
-0.00018594597011421164,0.462
4.8830125096418926e-05,0.463
0.0002658169930467956,0.464
0.00045672381973587155,0.465
0.000600046533896714,0.466
0.0006761773368890138,0.467
0.0006582936869523482,0.468
0.0005163854845452193,0.469
0.0002573895788911116,0.47
-5.703866930637496e-05,0.471
-0.0003564816469419499,0.472
-0.0006163090231842091,0.473
-0.0008596135466808423,0.474
-0.0011112726645253427,0.475
-0.0013448732152380194,0.476
-0.0014648076190577103,0.477
-0.0013452175346001182,0.478
-0.0009033064381193869,0.479
-0.00015586337263548468,0.48
0.0007710681336044097,0.481
0.0016755377776503982,0.482
0.002340602731998714,0.483
0.0026040166938701057,0.484
0.0024055776593668613,0.485
0.001788040973718897,0.486
0.0008679191825872438,0.487
-0.00019200008069020528,0.488
-0.0011982084354923562,0.489
-0.0019445993646535857,0.49
-0.002257821821660448,0.491
-0.0020694687024696515,0.492
-0.0014679124031348487,0.493
-0.0006655700925777725,0.494
0.00011157671749362024,0.495
0.0007190539502695384,0.496
0.0011117239833891316,0.497
0.0013030016185141362,0.498
0.0013144450993529428,0.499
0.0011546038945254133,0.5
0.0008353164582447851,0.501
0.0004006656087385688,0.502
-7.030394448638909e-05,0.503
-0.0004923959056119639,0.504
-0.0008036677864453122,0.505
-0.0009826380747547977,0.506
-0.0010566114230038913,0.507
-0.0010880149426196553,0.508
-0.0011393116004944962,0.509
-0.0012459202521099937,0.51
-0.0014012415563085347,0.511
-0.0015440809503889253,0.512
-0.0015727590693046297,0.513
-0.0014005485674175827,0.514
-0.0010144260916923875,0.515
-0.00048249129169478604,0.516
9.870979484649358e-05,0.517
0.0006644518982162496,0.518
0.0011926951599745353,0.519
0.0016664540495527473,0.52
0.0020375427865807583,0.521
0.0022293727815448448,0.522
0.0021771325062453256,0.523
0.0018791506414962422,0.524
0.0014239648943179721,0.525
0.0009686195014744355,0.526
0.0006759934280018682,0.527
0.0006495140480782344,0.528
0.0009012224889649618,0.529
0.0013564780870365368,0.53
0.0018737396172672192,0.531
0.002269897810938901,0.532
0.002371480567565188,0.533
0.0020867647857804802,0.534
0.001441050523247363,0.535
0.0005436551326472586,0.536
-0.0004783692523578132,0.537
-0.001525116537646025,0.538
-0.0025235137789337,0.539
-0.003399664386037942,0.54
-0.004054853450548162,0.541
-0.004377180961802534,0.542
-0.004296799491053832,0.543
-0.0038354684025620374,0.544
-0.003108507324736571,0.545
-0.002299856974601704,0.546
-0.0016245636251907222,0.547
-0.0012574340495801269,0.548
-0.0012474346636914858,0.549
-0.001479226859366691,0.55
-0.0017085492371344882,0.551
-0.0016572014565947304,0.552
-0.0011294036501455515,0.553
-8.819451577735799e-05,0.554
0.0013499814893847553,0.555
0.0029703320220810002,0.556
0.004497027540671884,0.557
0.005614702556241913,0.558
0.00602652551139782,0.559
0.005555760654358086,0.56
0.004238022378677769,0.561
0.0023332299660976073,0.562
0.00023112146078148855,0.563
-0.0016959489647018122,0.564
-0.0031943727631460576,0.565
-0.0041269777427402204,0.566
-0.0044145319338614805,0.567
-0.004011735389866218,0.568
-0.0029391801423964874,0.569
-0.0013200169160196833,0.57
0.0006206872622396579,0.571
0.0025865264588913577,0.572
0.004254469717167549,0.573
0.005334121729392905,0.574
0.005633584140348071,0.575
0.005106067361841458,0.576
0.0038515910913110734,0.577
0.002087238172766633,0.578
0.00012689753153278271,0.579
-0.0016468747347667088,0.58
-0.0028746392093918103,0.581
-0.0033456630625041447,0.582
-0.0030564970532515057,0.583
-0.002160564832036412,0.584
-0.000861028891769442,0.585
0.0006683269801047135,0.586
0.0022734442850385135,0.587
0.003731214591935296,0.588
0.004677512780771567,0.589
0.004650309558844601,0.59
0.0032522696845883473,0.591
0.00035691029795024916,0.592
-0.0037444237775647936,0.593
-0.008355628438058784,0.594
-0.012580626235554811,0.595
-0.015612814634774593,0.596
-0.016941405138559976,0.597
-0.016398835659568956,0.598
-0.014095783756015043,0.599
-0.01033520735064582,0.6
-0.005549054749356348,0.601
-0.0002482979219002722,0.602
0.005011071498555038,0.603
0.009657412193311015,0.604
0.013176108659731199,0.605
0.015233754972977218,0.606
0.01579345243069787,0.607
0.015143182532301628,0.608
0.01379807335683907,0.609
0.012310139673041585,0.61
0.011084782190162108,0.611
0.010297782624105543,0.612
0.009907756182955562,0.613
0.009680298862461752,0.614
0.009203438150952824,0.615
0.007968884005475192,0.616
0.005545871508694082,0.617
0.0017697637670251467,0.618
-0.003150759119147507,0.619
-0.008670775357530741,0.62
-0.014090817877903086,0.621
-0.018782673997971473,0.622
-0.022317363456474587,0.623
-0.02442902419906144,0.624
-0.024877718154869763,0.625
-0.023371020608284585,0.626
-0.01967197753226902,0.627
-0.013848157312849427,0.628
-0.006470993871470712,0.629
0.0013991786000798958,0.63
0.008474730238644037,0.631
0.013656197911640132,0.632
0.016403233782441122,0.633
0.01683799383833522,0.634
0.0155259628189468,0.635
0.01312295170567667,0.636
0.010134470732857925,0.637
0.006883434228410425,0.638
0.0036218202574038487,0.639
0.0006548674444152827,0.64
-0.0016448458962181958,0.641
-0.0029563122706589076,0.642
-0.0031485572928051254,0.643
-0.002322558829543206,0.644
-0.0007646716927271547,0.645
0.0011267640522414015,0.646
0.002926750571115157,0.647
0.0042789667468800495,0.648
0.004959924504228085,0.649
0.004877307644274305,0.65
0.00403673670464737,0.651
0.002540371983169926,0.652
0.0006192635422163032,0.653
-0.0013703502949624058,0.654
-0.0030306403002309246,0.655
-0.004046845877266131,0.656
-0.004293729507413769,0.657
-0.00388115008128809,0.658
-0.0031109218499122096,0.659
-0.0023600937330857516,0.66
-0.0019467464604528847,0.661
-0.0020301372298302586,0.662
-0.002572127995559571,0.663
-0.003375984359434762,0.664
-0.004185185805032294,0.665
-0.004770913147227474,0.666
-0.004956073743382973,0.667
-0.004609595517354692,0.668
-0.0036668286953148717,0.669
-0.0021695594915663724,0.67
-0.0002919066748998909,0.671
0.001665889887849702,0.672
0.0033338199172371543,0.673
0.0043822018368788376,0.674
0.004643874337751294,0.675
0.004166535786895486,0.676
0.003158391260784268,0.677
0.0018899940388278783,0.678
0.0006192072767685758,0.679
-0.0004504271553205886,0.68
-0.0011911077995046477,0.681
-0.0015665795756816467,0.682
-0.0016331850727837355,0.683
-0.0015033409058492707,0.684
-0.0012765057917192841,0.685
-0.0009785029690006577,0.686
-0.000554390612821626,0.687
8.439259589238673e-05,0.688
0.00099537343987275,0.689
0.0021592382476774514,0.69
0.0034808652866871897,0.691
0.004836438130110422,0.692
0.00611413976725999,0.693
0.007194402680381688,0.694
0.007902695985813987,0.695
0.008018117151167807,0.696
0.007352938233727345,0.697
0.0058476088160377285,0.698
0.0036165627535384996,0.699
0.0008960927010266889,0.7
-0.002082400935284248,0.701
-0.005181603032985342,0.702
-0.008333920005813587,0.703
-0.011438519489691386,0.704
-0.014260050378395549,0.705
-0.01640073004964013,0.706
-0.017387183057368447,0.707
-0.016839800533064404,0.708
-0.014619288418374166,0.709
-0.010871356434061797,0.71
-0.005975503907344864,0.711
-0.000440520187568495,0.712
0.005201544523795391,0.713
0.0104524698600576,0.714
0.014857012953124735,0.715
0.018018099300593088,0.716
0.019648417731106326,0.717
0.019631903491675352,0.718
0.018043308476452486,0.719
0.015098738749857621,0.72
0.011082116224036162,0.721
0.006320094079772211,0.722
0.001210283303144541,0.723
-0.0037630689267042767,0.724
-0.008070259643915724,0.725
-0.0112110568629511,0.726
-0.012795110926099923,0.727
-0.01261887190518925,0.728
-0.010726588989163507,0.729
-0.0074421197287677454,0.73
-0.003342998627531324,0.731
0.0008424467559301578,0.732
0.0043821527318524565,0.733
0.006681193244951302,0.734
0.007370474842511813,0.735
0.006321912210569297,0.736
0.003648987135622173,0.737
-0.00025179400227506345,0.738
-0.0046863899252030895,0.739
-0.008773448113466163,0.74
-0.01166949743251334,0.741
-0.012816053279247118,0.742
-0.012109315156300312,0.743
-0.00992562609409026,0.744
-0.006997751768114453,0.745
-0.004187307995455454,0.746
-0.002216113582449929,0.747
-0.0014322738649194446,0.748
-0.0016983833645895982,0.749
-0.0024666784580268043,0.75
-0.0030054984553382143,0.751
-0.0026574803441415666,0.752
-0.0010412901518517,0.753
0.0018346583845929298,0.754
0.005560896635403581,0.755
0.009437234476051284,0.756
0.012688060865647867,0.757
0.014688029642502076,0.758
0.015113795622916865,0.759
0.013995247269908374,0.76
0.011654870475435172,0.761
0.008575957098381085,0.762
0.005282464210515561,0.763
0.0022547519205457275,0.764
-0.00015073995423190933,0.765
-0.001777720348169999,0.766
-0.0026899788318190407,0.767
-0.0031070687220090053,0.768
-0.0032932281327358323,0.769
-0.0034478253120208,0.77
-0.0036414038258751227,0.771
-0.0038332723229713875,0.772
