VaMe,time
0.00034473900587899027,0.001
0.00017661257469992581,0.002
0.00013213205367433172,0.003
0.00030744640570128334,0.004
0.0007124983099331117,0.005
0.0012709995975543056,0.006
0.001857145020009463,0.007
0.0023324658472671372,0.008
0.002565125392203639,0.009
0.0024385867114618477,0.01
0.0018721847454771028,0.011
0.0008590023856945367,0.012
-0.000507321812360171,0.013
-0.0020449698577943458,0.014
-0.0035371949832632733,0.015
-0.004795201190930661,0.016
-0.005689444981303681,0.017
-0.0061377788827587385,0.018
-0.006080018151726775,0.019
-0.00547794908061316,0.02
-0.00434082547153565,0.021
-0.0027559175392323034,0.022
-0.0009141084093843084,0.023
0.000897760898275191,0.024
0.002370905087792386,0.025
0.003298359771950181,0.026
0.0036784235124229384,0.027
0.003723720835739968,0.028
0.003755578418431263,0.029
0.004025453640446888,0.03
0.004557820399045357,0.031
0.00513110894368359,0.032
0.005407652324291304,0.033
0.005092239265449321,0.034
0.004036234508006094,0.035
0.002292912863998922,0.036
0.0001215230402745896,0.037
-0.0020766931920877013,0.038
-0.0038707209273334147,0.039
-0.004920668756967209,0.04
-0.005073415100995381,0.041
-0.00439443935506703,0.042
-0.0031188127966054273,0.043
-0.001556918758974473,0.044
-2.660810486230559e-06,0.045
0.0013330768977356366,0.046
0.0023422048605654857,0.047
0.00297669986975057,0.048
0.003193629262344563,0.049
0.0029573115939961385,0.05
0.0022756668019831444,0.051
0.001220424699512927,0.052
-6.962653257199169e-05,0.053
-0.0014056407119987257,0.054
-0.0025818183324708577,0.055
-0.0034040689309339125,0.056
-0.0037205784677258923,0.057
-0.003458669293382551,0.058
-0.0026449678163193986,0.059
-0.0013977755214043962,0.06
9.579309652747149e-05,0.061
0.0016134050537544074,0.062
0.0029356022850072026,0.063
0.003868750788593219,0.064
0.004257273926481881,0.065
0.004000266540733687,0.066
0.003073342538819564,0.067
0.0015522996493683246,0.068
-0.0003851311877957065,0.069
-0.002503415767549888,0.07
-0.0045796836884977295,0.071
-0.006459250807509864,0.072
-0.008068033684992908,0.073
-0.009373033299848975,0.074
-0.010312867837124323,0.075
-0.01073654751829141,0.076
-0.010375451415325379,0.077
-0.0088734050260523,0.078
-0.00590520310301673,0.079
-0.0013757075892019683,0.08
0.0043985630023722945,0.081
0.01067249889433142,0.082
0.016465326099823145,0.083
0.02084480108619938,0.084
0.02315199842584579,0.085
0.02310318294782282,0.086
0.020775301201302127,0.087
0.01652414840273744,0.088
0.01089122697195069,0.089
0.0045124328800731665,0.09
-0.0019689464094087964,0.091
-0.007966667795383702,0.092
-0.012995218874484047,0.093
-0.016717035089779887,0.094
-0.018987824087765306,0.095
-0.019856529924958198,0.096
-0.019507923372289005,0.097
-0.018168815118347028,0.098
-0.015996023267033494,0.099
-0.013011694968001726,0.1
-0.009169860427429878,0.101
-0.0045165180655610026,0.102
0.0007001934961923756,0.103
0.006051422381493526,0.104
0.011036217543859167,0.105
0.015180664957218171,0.106
0.018079753239437547,0.107
0.01941967004396367,0.108
0.019035245176514264,0.109
0.017001882188257874,0.11
0.013689773185509332,0.111
0.009690080000992302,0.112
0.005621526521228726,0.113
0.0019245058895600636,0.114
-0.0012588700155226247,0.115
-0.0040638659071321435,0.116
-0.006759770593641168,0.117
-0.009582481740881311,0.118
-0.012616926489390185,0.119
-0.015733334948245362,0.12
-0.018572201155204398,0.121
-0.020592132261747432,0.122
-0.021185327061187347,0.123
-0.01983190556707533,0.124
-0.016261305386854757,0.125
-0.01058761915465875,0.126
-0.0033450505134956896,0.127
0.004616284499683804,0.128
0.012300851647124215,0.129
0.018717666513412404,0.13
0.02301545894952995,0.131
0.02463417483076159,0.132
0.02343434039958204,0.133
0.019746922928862046,0.134
0.014329616060836818,0.135
0.008224112744577095,0.136
0.0025151392636178797,0.137
-0.0019478608243833325,0.138
-0.004741930177720111,0.139
-0.005892215200133068,0.14
-0.005760118647575169,0.141
-0.004872630650202287,0.142
-0.00374436184855174,0.143
-0.0027485205360149086,0.144
-0.0020751855654733554,0.145
-0.00176383908721404,0.146
-0.001778803659938419,0.147
-0.0020944247918884347,0.148
-0.0027461269324880705,0.149
-0.003814433532162682,0.15
-0.005338469025521458,0.151
-0.00720993364932694,0.152
-0.009141128780844146,0.153
-0.010732037740544294,0.154
-0.011568687109403196,0.155
-0.011302762825226758,0.156
-0.009715514642451378,0.157
-0.006778948958406339,0.158
-0.002709096830819478,0.159
0.002016709071406021,0.16
0.00671035655172107,0.161
0.010607335167223479,0.162
0.013054483542446317,0.163
0.013676533273325601,0.164
0.012477132825885704,0.165
0.009867685119960052,0.166
0.00659210201518842,0.167
0.0035247063883824133,0.168
0.001403109605290336,0.169
0.0006104069978678185,0.17
0.0010911995302145688,0.171
0.0024142311525699256,0.172
0.003934680199645566,0.173
0.004992575660859806,0.174
0.005100511024518665,0.175
0.004095752554004481,0.176
0.0021990040723531357,0.177
-0.0001003756893325763,0.178
-0.0022941894872766906,0.179
-0.004083021458319128,0.18
-0.0054629054319578875,0.181
-0.006651838980569052,0.182
-0.007920945364278913,0.183
-0.009439237088775308,0.184
-0.011188822980415557,0.185
-0.012941442362302037,0.186
-0.014295248519687487,0.187
-0.014769571801113168,0.188
-0.013928929679811339,0.189
-0.011503910095443291,0.19
-0.007469012315317025,0.191
-0.002058706348178463,0.192
0.004242570932246114,0.193
0.010719046257905013,0.194
0.016498670938302866,0.195
0.02072025828846294,0.196
0.022751291762043904,0.197
0.022367076540335797,0.198
0.019812896256238364,0.199
0.015719883737407406,0.2
0.010909430406672551,0.201
0.0061623194256020695,0.202
0.0020268771224967335,0.203
-0.0012759732226980153,0.204
-0.0038236939187143958,0.205
-0.005868335302618965,0.206
-0.00768102430373778,0.207
-0.009419288687642881,0.208
-0.011057587929541273,0.209
-0.012417494344327176,0.21
-0.013294867462882732,0.211
-0.013586151760766706,0.212
-0.013298459835965629,0.213
-0.012463067106828978,0.214
-0.011064203443820544,0.215
-0.009035338505165505,0.216
-0.006298245510047301,0.217
-0.002804636402749971,0.218
0.0014320193207868438,0.219
0.006307252730039402,0.22
0.0115965584614583,0.221
0.016904138186059965,0.222
0.021582309756944723,0.223
0.024720200592869366,0.224
0.025320493599920824,0.225
0.022615967157015554,0.226
0.016358879959355272,0.227
0.006978383491347428,0.228
-0.0044334105289960185,0.229
-0.016323339250182183,0.23
-0.026988365361466815,0.231
-0.03484662587703322,0.232
-0.038634407662841534,0.233
-0.037602498916110866,0.234
-0.0316992590921523,0.235
-0.02164574879367073,0.236
-0.008837457255013302,0.237
0.004911684490465001,0.238
0.017692902596008992,0.239
0.02782101352251037,0.24
0.03409399899298589,0.241
0.03593359633933557,0.242
0.033431714544148346,0.243
0.027368996039781324,0.244
0.019141774545415352,0.245
0.010458501118796818,0.246
0.002844864911348593,0.247
-0.002788334115908939,0.248
-0.006288059765489426,0.249
-0.008089809504741823,0.25
-0.00888648374126061,0.251
-0.009310082432427173,0.252
-0.009726136444741545,0.253
-0.010179939013263585,0.254
-0.010476899556630897,0.255
-0.010338238455770365,0.256
-0.00956655292775271,0.257
-0.008147467473903488,0.258
-0.006250689003232233,0.259
-0.00416288232859966,0.26
-0.002203819777851626,0.261
-0.0006571731147456423,0.262
0.00028504379390772685,0.263
0.0005772648737233612,0.264
0.00035953748260675545,0.265
-4.840987858072478e-05,0.266
-0.0002210427243576901,0.267
0.00021841464599564082,0.268
0.0014043481437641938,0.269
0.003114508031450628,0.27
0.004840035065517919,0.271
0.006011434940110074,0.272
0.006239426816634496,0.273
0.005449884256339299,0.274
0.0038712559589193464,0.275
0.0019013340096221303,0.276
-4.8312358761729845e-05,0.277
-0.0016278096998602889,0.278
-0.0025601056741874086,0.279
-0.0026846689654852897,0.28
-0.0020418941183029285,0.281
-0.0009008814280528924,0.282
0.00032586163502200903,0.283
0.0012190977915401285,0.284
0.0014530087492236451,0.285
0.0008626580843229654,0.286
-0.00047863177432664635,0.287
-0.002206358828718961,0.288
-0.0037262331328550284,0.289
-0.004417643385377694,0.29
-0.003885707772365653,0.291
-0.002119782206038294,0.292
0.0005163331246972896,0.293
0.003415530321343602,0.294
0.005863212638724875,0.295
0.007139421493228236,0.296
0.006664780692013515,0.297
0.004217445297781792,0.298
0.00010730810584713567,0.299
-0.004847194259783801,0.3
-0.009573329731664623,0.301
-0.013076427725059672,0.302
-0.014673266110574734,0.303
-0.01406830551192638,0.304
-0.011304281018303204,0.305
-0.006684513986736536,0.306
-0.0007404644948004331,0.307
0.005801818403260098,0.308
0.012122018067373836,0.309
0.017450394427127647,0.31
0.02117949765899904,0.311
0.022891520691094503,0.312
0.022341280729182362,0.313
0.019499411557469315,0.314
0.014678822316861139,0.315
0.008590239316137928,0.316
0.002175710351591395,0.317
-0.0036967398854819635,0.318
-0.0084715640040218,0.319
-0.011976670409142416,0.32
-0.014338849281491081,0.321
-0.01582122405263172,0.322
-0.016694352212529136,0.323
-0.01717550122041012,0.324
-0.017384388315998287,0.325
-0.017290268379700338,0.326
-0.0166899713512496,0.327
-0.015265062272283823,0.328
-0.012691725965263178,0.329
-0.008724935798607572,0.33
-0.0032457720069473625,0.331
0.0036562813923076377,0.332
0.011545512402580827,0.333
0.01956614203604495,0.334
0.02654961003702003,0.335
0.03126850872062243,0.336
0.032738029459347895,0.337
0.030481552417659864,0.338
0.024651572728623262,0.339
0.01594289343460286,0.34
0.005394291520388794,0.341
-0.005772789075847697,0.342
-0.01626213514072228,0.343
-0.024838078368835267,0.344
-0.030503409991033438,0.345
-0.032665054915526244,0.346
-0.031245359079741786,0.347
-0.026694304625487924,0.348
-0.019866709794451026,0.349
-0.011809425700687857,0.35
-0.0035620756899338475,0.351
0.003985011837056261,0.352
0.010204775875183448,0.353
0.014801163696445104,0.354
0.017776563705233814,0.355
0.019307083365510777,0.356
0.019594388329420207,0.357
0.018777899248059136,0.358
0.016937890585566776,0.359
0.014143870093733947,0.36
0.010491794234914562,0.361
0.006108752982119747,0.362
0.0011441916829432201,0.363
-0.004198571438905866,0.364
-0.009567829063038692,0.365
-0.014392091808503621,0.366
-0.017947463014972704,0.367
-0.0195618996058251,0.368
-0.01883047797353544,0.369
-0.01570874426091752,0.37
-0.010466718020869632,0.371
-0.0036093710924486834,0.372
0.004136537461589464,0.373
0.011808952546868607,0.374
0.018307220300014623,0.375
0.02264057438134501,0.376
0.02420080369024086,0.377
0.022893083707033735,0.378
0.019065485729750326,0.379
0.01331389281680083,0.38
0.006309523832204396,0.381
-0.0012559438992085965,0.382
-0.008655029316889839,0.383
-0.015157276642533038,0.384
-0.020136078123336967,0.385
-0.023173125001360408,0.386
-0.02411147177186677,0.387
-0.023061866034335136,0.388
-0.02037239384136325,0.389
-0.016563551649550923,0.39
-0.012210033786853097,0.391
-0.00778735119513207,0.392
-0.003593374302763239,0.393
0.00020277148910646852,0.394
0.003491441402887178,0.395
0.00622903839933898,0.396
0.008486511221349956,0.397
0.010445281909535985,0.398
0.012277742411861853,0.399
0.013973684349371593,0.4
0.015301513802582467,0.401
0.015987177508885682,0.402
0.015916684833485163,0.403
0.01514438234266508,0.404
0.013759760181795767,0.405
0.011808771266793135,0.406
0.009324055340280907,0.407
0.006385577124747329,0.408
0.0031798167263745146,0.409
3.965871460732426e-05,0.41
-0.0026108434896224605,0.411
-0.004432999778361425,0.412
-0.005382526491082933,0.413
-0.0058139228672883896,0.414
-0.006396253525629015,0.415
-0.007856153315209592,0.416
-0.010644002945950175,0.417
-0.014673927735609832,0.418
-0.019276495097178555,0.419
-0.023383410997948453,0.42
-0.025826731422648606,0.421
-0.025618513682193648,0.422
-0.02215508605295155,0.423
-0.015355364477348622,0.424
-0.005754606151802698,0.425
0.0054877514270808515,0.426
0.01675827731919661,0.427
0.026343754204763644,0.428
0.032840266293694596,0.429
0.03547036064240953,0.43
0.034224354286487964,0.431
0.029781464156051582,0.432
0.023240241505622594,0.433
0.015791951029361255,0.434
0.008463679325475893,0.435
0.001951913146229619,0.436
-0.0034734623662241,0.437
-0.00795158995105891,0.438
-0.01185916930837692,0.439
-0.015569498925115957,0.44
-0.01927333251736979,0.441
-0.022902319001395246,0.442
-0.026128187957612035,0.443
-0.02840679356281078,0.444
-0.029063519150953742,0.445
-0.02746195284706181,0.446
-0.02323484635424899,0.447
-0.016427155598871708,0.448
-0.007464477616694443,0.449
0.00294171557239302,0.45
0.013810878889148627,0.451
0.023864397641590426,0.452
0.031611446857296964,0.453
0.03564716925907228,0.454
0.035098364513563254,0.455
0.029990822611802494,0.456
0.021294285673997878,0.457
0.01064277911491172,0.458
-4.141600009334314e-05,0.459
-0.008882255351491612,0.46
-0.01439988148204333,0.461
-0.015885659147728156,0.462
-0.013646719427985884,0.463
-0.00895606275643857,0.464
-0.0036780685843654745,0.465
0.0003228870746104141,0.466
0.0017950834348861005,0.467
0.0004880234987232869,0.468
-0.0028615077041812243,0.469
-0.00690892402054917,0.47
-0.010227659349467174,0.471
-0.011745054931016703,0.472
-0.010966211972531373,0.473
-0.007995194033205468,0.474
-0.003420716144838897,0.475
0.0018844557888037731,0.476
0.0070386702538759015,0.477
0.011441143834383005,0.478
0.014904169389787168,0.479
0.017490708936440367,0.48
0.01916009446388603,0.481
0.019524598289986858,0.482
0.017949314298998802,0.483
0.013928140515763484,0.484
0.007427139703894483,0.485
-0.001028281139701643,0.486
-0.010477795438854078,0.487
-0.01972502452550624,0.488
-0.027561609455389997,0.489
-0.03299414232897345,0.49
-0.0353823767282871,0.491
-0.03442338576908751,0.492
-0.03007636015602257,0.493
-0.022565275289089325,0.494
-0.012442974959763188,0.495
-0.0006147269383675604,0.496
0.011712695800008568,0.497
0.02314785486796515,0.498
0.03229550079979901,0.499
0.03798129840575757,0.5
0.039473421641799816,0.501
0.03664984185299919,0.502
0.03007365131243781,0.503
0.02091183581055037,0.504
0.010632291146078752,0.505
0.0005709522142264156,0.506
-0.008379344271564091,0.507
-0.015763897438483252,0.508
-0.02129788562623363,0.509
-0.024604326539374267,0.51
-0.025197762167012545,0.511
-0.02272709319686211,0.512
-0.01728850146488516,0.513
-0.009596510383157005,0.514
-0.0009279994821481682,0.515
0.007148642965630386,0.516
0.013203653941348053,0.517
0.01639457481013765,0.518
0.016708922426567893,0.519
0.014843279291593073,0.52
0.01179513890699205,0.521
0.008420260976831271,0.522
0.005168985630549333,0.523
0.002041007993679251,0.524
-0.0013132035307407376,0.525
-0.005372117582793208,0.526
-0.010417407907136111,0.527
-0.016217313394398258,0.528
-0.021887005326843467,0.529
-0.02605616151150727,0.53
-0.027357111353848204,0.531
-0.025026889380881122,0.532
-0.019269029585481986,0.533
-0.011177862292021497,0.534
-0.002346709413604093,0.535
0.0055789970595581835,0.536
0.011249007010835116,0.537
0.013881114475880673,0.538
0.013499790704968397,0.539
0.011012608429220984,0.54
0.007952249867199333,0.541
0.005924345678035892,0.542
0.00604955127247647,0.543
0.008679702404876912,0.544
0.013413262505675688,0.545
0.019260114687792956,0.546
0.024826076959559726,0.547
0.02852234668757357,0.548
0.02891913401575142,0.549
0.025241085366406613,0.55
0.017757519455553112,0.551
0.007791652735712302,0.552
-0.002707293728157054,0.553
-0.011828839639485477,0.554
-0.01827444526255137,0.555
-0.021596259435670374,0.556
-0.022094002243969138,0.557
-0.02052760648574059,0.558
-0.01780275507673299,0.559
-0.01470705013035831,0.56
-0.011721062627363346,0.561
-0.008939735206936259,0.562
-0.006149742345224744,0.563
-0.003061687541534571,0.564
0.00038602587320281736,0.565
0.0038181095300332452,0.566
0.006461832215910223,0.567
0.007424732579831582,0.568
0.006038907115562732,0.569
0.0020962791980392087,0.57
-0.00408528172939823,0.571
-0.011719605840434109,0.572
-0.019664967530337755,0.573
-0.026572095771157864,0.574
-0.03107488471644586,0.575
-0.03199246422839056,0.576
-0.02851026052273728,0.577
-0.020358400824484237,0.578
-0.008007367281986678,0.579
0.0071898824281350195,0.58
0.023071913888589358,0.581
0.0370686968323557,0.582
0.04685522603895242,0.583
0.050998719729829965,0.584
0.049292931138723815,0.585
0.042657063014415714,0.586
0.03273575538103363,0.587
0.021424660179135784,0.588
0.01045861070980055,0.589
0.001114144381612753,0.59
-0.005970743519593007,0.591
-0.010858097772293997,0.592
-0.014174428252689046,0.593
-0.01673939783936396,0.594
-0.019123361066697986,0.595
-0.021391193636318962,0.596
-0.023150029156273427,0.597
-0.023807563187472416,0.598
-0.022853831998506005,0.599
-0.020052206287033757,0.6
-0.015545217699219483,0.601
-0.009874166266683141,0.602
-0.003865131920932396,0.603
0.0015787920088270928,0.604
0.0056610858168696125,0.605
0.007817836217783676,0.606
0.007854520971823575,0.607
0.006090791036618866,0.608
0.003367335742310283,0.609
0.0007979190368233853,0.61
-0.0006457619873919187,0.611
-0.000472554397159146,0.612
0.0012530863150167662,0.613
0.0040811379131118755,0.614
0.007409650746881883,0.615
0.010611944468031018,0.616
0.013044810639324325,0.617
0.01407010825077882,0.618
0.013209980163016964,0.619
0.010388970512862765,0.62
0.006086216624527104,0.621
0.0012483036349173742,0.622
-0.0030388947333889853,0.623
-0.005945375001595942,0.624
-0.007154164637326516,0.625
-0.006890423914341532,0.626
-0.00575166669079258,0.627
-0.0044569880493915675,0.628
-0.0036334153123525384,0.629
-0.0036728969290971245,0.63
-0.004663694252232164,0.631
-0.006415609895650254,0.632
-0.008552978158971877,0.633
-0.010612648513179888,0.634
-0.012117686587927619,0.635
-0.012620613008439365,0.636
-0.01173389296464539,0.637
-0.009209835602648552,0.638
-0.005095665059339786,0.639
0.000127090969604766,0.64
0.005556059289674833,0.641
0.010082534867637521,0.642
0.012726778874877703,0.643
0.012956983956053603,0.644
0.010901914901197136,0.645
0.0073975505921779336,0.646
0.003770869023172093,0.647
0.001375435275632148,0.648
0.0011079665684730522,0.649
0.0031541723567373903,0.65
0.007042306875135186,0.651
0.011893233702779815,0.652
0.016685830838275593,0.653
0.020444101213660887,0.654
0.022365206572143727,0.655
0.021934526860988696,0.656
0.01901063665134892,0.657
0.013794836035608143,0.658
0.006660302246848511,0.659
-0.002022238455388035,0.66
-0.011901997819024191,0.661
-0.022534065055430628,0.662
-0.03327382357897927,0.663
-0.0432319598339516,0.664
-0.051275544453608386,0.665
-0.05608077256228807,0.666
-0.05624909903150324,0.667
-0.050543810653658025,0.668
-0.03833315603530625,0.669
-0.020150949706467376,0.67
0.001982988780062737,0.671
0.02480787575563295,0.672
0.04458445569745015,0.673
0.05806652098265296,0.674
0.06336265869563594,0.675
0.060393960163449806,0.676
0.0507807042511094,0.677
0.037260319202981715,0.678
0.022886997097737578,0.679
0.010239300279100635,0.68
0.0008640916831899606,0.681
-0.004856879346517728,0.682
-0.007455479157681037,0.683
-0.007950181770406087,0.684
-0.007417677490995166,0.685
-0.0066743606605032335,0.686
-0.006149563238169466,0.687
-0.005953762739645976,0.688
-0.006053463612660978,0.689
-0.0064577923901582,0.69
-0.007351195308092292,0.691
-0.009100359806222808,0.692
-0.012116158408720141,0.693
-0.01664082709125198,0.694
-0.022532979365632613,0.695
-0.029100909272930905,0.696
-0.03506408454151116,0.697
-0.038739072659818456,0.698
-0.038458638992928534,0.699
-0.03308532760156657,0.7
-0.022423805417178654,0.701
-0.007393897511826699,0.702
0.01007113819931463,0.703
0.027378694891239366,0.704
0.041878706967684726,0.705
0.05157771513624468,0.706
0.05560190797603371,0.707
0.05415780066936874,0.708
0.04811654634328173,0.709
0.038575370301063845,0.71
0.026652491709696764,0.711
0.013463615594453294,0.712
0.00011160126263574501,0.713
-0.01232381823938774,0.714
-0.02277346866370804,0.715
-0.03023532353850284,0.716
-0.03398686419235167,0.717
-0.03388262708247071,0.718
-0.03051996159034033,0.719
-0.02512552780337007,0.72
-0.019224484569093522,0.721
-0.014226395798432108,0.722
-0.011028895692183223,0.723
-0.00972653129674121,0.724
-0.009511334452337764,0.725
-0.008884269630263878,0.726
-0.006233775193898992,0.727
-0.0005609595905258828,0.728
0.008038587444957158,0.729
0.018330781002385277,0.73
0.028271452920675594,0.731
0.03556877296590756,0.732
0.038324616265593435,0.733
0.03556602339648579,0.734
0.027499845559995604,0.735
0.015433011745876041,0.736
0.0014428236128339789,0.737
-0.012062546704492373,0.738
-0.022798953424989082,0.739
-0.029042984038029476,0.74
-0.030005984555495437,0.741
-0.025998830951269397,0.742
-0.018272578119457938,0.743
-0.008638479979734555,0.744
0.0009477367655685635,0.745
0.008767452225192606,0.746
0.013688824955348362,0.747
0.015393947193399786,0.748
0.01431157995453705,0.749
0.011264464445838614,0.75
0.007084454165465264,0.751
0.0024155017467689032,0.752
-0.0022733380386670524,0.753
-0.006566627865975375,0.754
-0.010015177425682684,0.755
-0.012192943623758995,0.756
-0.012864670221167416,0.757
-0.012080945080551507,0.758
-0.010091216243515748,0.759
-0.007213201247767856,0.76
-0.0038318528017512437,0.761
-0.00044805752479006397,0.762
0.0024076149459992245,0.763
0.004361569844537115,0.764
0.005307089327935739,0.765
0.00539754031969883,0.766
0.0049949866153594135,0.767
0.004580948684345105,0.768
0.004601399048304145,0.769
0.0053065716021612926,0.77
0.006690242118435805,0.771
0.008547502020716649,0.772
0.010570055459891014,0.773
0.012394744653377329,0.774
0.013619964354900359,0.775
0.013861700739044186,0.776
0.012824112982735237,0.777
0.010297905457673208,0.778
0.006098649327307504,0.779
2.903739657063615e-05,0.78
-0.008057927754075869,0.781
-0.01801948388967289,0.782
-0.02902612971784044,0.783
-0.03926519028500065,0.784
-0.046132311482934625,0.785
-0.047015041097255884,0.786
-0.0402864886044536,0.787
-0.025993487540734248,0.788
-0.006002257253711913,0.789
0.01636563008601176,0.79
0.037099414803070184,0.791
0.052524858898985304,0.792
0.0603066746528382,0.793
0.059982501160490934,0.794
0.05273162628376825,0.795
0.04058756628633985,0.796
0.025615362090833083,0.797
0.009410743318363703,0.798
-0.007009453287952948,0.799
-0.023011546103813424,0.8
-0.037986103210820264,0.801
-0.050999824712604225,0.802
-0.06064550938061464,0.803
-0.06519718220021734,0.804
-0.06304215186227403,0.805
-0.053270201529312146,0.806
-0.036231199281292065,0.807
-0.013806488765302513,0.808
0.010816527244141148,0.809
0.03383690903775396,0.81
0.051735269884267104,0.811
0.062095033720682175,0.812
0.06413976633558928,0.813
0.05878446526111431,0.814
0.0481497524910295,0.815
0.03480102572328571,0.816
0.021081753522389515,0.817
0.008740502090723452,0.818
-0.0011712050193951854,0.819
-0.00827831533654881,0.82
-0.01283342529356643,0.821
-0.015618386351954259,0.822
-0.017752186260209576,0.823
-0.020408594955430875,0.824
-0.024469090180522332,0.825
-0.03015681887501085,0.826
-0.03677014608026946,0.827
-0.042671413402128884,0.828
-0.045647748900053395,0.829
-0.0436084315361934,0.83
-0.03534935854501173,0.831
-0.02107097746363965,0.832
-0.002502271350101319,0.833
0.01740250738599335,0.834
0.03516298993903389,0.835
0.047682604992953556,0.836
0.053044272220041495,0.837
0.050923034752062744,0.838
0.04252653699453979,0.839
0.03011976477528958,0.84
0.016326969870124244,0.841
0.003483830034282028,0.842
-0.006771659837520656,0.843
-0.013633173184339346,0.844
-0.017052070043391786,0.845
-0.017552361900308712,0.846
-0.015995166209491332,0.847
-0.013315974893133908,0.848
-0.010283271834603272,0.849
-0.007370102243703036,0.85
-0.004784472528984977,0.851
-0.002600399140407509,0.852
-0.0008703148143118932,0.853
0.000356569002907649,0.854
0.001058605119231167,0.855
0.001236629171558594,0.856
0.0009085397562635643,0.857
0.0001548157438047571,0.858
-0.0008262707293902647,0.859
-0.0017596891075572977,0.86
-0.002439157583071801,0.861
-0.0028331738834359017,0.862
-0.0030378148524420954,0.863
-0.0031473831970836755,0.864
-0.0031957326973199437,0.865
-0.003192449212892671,0.866
-0.003147251265186855,0.867
-0.0030288690349175875,0.868
-0.002726568263079505,0.869
-0.0020823090548585358,0.87
-0.000962854540150209,0.871
0.0006922138419288795,0.872
0.002852012834981677,0.873
0.0053699398166602895,0.874
0.007952008034969732,0.875
0.010183284850280989,0.876
0.011654106831178436,0.877
0.012098159034325727,0.878
0.011441840512436728,0.879
0.00979653949795978,0.88
0.0074402294823263425,0.881
0.0047538309472347625,0.882
0.0021026884833456887,0.883
-0.0002679262267594871,0.884
-0.002260518579436393,0.885
-0.0038837680110625234,0.886
-0.005179287842324009,0.887
-0.00615640991127222,0.888
-0.006785046389558496,0.889
-0.007057892207088082,0.89
-0.007053347869717448,0.891
-0.006918603712046936,0.892
-0.006788272431720924,0.893
-0.006725094099134091,0.894
-0.006727510350343909,0.895
-0.0067717986037290024,0.896
-0.006820002904417791,0.897
-0.006773275970740462,0.898
-0.006429745557431571,0.899
-0.005513482957102772,0.9
-0.0037835277695047837,0.901
-0.0011521267244287558,0.902
0.00228020899520931,0.903
0.00626633914330943,0.904
0.010437958289447111,0.905
0.014287491098633304,0.906
0.017174765414046306,0.907
0.01841691949273086,0.908
0.0174612378954488,0.909
0.014070951012329573,0.91
0.008409465682815651,0.911
0.0009738253237429127,0.912
-0.007526004577074383,0.913
-0.01619315786167528,0.914
-0.023868852003605827,0.915
-0.02912310402686356,0.916
-0.030488327300790662,0.917
-0.02695067121455287,0.918
-0.018496161364153236,0.919
-0.0063885999032328444,0.92
0.007058146006444779,0.921
0.0191787453446874,0.922
0.027828458223177383,0.923
0.03203909433845003,0.924
0.03216251120490855,0.925
0.0294533317464319,0.926
0.025330830224977195,0.927
0.020729344019580223,0.928
0.015887974993742667,0.929
0.010619416364397012,0.93
0.004763302170017298,0.931
-0.0015284886212105307,0.932
-0.007818470987512484,0.933
-0.013617875037050847,0.934
-0.018644817649074448,0.935
-0.022970070609112606,0.936
-0.026953678174282025,0.937
-0.030959438182404406,0.938
-0.034970071666314176,0.939
-0.038307264343183184,0.94
-0.03962842767434229,0.941
-0.037280351396467716,0.942
-0.02994566731244683,0.943
-0.01729934816220945,0.944
-0.00035457655188777355,0.945
0.018617963461016757,0.946
0.03657977569645791,0.947
0.0505237287184223,0.948
0.0583057216317847,0.949
0.05915741605820119,0.95
0.05369703669392614,0.951
0.043513274405358966,0.952
0.03058297619356084,0.953
0.016800273800033533,0.954
0.0037020556395371456,0.955
-0.007694759464179159,0.956
-0.01697349191503328,0.957
-0.024262355838179737,0.958
-0.03002618462383449,0.959
-0.034763670045209895,0.96
-0.038710813374718905,0.961
-0.04161772057704337,0.962
-0.04265995269188468,0.963
-0.04062816001715857,0.964
-0.03446296752751965,0.965
-0.023882608645644263,0.966
-0.009718572129004437,0.967
0.006173539594893858,0.968
0.021337584565580263,0.969
0.033349054428535536,0.97
0.04046890572511181,0.971
0.042068616047318076,0.972
0.03865778953684916,0.973
0.03156308694145244,0.974
0.022462231186153415,0.975
0.012959058414978316,0.976
0.004311017906205874,0.977
-0.002677606449895235,0.978
-0.007668789235370325,0.979
-0.01074412518724752,0.98
-0.012272256587497574,0.981
-0.012718242607020895,0.982
-0.012482384633209788,0.983
-0.011803332775214725,0.984
-0.010713333944559911,0.985
-0.009071687838620522,0.986
-0.006703888281923836,0.987
-0.003597039949666137,0.988
-4.34924398247829e-05,0.989
0.0033705912196951944,0.99
0.005976541789240211,0.991
0.00732583279728548,0.992
0.007369669837734799,0.993
0.0064369227721674345,0.994
0.005074855880769883,0.995
0.003809033838051777,0.996
0.0029107692856482573,0.997
0.002311462470207175,0.998
0.0017113765582877948,0.999
0.0007799025215688677,1.0
-0.0006817887200006964,1.001
-0.002673638317526279,1.002
-0.005018836495723752,1.003
-0.007429707426160425,1.004
-0.009580344776350133,1.005
-0.011177585406337441,1.006
-0.012012688760533794,1.007
-0.011963936768411381,1.008
-0.010968849423365743,1.009
-0.009045723718828176,1.01
-0.00638654427077187,1.011
-0.003396289243707377,1.012
-0.0005474258308242751,1.013
0.0018833073583732615,1.014
0.003974599200479936,1.015
0.006075700671644742,1.016
0.008539039524252216,1.017
0.011437092803323825,1.018
0.01437202118588709,1.019
0.016443375220580824,1.02
0.016510038513397628,1.021
0.013765585698345142,1.022
0.008272024450550424,1.023
0.0010332228201963398,1.024
-0.006397612418502725,1.025
-0.012480534309032825,1.026
-0.016165057991581307,1.027
-0.017100319694453144,1.028
-0.01550580449885758,1.029
-0.011856342929196274,1.03
-0.006611076068362817,1.031
-9.49627562539603e-05,1.032
0.007403099019477253,1.033
0.015325731796925418,1.034
0.022573649567804575,1.035
0.027567639167533336,1.036
0.028737049100336923,1.037
0.025210828469322613,1.038
0.01727432237555638,1.039
0.00629780710640474,1.04
-0.00573827900099844,1.041
-0.016762447714882542,1.042
-0.02499009064784736,1.043
-0.029212752896234002,1.044
-0.029006959510967285,1.045
-0.024766020259485884,1.046
-0.017531960778917995,1.047
-0.00872032374207596,1.048
0.00016555908420635393,1.049
0.007814151400177556,1.05
0.013342806753642591,1.051
0.016370691647355568,1.052
0.01690510634372705,1.053
0.015170893714949401,1.054
0.01148180936628774,1.055
0.006186400434600119,1.056
-0.00028684591194481565,1.057
-0.0073034152375244365,1.058
-0.013913254893276527,1.059
-0.018902859547711186,1.06
-0.02109906237296122,1.061
-0.019829299611504543,1.062
-0.015265849403792563,1.063
-0.008426916313900643,1.064
-0.0008277392234409649,1.065
0.0060321357905656625,1.066
0.011106644890788473,1.067
0.01400750494019395,1.068
0.014914090676784498,1.069
0.014265786217885124,1.07
0.01245370673522549,1.071
0.009683188610697502,1.072
0.0060457719998949395,1.073
0.0017617936641341977,1.074
-0.002561650034369316,1.075
-0.005911811485477453,1.076
-0.007208311636455702,1.077
-0.005816080079434996,1.078
-0.0019016798640010106,1.079
0.0035466577350113716,1.08
0.008979295041190582,1.081
0.012718714152225419,1.082
0.013476033036995395,1.083
0.010783017438828904,1.084
0.005126705670057332,1.085
-0.002282983002583619,1.086
-0.009953331469423968,1.087
-0.016516653346700463,1.088
-0.020957341745279526,1.089
-0.02264985026812102,1.09
-0.02130594603585714,1.091
-0.016961879386779694,1.092
-0.010049253583533032,1.093
-0.0014572848836231056,1.094
0.007524314901531328,1.095
0.0154177959545935,1.096
0.020899790173267704,1.097
0.023180162223831773,1.098
0.022246563770061543,1.099
0.018827251190434494,1.1
0.01408325603499899,1.101
0.009184520952057051,1.102
0.004936637319278331,1.103
0.0015757785540096336,1.104
-0.0011742585333601072,1.105
-0.0037840407835278834,1.106
-0.0065434611713457375,1.107
-0.009388352368508192,1.108
-0.011994406113085294,1.109
-0.014013134487319136,1.11
-0.015289466125218212,1.111
-0.015952585446858368,1.112
-0.01631676150199233,1.113
-0.01659316282066082,1.114
-0.01656880335499107,1.115
-0.01550931614261352,1.116
-0.012426405225303624,1.117
-0.006622554152638725,1.118
0.0017795449023661019,1.119
0.011655071966498697,1.12
0.02114989845173594,1.121
0.028243260667333396,1.122
0.03135060514160198,1.123
0.029778156040139996,1.124
0.02389768073637736,1.125
0.014957000219481178,1.126
0.004620613842078145,1.127
-0.005501399823804698,1.128
-0.01415455948546735,1.129
-0.020527283403777366,1.13
-0.02416378056251998,1.131
-0.024833132844402476,1.132
-0.022487887797560387,1.133
-0.017318247694725515,1.134
-0.009796208161420227,1.135
-0.0006573224166044424,1.136
0.009126373606509535,1.137
0.01837676113822846,1.138
0.025803964229131327,1.139
0.03017293158067777,1.14
0.030540148861945813,1.141
0.026572300480940964,1.142
0.0188241758958593,1.143
0.008751373889082979,1.144
-0.0016367423645048636,1.145
-0.010379792063028385,1.146
-0.016181028479398993,1.147
-0.018756358200288464,1.148
-0.01878363192517526,1.149
-0.01754339803700995,1.15
-0.016454108254683512,1.151
-0.016646962106328066,1.152
-0.018627859731556243,1.153
-0.022040963834723832,1.154
-0.025609417208245666,1.155
-0.02739905836773318,1.156
-0.02542511527657657,1.157
-0.018370925632404427,1.158
-0.006133034408937366,1.159
0.009937502514679238,1.16
0.02715611314156587,1.161
0.04209938874111438,1.162
0.05163484000034857,1.163
0.053943348328163186,1.164
0.04898136564059778,1.165
0.03824405742762443,1.166
0.0241058080928792,1.167
0.009097323890507315,1.168
-0.004643341860821699,1.169
-0.015661237101570247,1.17
-0.023226216303683985,1.171
-0.027205815348295543,1.172
-0.027886715369933014,1.173
-0.025822716942584235,1.174
-0.02172866974853256,1.175
-0.016404512975632574,1.176
-0.010653296090777392,1.177
-0.005187315651786984,1.178
-0.0005622542953087156,1.179
0.002850401322421785,1.18
0.0048743766547153225,1.181
0.0055260036460123545,1.182
0.004990376544689476,1.183
0.0035682498708899005,1.184
0.0016000298035932345,1.185
-0.000603431144588092,1.186
-0.0027917587889485043,1.187
-0.004758350208640814,1.188
-0.006302845095585044,1.189
-0.0072140833113963935,1.19
-0.0072879718277214,1.191
-0.006368564138618536,1.192
-0.00440277596785049,1.193
-0.0014978538113731585,1.194
0.002047085823423313,1.195
0.005769628354441903,1.196
0.009136149011980633,1.197
0.011667345868499763,1.198
0.013053150420070481,1.199
0.013209747025784854,1.2
0.012276546927662873,1.201
0.010578653625687679,1.202
0.00853403549900992,1.203
0.006504387200555571,1.204
0.004678844367644005,1.205
0.003049953791441168,1.206
0.0014350883749937782,1.207
-0.00047237850987847253,1.208
-0.002964251757765759,1.209
-0.006118585082742944,1.21
-0.00967291637889219,1.211
-0.013045755273508743,1.212
-0.015473840416993274,1.213
-0.016216273566041536,1.214
-0.014804867094134633,1.215
-0.011268992924819525,1.216
-0.006163937147307833,1.217
-0.00033226080199298474,1.218
0.00540407868678155,1.219
0.010400244712924462,1.22
0.014178453503230815,1.221
0.016348975850364544,1.222
0.01657535340175684,1.223
0.014649091003161327,1.224
0.010608150885790655,1.225
0.004785156066787404,1.226
-0.0022183440010762204,1.227
-0.00959303239826534,1.228
-0.016435257485419914,1.229
-0.021872108259397508,1.23
-0.025102970600815563,1.231
-0.02540488590879387,1.232
-0.022264230044854904,1.233
-0.015637179551487072,1.234
-0.006147644955918916,1.235
0.00490881499521635,1.236
0.015753242414431965,1.237
0.024499327203002318,1.238
0.029664955541377592,1.239
0.030592023124963914,1.24
0.027543763011717987,1.241
0.021486027389944998,1.242
0.013740570356581584,1.243
0.0056815304321988945,1.244
-0.0014934586179923559,1.245
-0.0069627925322534945,1.246
-0.010423513491511218,1.247
-0.01208177103344958,1.248
-0.012462599339222816,1.249
-0.012148678736282803,1.25
-0.011577528891017859,1.251
-0.010935446493376777,1.252
-0.01016109151672867,1.253
-0.009044392663914312,1.254
-0.007352954923845066,1.255
-0.004962728076235178,1.256
-0.0019759313504250173,1.257
0.0012621477045471946,1.258
0.004282682850265216,1.259
0.006675859966131815,1.26
0.008233570091778643,1.261
0.008972137491244833,1.262
0.009041786822361333,1.263
0.008614939822876321,1.264
0.007824767313289384,1.265
0.0067457043630377005,1.266
0.005381362735931746,1.267
0.0036593433227182985,1.268
0.0014425358835093694,1.269
-0.0014466382043351264,1.27
-0.005172166307563098,1.271
-0.009756215978411205,1.272
-0.014892968661944679,1.273
-0.01983864258572838,1.274
-0.023497071541044693,1.275
-0.024687827213304443,1.276
-0.02250965946572463,1.277
-0.01669513538552266,1.278
-0.007821903690125783,1.279
0.002766981244205482,1.28
0.013346462267885629,1.281
0.022281596153506632,1.282
0.028359911657928456,1.283
0.030948313842703315,1.284
0.030018595333470698,1.285
0.026056170597588902,1.286
0.019903414070116934,1.287
0.012596009854520465,1.288
0.00519022064881806,1.289
-0.0014111780753150592,1.29
-0.006574126772263798,1.291
-0.009951061327333316,1.292
-0.011460730362368976,1.293
-0.011309646808628034,1.294
-0.010014009594692359,1.295
-0.008310393753555311,1.296
-0.006921842541958896,1.297
-0.006281198159583613,1.298
-0.006379451019602921,1.299
-0.006826156761214361,1.3
-0.0070715934794348045,1.301
-0.006667922924384113,1.302
-0.005440015698137394,1.303
-0.0035064995643393367,1.304
-0.0012004037642472478,1.305
0.001047451231387211,1.306
0.0028371255242040914,1.307
0.0038889744347826638,1.308
0.004053944833120134,1.309
0.003303953374797064,1.31
0.0017713847864233275,1.311
-0.00020355204720910226,1.312
-0.002103504651312456,1.313
-0.003356794205823957,1.314
-0.0035095650509830273,1.315
-0.0024077353844179574,1.316
-0.00032060591330399326,1.317
0.002094924646767024,1.318
0.004029081854944171,1.319
0.00488102570285787,1.32
0.004562373520267131,1.321
0.003516229943374455,1.322
0.00240470247856982,1.323
0.0016944044173938203,1.324
0.0014364768921429248,1.325
0.0013479503158711436,1.326
0.0010588526971708706,1.327
0.0003284741076217845,1.328
-0.0008391782408211156,1.329
-0.002173406603846926,1.33
-0.0032146859470518073,1.331
-0.003470906044711752,1.332
-0.0025956942129008354,1.333
-0.0005456158505132189,1.334
0.002334438449756119,1.335
0.005371355157027638,1.336
0.007770485184784692,1.337
0.008876866853799046,1.338
0.008406460602940152,1.339
0.00655626068767553,1.34
0.00389382457685945,1.341
0.0010720032558954602,1.342
-0.0014269261862043484,1.343
-0.00337161424948278,1.344
-0.004720410210268638,1.345
-0.005535157006833043,1.346
-0.005944534531905081,1.347
-0.006151746254183302,1.348
-0.00642982855225216,1.349
-0.007056300711724742,1.35
-0.00820645235064918,1.351
-0.009873509181574569,1.352
-0.011830677678368401,1.353
-0.013586395320435858,1.354
-0.01437323365172644,1.355
-0.013316980999526442,1.356
-0.009780666854953357,1.357
-0.0036731866496336777,1.358
0.004420179411648984,1.359
0.013285752570283336,1.36
0.0213143663878596,1.361
0.026920261776751754,1.362
0.0290166349464394,1.363
0.027328659401968734,1.364
0.022401607254269106,1.365
0.015337152671380671,1.366
0.0074351194630447185,1.367
-0.00010555193318115658,1.368
-0.006392081199647489,1.369
-0.010927130323519182,1.37
-0.013555804293728066,1.371
-0.014347235046782019,1.372
-0.013524961088168285,1.373
-0.011454108233043428,1.374
-0.008624827980375444,1.375
-0.005594970135248534,1.376
-0.002880274380174607,1.377
-0.0008320707148891795,1.378
0.0004167825214732199,1.379
0.000923669765160592,1.38
0.0008827378140672912,1.381
0.0005703051234552621,1.382
0.0002594875950859793,1.383
0.00011388696061541942,1.384
0.0001317425347574848,1.385
0.00017507426644901866,1.386
5.1697641380317295e-05,1.387
-0.0003985352492481489,1.388
-0.0012467180905454934,1.389
-0.0024497089341877433,1.39
-0.0038402672528476266,1.391
-0.005134962221110056,1.392
-0.005991721279396684,1.393
-0.006122873786683621,1.394
-0.005396214240414513,1.395
-0.0038574430934557166,1.396
-0.0016965595431544605,1.397
0.0007930990322140924,1.398
0.0032701762384869893,1.399
0.0054392594809265955,1.4
0.007161033923305335,1.401
0.00848994179257622,1.402
0.00955747531674571,1.403
0.010363415796705407,1.404
0.010664072740546832,1.405
0.01008374547633313,1.406
0.00838736818841346,1.407
0.005698415472675532,1.408
0.002481137154751657,1.409
-0.0006680132268600205,1.41
-0.0032379245102175437,1.411
-0.004930182257985816,1.412
-0.005691796327619899,1.413
-0.005661171623115941,1.414
-0.0050680463012603375,1.415
-0.004159074359946747,1.416
-0.003166345733990341,1.417
-0.0022843653454356536,1.418
-0.0016441863554735438,1.419
-0.001304825694172704,1.42
-0.0012675858755145175,1.421
-0.0014889224053886486,1.422
-0.0018849812465563884,1.423
-0.0023446004552816553,1.424
-0.0027467423211824677,1.425
-0.0029696332147446714,1.426
-0.0028986678758366135,1.427
-0.0024458176632938,1.428
-0.0015842131015994453,1.429
-0.0003919116049668383,1.43
0.0009229800118453614,1.431
0.0020490581272389645,1.432
0.002644956196609939,1.433
0.002434872388171659,1.434
0.0013208835463685562,1.435
-0.0005205904959812765,1.436
-0.002635756211384785,1.437
-0.0044138254413237975,1.438
-0.005276542704624359,1.439
-0.0048566535184572995,1.44
-0.0031075407432545046,1.441
-0.00032628587969768736,1.442
0.0029097723273516806,1.443
0.005901070679640035,1.444
0.008052514427068452,1.445
0.009061607448375687,1.446
0.008964515410586744,1.447
0.008051129235078584,1.448
0.006720449078505937,1.449
0.005322207911460113,1.45
0.004039081051265039,1.451
0.0028674799328735597,1.452
0.001671459355802107,1.453
0.0002533064280317892,1.454
-0.0015426680818631394,1.455
-0.003689434503425218,1.456
-0.0058923640956248325,1.457
-0.007663337408141621,1.458
-0.008550956775457988,1.459
-0.00837161010258259,1.46
-0.007253626535881456,1.461
-0.005499849782448394,1.462
-0.0034418654472956217,1.463
-0.0013750496910399815,1.464
0.0004603078887398029,1.465
0.0018816221665050174,1.466
0.0027562008866845,1.467
0.0029970433051155288,1.468
0.002578729056180105,1.469
0.0015695447229471316,1.47
0.00015906278129736796,1.471
-0.0013461910189773876,1.472
-0.0025811008985762063,1.473
-0.003224476958822531,1.474
-0.0031036626699768666,1.475
-0.0022393548246722283,1.476
-0.0008057688029419765,1.477
0.0009416564772807928,1.478
0.0027226953333797524,1.479
0.004279487797467826,1.48
0.005421650512640842,1.481
0.006042189860810064,1.482
0.006094196138095169,1.483
0.005569492557434894,1.484
0.004505235833696796,1.485
0.0030017180585043763,1.486
0.0012319097953858557,1.487
-0.0005752602427826835,1.488
-0.0021842374892706027,1.489
-0.003411376324369764,1.49
-0.0041616647045416766,1.491
-0.004436087007766145,1.492
-0.004324235553659047,1.493
-0.003974210676700035,1.494
-0.0035234246007730396,1.495
-0.003035261501888956,1.496
-0.0024952072757152164,1.497
-0.0018543254055002792,1.498
-0.0010859680641615947,1.499
-0.0002219781316651999,1.5
0.0006610689990439926,1.501
0.0014826344568114166,1.502
0.0021709259214685362,1.503
0.0026424225065466993,1.504
0.002803511483319116,1.505
0.0026068118995278065,1.506
0.0021102502222262536,1.507
0.001466794463194189,1.508
0.0008460268512129484,1.509
0.0003495925906195415,1.51
-1.8069055504387944e-05,1.511
-0.00031161750262088175,1.512
-0.0005763238674557904,1.513
-0.0007863013192789449,1.514
-0.0008260113503929891,1.515
-0.0005449035804601626,1.516
0.00014627991569521033,1.517
0.0012012280110649284,1.518
0.002416504347091267,1.519
0.003473543428671788,1.52
0.004039152529872434,1.521
0.003881028692313965,1.522
0.002948663832489485,1.523
0.001391050706752819,1.524
-0.0004959783287790588,1.525
-0.002354097438307306,1.526
-0.0038346830712830873,1.527
-0.004669531350503646,1.528
-0.004742597076202421,1.529
-0.004127627478586762,1.53
-0.003081512681899936,1.531
-0.0019957819413327464,1.532
-0.0012969909151715022,1.533
-0.0013235455304779287,1.534
-0.0022291580137145583,1.535
-0.003915256419045874,1.536
-0.005986792365693126,1.537
-0.007786273912031029,1.538
-0.008560365358365884,1.539
-0.007718939538111988,1.54
-0.0050561804622756305,1.541
-0.0008256494699284664,1.542
0.004320424177874421,1.543
0.009454956095605838,1.544
0.013543236520652705,1.545
0.015686251314282734,1.546
0.015410398122895021,1.547
0.012855265240889813,1.548
0.008722284040361048,1.549
0.004024324052209755,1.55
-0.00021530193255012647,1.551
-0.003224270857332303,1.552
-0.00464614358202734,1.553
-0.004557639450196877,1.554
-0.003369846367041876,1.555
-0.0016815042217729525,1.556
-0.00010481384047818783,1.557
0.0009039315845687431,1.558
0.0011395279663278567,1.559
0.0006510029171682538,1.56
-0.00032420731846207786,1.561
-0.0014716817270211604,1.562
-0.0025023493736400122,1.563
-0.003210275489389834,1.564
-0.0035028732557754903,1.565
-0.003407034486987788,1.566
-0.0030410009164392503,1.567
-0.00256230603098992,1.568
-0.002111689851647608,1.569
-0.0017751401681295536,1.57
-0.0015779483562505176,1.571
-0.0015111492318628003,1.572
-0.0015654347760880496,1.573
-0.0017223595629213201,1.574
-0.0019113514272864293,1.575
-0.0020059828968381796,1.576
-0.0018795977080458357,1.577
-0.0014662909164947404,1.578
-0.0007779310940549532,1.579
0.00011831400125220275,1.58
0.0011283464989057862,1.581
0.002156695204665121,1.582
0.0031295067676971613,1.583
0.003987292661755538,1.584
0.0046426254041142785,1.585
0.004962759903431095,1.586
0.004813900249176038,1.587
0.0041163739756593576,1.588
0.00286181128344471,1.589
0.001125513174012992,1.59
-0.0008834897135959349,1.591
-0.0028028167647509566,1.592
-0.0042173396623297185,1.593
-0.004821901102957993,1.594
-0.0045347488989568654,1.595
-0.003527260638813357,1.596
-0.0021644030719511573,1.597
-0.0008615136181992222,1.598
8.177822460974706e-05,1.599
0.0005691911129296245,1.6
0.000670791235575344,1.601
0.0005343935716733359,1.602
0.00035301091796470426,1.603
0.0003857280495841596,1.604
0.0009110369000092126,1.605
0.0020570502247198503,1.606
0.003650154873922645,1.607
0.005255550634214925,1.608
0.006394556686172681,1.609
0.006772854910406272,1.61
0.006368914640200154,1.611
0.005350851615447775,1.612
0.003913858837037154,1.613
0.002171138946982051,1.614
0.00016289818316596866,1.615
-0.0020743261512125794,1.616
-0.00447087385211466,1.617
-0.006918839052367483,1.618
-0.009242989444476001,1.619
-0.011161370661807892,1.62
-0.012311998289166053,1.621
-0.012365507144060695,1.622
-0.01115706235330923,1.623
-0.008768696065529932,1.624
-0.005524730823011724,1.625
-0.0019100215846769165,1.626
0.0015396595580679025,1.627
0.004357187603389526,1.628
0.0062707807561364305,1.629
0.007300128018627922,1.63
0.007743343809265661,1.631
0.007994443283375629,1.632
0.008282203983730682,1.633
0.008520688967170913,1.634
0.008373511609876478,1.635
0.007488066236120346,1.636
0.005741493678355716,1.637
0.0033365513906578243,1.638
0.0007150349663284404,1.639
-0.0016115314963977547,1.64
-0.0031974779137644237,1.641
-0.0037465905023718227,1.642
-0.003191493092745339,1.643
-0.0017545567414694026,1.644
8.004966310569011e-05,1.645
0.0016982161773722428,1.646
0.0025450921557885545,1.647
0.0023188806605143686,1.648
0.0010927702813387351,1.649
-0.0007259017194906049,1.65
-0.002592815771960914,1.651
-0.004049920488049734,1.652
-0.004860059822604784,1.653
-0.005038672299657221,1.654
-0.00481434885480898,1.655
-0.004527681387002053,1.656
-0.004466041611938854,1.657
-0.004691667440723515,1.658
-0.004976513728286851,1.659
-0.004906208076549235,1.66
-0.004095712804853898,1.661
-0.002390464732657046,1.662
4.755731905778155e-05,1.663
0.002786208071352014,1.664
0.00524840219760492,1.665
0.006869220059753029,1.666
0.007265595936566203,1.667
0.006375238288568237,1.668
0.004500180485314607,1.669
0.002217705251070379,1.67
0.00017557674988905904,1.671
-0.0011441578557635271,1.672
-0.0015583329021784948,1.673
-0.0011369478965986093,1.674
-5.551089015267675e-05,1.675
0.0015134186537845726,1.676
0.0034029037229950914,1.677
0.005384416058673042,1.678
0.0071237837241350695,1.679
0.00821473195405095,1.68
0.008259685232864014,1.681
0.006960570781805827,1.682
0.004208339112792309,1.683
0.00014264986987296655,1.684
-0.004839074871959707,1.685
-0.010117489963900371,1.686
-0.014936927409861566,1.687
-0.018541232611855835,1.688
-0.020327594216017056,1.689
-0.01997707148583915,1.69
-0.01752046203458798,1.691
-0.013307560040232428,1.692
-0.007914864155268715,1.693
-0.0020593000720256637,1.694
0.003488488937259641,1.695
0.008033528183269894,1.696
0.011122966444718552,1.697
0.012700400679591241,1.698
0.013150004361607901,1.699
0.013140316213883065,1.7
0.01330858322797785,1.701
0.013949267820276027,1.702
0.014877073441590682,1.703
0.015530783917536909,1.704
0.01523920134070271,1.705
0.013488560069233964,1.706
0.010089675024088078,1.707
0.005271982580719544,1.708
-0.000289076866871939,1.709
-0.005611089599700954,1.71
-0.009734543203451917,1.711
-0.012072863307962811,1.712
-0.012569118309549506,1.713
-0.011615609874040311,1.714
-0.009851178431056214,1.715
-0.007939988362600047,1.716
-0.006369830206646991,1.717
-0.0053294845935203975,1.718
-0.004741280432209727,1.719
-0.004401730540503822,1.72
-0.00409991587889229,1.721
-0.0036776307475460796,1.722
-0.0030585004131815697,1.723
-0.0022507514791233595,1.724
-0.0013398860558157786,1.725
-0.00048406939179776497,1.726
0.00011293102494016839,1.727
0.0002643731313707611,1.728
-0.00012608464901927658,1.729
-0.0009994702884072023,1.73
-0.002108644714323219,1.731
-0.003067367465894432,1.732
-0.0034738030106526486,1.733
-0.0030283727759556635,1.734
-0.001599239734501959,1.735
0.000753924928412088,1.736
0.003770212510047731,1.737
0.006985665859991945,1.738
0.009794795325647815,1.739
0.011624283772710934,1.74
0.012134157431458207,1.741
0.011301868976375194,1.742
0.009373878837730942,1.743
0.006764323839326427,1.744
0.003945101784189557,1.745
0.0013448695655849656,1.746
-0.0007288651259868369,1.747
-0.002139496595832298,1.748
-0.0029298800280484075,1.749
-0.0032802522814095285,1.75
-0.003437500112957887,1.751
-0.0036449090857155566,1.752
-0.004074578555314303,1.753
-0.004768557445928035,1.754
-0.005623347000648536,1.755
-0.0064264824025311576,1.756
-0.0069143706588466886,1.757
-0.006841061349525869,1.758
-0.0060532972384250705,1.759
-0.004542899819454556,1.76
-0.002462776117726258,1.761
-0.00011177928901348345,1.762
0.002110021767019658,1.763
0.003785595528472342,1.764
0.004605879975742786,1.765
0.004480904006693374,1.766
0.0035670086831092757,1.767
0.002202260179269084,1.768
0.0007880040908514117,1.769
-0.000343526881257448,1.77
-0.0010300395146995375,1.771
-0.001295497817396084,1.772
-0.0012674621981855461,1.773
-0.0010463512315395192,1.774
-0.0006116761694994696,1.775
0.00015921049119648612,1.776
0.001360538001348175,1.777
0.0029270723351313044,1.778
0.004620865125893992,1.779
0.006133224564173123,1.78
0.007195730905072886,1.781
0.007611522930984367,1.782
0.007225472497753877,1.783
0.005928785243779581,1.784
0.0037419838693196553,1.785
0.0008990434661247013,1.786
-0.002170076094581203,1.787
-0.004957896051648648,1.788
-0.007016817301728927,1.789
-0.00805566486795809,1.79
-0.007981089126404217,1.791
-0.006892503580302695,1.792
-0.005054506612314957,1.793
-0.0028587131635374264,1.794
-0.0007648338123053564,1.795
0.0007801503436968757,1.796
0.001427390432262506,1.797
0.001004217882097505,1.798
-0.0004219830734102588,1.799
-0.0025268807652838337,1.8
-0.004799091840800839,1.801
-0.006688697425355254,1.802
-0.0077687597184031305,1.803
-0.00783193806314336,1.804
-0.006891791872427497,1.805
-0.00511215201494589,1.806
-0.002714587022278482,1.807
8.316880683135616e-05,1.808
0.0030801309051014477,1.809
0.00607639552868649,1.81
0.008850784293202482,1.811
0.011155624988765846,1.812
0.012742189684079277,1.813
0.013385853161276906,1.814
0.012900326410254135,1.815
0.011184773537934503,1.816
0.00829953224936237,1.817
0.00450759255504712,1.818
0.00025168384763513347,1.819
-0.003916751306282427,1.82
-0.007422073898978946,1.821
-0.009734803771278295,1.822
-0.010438470764601075,1.823
-0.009315004959644683,1.824
-0.006430464495844936,1.825
-0.0021874016304498224,1.826
0.0026785989673917053,1.827
0.007182763784023829,1.828
0.010267775233824872,1.829
0.011067233324046424,1.83
0.00920055216604396,1.831
0.004956944183666352,1.832
-0.00075218779581544,1.833
-0.0066505814139744684,1.834
-0.01144928286722746,1.835
-0.014183430001868641,1.836
-0.01445189896727625,1.837
-0.01249308530350643,1.838
-0.009057883014291869,1.839
-0.00511515581963101,1.84
-0.0015224318390568163,1.841
0.0011904224649293904,1.842
0.0028762422959802245,1.843
0.0036962090075744933,1.844
0.003970387896206864,1.845
0.004027329687982419,1.846
0.004105707799141548,1.847
0.004308023407565741,1.848
0.004589555388758176,1.849
0.004784592033246048,1.85
0.004676152803627346,1.851
0.004089985581970265,1.852
0.0029808525541674758,1.853
0.0014770380981462613,1.854
-0.00015643800660470345,1.855
-0.001628993386433261,1.856
-0.002724011560467378,1.857
-0.0033126421630549647,1.858
-0.0033129808534287227,1.859
-0.0026878316226473056,1.86
-0.0015079928216352558,1.861
2.850552986766999e-06,1.862
0.001519985227499282,1.863
0.002734656913212312,1.864
0.0034459805770348443,1.865
0.0035819649720374843,1.866
0.003170886145578205,1.867
0.002309693016523362,1.868
0.001153524802362883,1.869
-9.430655145948765e-05,1.87
-0.0012196778008681662,1.871
-0.0020504567549083134,1.872
-0.002489845444103242,1.873
-0.002515718539992939,1.874
-0.002163303725334009,1.875
-0.0015186111755753802,1.876
-0.0007230450932710085,1.877
3.631777211214902e-05,1.878
0.0005595105662960779,1.879
0.0006770455877992715,1.88
0.0002844048503341886,1.881
-0.000639943186417259,1.882
-0.002008678671409106,1.883
-0.0035953019900196136,1.884
-0.005055088711402042,1.885
-0.006014901886074957,1.886
-0.006180789033123421,1.887
-0.0054109346538051455,1.888
-0.0037400313461120414,1.889
-0.001356983615331749,1.89
0.0014536243531026837,1.891
0.004363848343126208,1.892
0.007016248082758422,1.893
0.00904156832058723,1.894
0.010130212349009755,1.895
0.01012287370892012,1.896
0.009054181168627043,1.897
0.0071292159215194505,1.898
0.0046615579961059445,1.899
0.002006290483025013,1.9
-0.0005071187494596515,1.901
-0.0026302086297853304,1.902
-0.004213032046312391,1.903
-0.005187670642051626,1.904
-0.005551561220201137,1.905
-0.0053649812850356604,1.906
-0.0047439668820309045,1.907
-0.0038381161150173072,1.908
-0.0028015180991367373,1.909
-0.0017757390171096058,1.91
-0.000890866244919402,1.911
-0.000259160965993782,1.912
5.043632116079679e-05,1.913
3.394081909726936e-05,1.914
-0.0002548882634331495,1.915
-0.0007332229385214775,1.916
-0.0013100220379533547,1.917
-0.0018922612987885062,1.918
-0.0023872074962504905,1.919
-0.0027018858639787477,1.92
-0.0027406906604527464,1.921
-0.0024169476733852824,1.922
-0.0016818847640180854,1.923
-0.0005469232419311908,1.924
0.000907286971862925,1.925
0.0025283667069976386,1.926
0.0041073049759316835,1.927
0.00541222616169925,1.928
0.006228456375859248,1.929
0.006399172482305471,1.93
0.005867787021445588,1.931
0.0047107120110275475,1.932
0.0031263708394049824,1.933
0.0013746057874942112,1.934
-0.0002941785081983852,1.935
-0.0016829805206898462,1.936
-0.002659933124892787,1.937
-0.0031663591870216418,1.938
-0.003233688040626628,1.939
-0.002972359368685161,1.94
-0.002516856863875893,1.941
-0.0019764604981671943,1.942
-0.0014352655953590982,1.943
-0.0009818579952064882,1.944
-0.0007188770674967821,1.945
-0.0007256745936999187,1.946
-0.00099609800531742,1.947
-0.0014095308951019916,1.948
-0.001768341280578154,1.949
-0.0018726690223771578,1.95
-0.0015912734925455057,1.951
-0.0009087412036640169,1.952
7.888245860607839e-05,1.953
0.001227138566206085,1.954
0.002401314907917484,1.955
0.0034753834678723666,1.956
0.004305815019409174,1.957
0.004731593647360241,1.958
0.00460420835933669,1.959
0.0038394842620759245,1.96
0.002479509558822344,1.961
0.0007163309123990251,1.962
-0.001158338369148272,1.963
-0.002839048109808214,1.964
-0.004071481371736997,1.965
-0.0046914201690373405,1.966
-0.004659204894354211,1.967
-0.004074559831594151,1.968
-0.0031382285288041683,1.969
-0.0020817081804220716,1.97
-0.0011118602236936611,1.971
-0.000367025907572017,1.972
0.00012514496952138927,1.973
0.0004504784175018355,1.974
0.000749561472048005,1.975
0.001134930115116615,1.976
0.0016345306793542713,1.977
0.002183622272411111,1.978
0.0026581073419376967,1.979
0.0029287159115951584,1.98
0.002909174878741491,1.981
0.0025772410310391184,1.982
0.0019714095313148566,1.983
0.0011746163797836987,1.984
0.0002928424038612837,1.985
-0.0005619779543387782,1.986
-0.0012890151598190494,1.987
-0.0018191830318631968,1.988
-0.0021209647389886744,1.989
-0.0021899454418249416,1.99
-0.002043583264317587,1.991
-0.001717355517521622,1.992
-0.00124553108972104,1.993
-0.0006448931652668123,1.994
6.592947640841926e-05,1.995
0.0008234811690336518,1.996
0.0015039009792825152,1.997
0.001960007520557965,1.998
0.002081041054406634,1.999
0.0018323847282750276,2.0
0.0012648260655577289,2.001
0.0005005107635761251,2.002
-0.0002959135745275462,2.003
-0.0009510565826147586,2.004
-0.001329220722494761,2.005
-0.0013882670681648268,2.006
-0.001193729227920204,2.007
-0.0008667266008928169,2.008
-0.0005175875294934417,2.009
-0.00021489125099475876,2.01
3.4077962701566706e-06,2.011
0.00010295269169576143,2.012
5.6703536663745834e-05,2.013
-0.00011910144094124438,2.014
-0.0003475538509829579,2.015
-0.0005198006130744166,2.016
-0.0005453196616635087,2.017
-0.00038130589011941483,2.018
-3.4784449839823605e-05,2.019
0.00043535718781988463,2.02
0.0009196026359652807,2.021
0.0012885648338946743,2.022
0.0014375226304612092,2.023
0.0013149339289334943,2.024
0.0009368235951926538,2.025
0.0003823329456753502,2.026
-0.0002401455897630844,2.027
-0.0008337925524719166,2.028
-0.0013331589352859358,2.029
-0.0017033958318370059,2.03
-0.0019364446493126543,2.031
-0.0020523837497558785,2.032
-0.0020921323163506467,2.033
-0.002087034618714533,2.034
-0.0020189919399917627,2.035
-0.0018093584375440267,2.036
-0.001360047231528614,2.037
-0.0006242488097269294,2.038
0.00034355019271475895,2.039
0.0013958246066231666,2.04
0.0023591413379805593,2.041
0.0031151051517376727,2.042
0.0036310911539476146,2.043
0.0039296618786943726,2.044
0.004046346162684434,2.045
0.004006965786897741,2.046
0.003817637891365021,2.047
0.003461034143996707,2.048
0.0029072669710432865,2.049
0.0021465581438163965,2.05
0.0012188083455665368,2.051
0.0002081901075367573,2.052
-0.000784576071282254,2.053
-0.0016667399689679389,2.054
-0.002379015056124971,2.055
-0.0029164328181676496,2.056
-0.0033177223549896023,2.057
-0.0036295335024173277,2.058
-0.003877304411203555,2.059
-0.004056414146930095,2.06
-0.004141134290674115,2.061
-0.004100582844400059,2.062
-0.0039062447652949534,2.063
-0.0035268214186502046,2.064
-0.0029278911158567714,2.065
-0.0020909608485469456,2.066
-0.0010352892866585122,2.067
0.00017812461376050741,2.068
0.0014582509254092014,2.069
0.002697710073543174,2.07
0.0037765116301338637,2.071
0.004561233178258096,2.072
0.004922024143282467,2.073
0.004781239746434103,2.074
0.004170258936234027,2.075
0.0032382036829053155,2.076
0.0021898154623778234,2.077
0.0011987284760645335,2.078
0.00035531397059825173,2.079
-0.00032892401628377947,2.08
-0.0008808836942930325,2.081
-0.0013314769250703205,2.082
-0.0017111851910405831,2.083
-0.0020575343655724987,2.084
-0.0023990222030363445,2.085
-0.0027189425105304233,2.086
-0.0029414755494708987,2.087
-0.0029603126762349466,2.088
-0.002686086060826881,2.089
-0.0020813552327350712,2.09
-0.0011744126673691835,2.091
-5.356547440006961e-05,2.092
0.0011499663042814977,2.093
0.0022767815563920248,2.094
0.0031590624662152064,2.095
0.0036570876534739766,2.096
0.003698838552877153,2.097
0.0032966983453311415,2.098
0.002530659096969312,2.099
0.0015207130633233409,2.1
0.0004091998013892847,2.101
-0.0006522163640033614,2.102
-0.0015179734894548286,2.103
-0.0020732915302426533,2.104
-0.0022638017718357236,2.105
-0.002103726047808868,2.106
-0.0016558588197272423,2.107
-0.0010090189215387604,2.108
-0.0002689663174147666,2.109
0.00044225637691835365,2.11
0.000994597587136174,2.111
0.001283620719063469,2.112
0.0012776499380308373,2.113
0.0010352291133804389,2.114
0.0006706843607211077,2.115
0.0002963446587789549,2.116
-1.4797243844316405e-05,2.117
-0.00023381945130600745,2.118
-0.00036620839569885186,2.119
-0.0004369446047125313,2.12
-0.00047456113219970667,2.121
-0.0005119005148401357,2.122
-0.0005881195582898236,2.123
-0.0007248847445033403,2.124
-0.0009019742660927215,2.125
-0.0010583520461066307,2.126
-0.0011174189137987717,2.127
-0.0010350270696384812,2.128
-0.0008405643014765117,2.129
-0.0006259201512260372,2.13
-0.0004891844532296793,2.131
-0.0004833851359600382,2.132
-0.0006056482868705414,2.133
-0.0008187161753969504,2.134
-0.0010676801601620742,2.135
-0.0012761609497047958,2.136
-0.00134618553274148,2.137
-0.0011910520118998944,2.138
-0.0007873101845032375,2.139
-0.00019039054830863463,2.14
0.0005057357270915273,2.141
0.0012237671028882404,2.142
0.0019321985379398255,2.143
0.0026350010643102707,2.144
0.003328748657815187,2.145
0.003961954685387971,2.146
0.004434669460820346,2.147
0.004635520809748261,2.148
0.004480681076236382,2.149
0.003925569708792176,2.15
0.002963148086311835,2.151
0.0016390913783417553,2.152
6.667701363801747e-05,2.153
-0.0015903680329782427,2.154
-0.003155474054282458,2.155
-0.004469231412564665,2.156
-0.005405771406252862,2.157
-0.005878289101541258,2.158
-0.005831738899456865,2.159
-0.005241017407346557,2.16
-0.004139275289302993,2.161
-0.0026474305492523924,2.162
-0.0009531927647512616,2.163
0.000742944375953924,2.164
0.0022535682654289207,2.165
0.0034017414887845044,2.166
0.004037509641639932,2.167
0.004077909812355553,2.168
0.003541082758992785,2.169
0.002555777901068462,2.17
0.0013366731675624095,2.171
0.0001322799907369673,2.172
-0.0008339457396510286,2.173
-0.0014082005921419367,2.174
-0.0015251898263168389,2.175
-0.0012088008178871932,2.176
-0.0005665047302994778,2.177
0.00022231637801628035,2.178
0.0009353366965851452,2.179
0.001362111093207912,2.18
0.001371298227800276,2.181
0.0009573495741965123,2.182
0.0002385641653232833,2.183
-0.0005908469081437261,2.184
-0.0013237058184502918,2.185
-0.0017924149926795095,2.186
-0.0019083199371661699,2.187
-0.0016887117101277254,2.188
-0.0012541698281966008,2.189
-0.0007770334998863188,2.19
-0.00040128298001277605,2.191
-0.00018787467870248179,2.192
-0.00012285212060673405,2.193
-0.00016868961298890494,2.194
-0.00029402046229017655,2.195
-0.0004605767592229235,2.196
-0.0006124643894964931,2.197
-0.000686400410074319,2.198
-0.0006266610187251386,2.199
-0.0004007748568715923,2.2
-1.282662848648584e-05,2.201
0.0004937297318754183,2.202
0.0010470060578509474,2.203
0.0015627530285732682,2.204
0.001960708530099532,2.205
0.0021892678961669553,2.206
0.002247283180575741,2.207
0.002182318124513268,2.208
0.0020614796896696237,2.209
0.0019245665025039986,2.21
0.0017521096526962113,2.211
0.001475534187302065,2.212
0.0010160480999285523,2.213
0.00033029910616194457,2.214
-0.0005506928451292826,2.215
-0.0015124962541392972,2.216
-0.002391852654480251,2.217
-0.0030272488394782037,2.218
-0.0032962597485104955,2.219
-0.0031500667325602967,2.22
-0.0026365235233484783,2.221
-0.0018789986072119138,2.222
-0.0010240625954180892,2.223
-0.00019717138596931575,2.224
0.0005164823721201454,2.225
0.0010708392206783847,2.226
0.0014503718721211227,2.227
0.0016600413273602027,2.228
0.00171560410172112,2.229
0.0016389715720344516,2.23
0.0014547491016848471,2.231
0.0011852126685864967,2.232
0.000854865805949596,2.233
0.0004961309431575951,2.234
0.00014009000221433445,2.235
-0.0001950783959480353,2.236
-0.0005104744359792994,2.237
-0.0008285886057526118,2.238
-0.001175117281555539,2.239
-0.0015388929422495874,2.24
-0.0018409483382555976,2.241
-0.0019502010377791738,2.242
-0.0017530279079204618,2.243
-0.0012286391600422086,2.244
-0.0004724136361502059,2.245
0.0003395227914952655,2.246
0.0010212936523277072,2.247
0.0014516731145414487,2.248
0.0016128237910257573,2.249
0.001574290108437048,2.25
0.0014264223622642395,2.251
0.0012062182053817357,2.252
0.000888061101058128,2.253
0.00044404576180342477,2.254
-9.875761282827099e-05,2.255
-0.0006513811472980112,2.256
-0.0010986296380554792,2.257
-0.0013478360640300294,2.258
-0.0013587735685203534,2.259
-0.001141557898441052,2.26
-0.0007421343820565705,2.261
-0.0002382440394093207,2.262
0.00026257763310581284,2.263
0.0006405220274450623,2.264
0.00079861800394666,2.265
0.0007050211112106136,2.266
0.00040950570251482583,2.267
1.2511661101196398e-05,2.268
-0.0003767277344852257,2.269
-0.0006569051255228538,2.27
-0.0007438942222280966,2.271
-0.0005892287956267122,2.272
-0.0001902233188486175,2.273
0.0004133370611293603,2.274
0.0011353897398862878,2.275
0.001840369391098196,2.276
0.002373470750054365,2.277
0.0026120096535336207,2.278
0.002494236091029179,2.279
0.0020214097896549266,2.28
0.001251882112746308,2.281
0.0002904346091205868,2.282
-0.0007334706661621746,2.283
-0.0017021331569930826,2.284
-0.0025334548105982106,2.285
-0.003160112202432217,2.286
-0.0034970122578807158,2.287
-0.0034555970718067306,2.288
-0.003002389921636044,2.289
-0.002202629359305343,2.29
-0.0012024342557606547,2.291
-0.00016636403517284208,2.292
0.0007710114995849483,2.293
0.0015069456997722115,2.294
0.001956101229627738,2.295
0.0020700501103391123,2.296
0.0018801977219645896,2.297
0.0015016553079933545,2.298
0.001078209226213645,2.299
0.0007163420112013375,2.3
0.0004600576572765103,2.301
0.00031156960321797875,2.302
0.0002587899615709626,2.303
0.00028046784067136,2.304
0.0003416284694267709,2.305
0.0003954349382113122,2.306
0.0003895464866699261,2.307
0.00027444233182774574,2.308
1.6447080629736632e-05,2.309
-0.0003796332712665345,2.31
-0.0008499698261243272,2.311
-0.00128751249952397,2.312
-0.0015935759411809661,2.313
-0.0017170278472538076,2.314
-0.0016582938956254164,2.315
-0.0014513604768355453,2.316
-0.0011350511265853544,2.317
-0.0007314685474191661,2.318
-0.00025435302551193623,2.319
0.0002639004648257117,2.32
0.0007617768283557248,2.321
0.0011711542846779247,2.322
0.0014602058543254227,2.323
0.0016521940711336665,2.324
0.0017937932005972935,2.325
0.0019088413969816417,2.326
0.001976339101685099,2.327
0.0019390806651316183,2.328
0.0017301323953451623,2.329
0.0013022282613019496,2.33
0.0006594936529293799,2.331
-0.00012269798623211353,2.332
-0.0009158523732249427,2.333
-0.0015873018310658608,2.334
-0.0020397896845816598,2.335
-0.002214364662248556,2.336
-0.0020824780259193457,2.337
-0.001663022463501383,2.338
-0.0010385713062359492,2.339
-0.0003294125738080293,2.34
0.00035543206599509305,2.341
0.0009439571761002415,2.342
0.0013928054506063597,2.343
0.0016641883110751169,2.344
0.0017086228902791155,2.345
0.0014645478494226263,2.346
0.0008727958393586881,2.347
-9.577155944238713e-05,2.348
-0.0013927802254101052,2.349
-0.0028467238318101193,2.35
-0.004174431527761143,2.351
-0.005065440481941237,2.352
-0.005284348425138794,2.353
-0.0047364878545815055,2.354
-0.003486580833786839,2.355
-0.0017310767025480644,2.356
0.0002657306733679581,2.357
0.0022383440911760296,2.358
0.003963281872605493,2.359
0.005274586195079986,2.36
0.006062095442574939,2.361
0.006273938741595597,2.362
0.005921301780532912,2.363
0.005060902320934966,2.364
0.003772771333229296,2.365
0.0021699929710543965,2.366
0.0004218833331971057,2.367
-0.0012522965344604012,2.368
-0.002631180178986372,2.369
-0.0035577673956078263,2.37
-0.00397525011471504,2.371
-0.003906086609500318,2.372
-0.003414902659418685,2.373
-0.0025963055691330113,2.374
-0.0015686426954098862,2.375
-0.00045480107648035933,2.376
0.000629065919328507,2.377
0.001571208890590546,2.378
0.0022719289447298034,2.379
0.002661297328501483,2.38
0.0027036266154013967,2.381
0.002386069004198654,2.382
0.0017092400687027682,2.383
0.0006944788136139854,2.384
-0.0005897091687621584,2.385
-0.0019998013799340654,2.386
-0.0033232829857227954,2.387
-0.004333431615062524,2.388
-0.004851165545632447,2.389
-0.004766940190620115,2.39
-0.00404469067524052,2.391
-0.002740976594840652,2.392
-0.0010165768740057867,2.393
0.0008838932672596702,2.394
0.002679442369471669,2.395
0.0041121990799229055,2.396
0.004994586001629279,2.397
0.005229306512207993,2.398
0.004814762353498148,2.399
0.00385153840404041,2.4
0.0025334244395236157,2.401
0.0011002954534921,2.402
-0.0002234575178252623,2.403
-0.0012699510193478296,2.404
-0.0019455333279298208,2.405
-0.0022292764407097826,2.406
-0.0021563556183976916,2.407
-0.0018056297292622578,2.408
-0.0013000327700690981,2.409
-0.0007884722021100374,2.41
-0.0003972686599061438,2.411
-0.0001969019574137221,2.412
-0.0002013095497863476,2.413
-0.0003736545167155406,2.414
-0.0006418440485888091,2.415
-0.0009363384897207956,2.416
-0.0012243334799278385,2.417
-0.0015042202671547045,2.418
-0.001763878847192832,2.419
-0.001949086565362976,2.42
-0.001980718595147234,2.421
-0.0017966330085557067,2.422
-0.0013632423396808795,2.423
-0.0006605873855946042,2.424
0.0003068201626085357,2.425
0.001459540728713721,2.426
0.002607830001768105,2.427
0.0034938103299869405,2.428
0.003895407511780202,2.429
0.0037190489301309484,2.43
0.003040726067015239,2.431
0.0020870369666657136,2.432
0.001148253889415377,2.433
0.00045766116773076455,2.434
0.00011267957853571812,2.435
7.480797394095241e-05,2.436
0.00022340608040568108,2.437
0.0004154925026079984,2.438
0.0005249197225605497,2.439
0.0004707953084776399,2.44
0.00024057881040105879,2.441
-0.00010958884581395796,2.442
-0.0004789481647260207,2.443
-0.000759623092026047,2.444
-0.0008826965857328488,2.445
-0.0008431782177451727,2.446
-0.0006839904286980598,2.447
-0.00047815029498355483,2.448
-0.0003287726677733395,2.449
-0.00035027886059638873,2.45
-0.0006202885654513425,2.451
-0.0011356190599779476,2.452
-0.0017994274121384273,2.453
-0.002452613396901256,2.454
-0.0029366053065146454,2.455
-0.003143288879875283,2.456
-0.003034121457714126,2.457
-0.002634711506930326,2.458
-0.0020046117465669718,2.459
-0.001208675544109528,2.46
-0.00031429374682387634,2.461
0.0006013282845387012,2.462
0.001448026310381341,2.463
0.002129931013304622,2.464
0.0025680885318002545,2.465
0.0027220145856621933,2.466
0.0025935829265576185,2.467
0.002224049468744008,2.468
0.0016999522197388304,2.469
0.0011485857399569637,2.47
0.0006928234002844176,2.471
0.0003933636313825871,2.472
0.00023479241285192796,2.473
0.00015782897322022858,2.474
0.00010171812362963255,2.475
2.6233819244327407e-05,2.476
-8.760883987509332e-05,2.477
-0.00023009252131978025,2.478
