VaMe,time
-0.0006878142966467015,0.001
0.0022859514713339355,0.002
0.0052083200484741125,0.003
0.007983390513453694,0.004
0.010469663061444902,0.005
0.012514023770477518,0.006
0.013999698763002888,0.007
0.014861260787462789,0.008
0.015046846059949257,0.009
0.014494237428306925,0.01
0.013172601939566198,0.011
0.011143949767808862,0.012
0.008591806133179421,0.013
0.0058046795088773084,0.014
0.003110602509438663,0.015
0.000787487774975213,0.016
-0.0009923381674450571,0.017
-0.0021492149406853317,0.018
-0.0026418197456303796,0.019
-0.0024384883562533592,0.02
-0.0015568768722553298,0.021
-0.00014241043902382311,0.022
0.001492314172385479,0.023
0.0029266927607867863,0.024
0.0037707196612261243,0.025
0.0037980741578461943,0.026
0.0029974739267637825,0.027
0.001529403739748406,0.028
-0.000360968252070268,0.029
-0.0024147488224404183,0.03
-0.004383411963510304,0.031
-0.006015682104447279,0.032
-0.00706388955512628,0.033
-0.007351805468716509,0.034
-0.006867985811191981,0.035
-0.005805861704831145,0.036
-0.004509043191064815,0.037
-0.0033598067528636624,0.038
-0.0026766213879974602,0.039
-0.0026483881181553455,0.04
-0.0033115499792645687,0.041
-0.00455479320676099,0.042
-0.006114188639214178,0.043
-0.007571260406409115,0.044
-0.00842248291095321,0.045
-0.008253254462866573,0.046
-0.0069322450642709125,0.047
-0.004671412819357763,0.048
-0.0019120373699447431,0.049
0.0008475987445702547,0.05
0.003184548030182736,0.051
0.004824638422959519,0.052
0.0056598339365187406,0.053
0.005732299344435947,0.054
0.005217562840616139,0.055
0.004422666259574718,0.056
0.0037787390308283136,0.057
0.003768433546475532,0.058
0.004774734037017208,0.059
0.006908559090641797,0.06
0.00988981644111274,0.061
0.013067036120936579,0.062
0.01559230097202769,0.063
0.01666698752596727,0.064
0.01577269053033502,0.065
0.01280885310081361,0.066
0.008077096481639942,0.067
0.0021585499364851282,0.068
-0.004214717071870768,0.069
-0.010261782595970817,0.07
-0.015253939597488747,0.071
-0.01864285793316446,0.072
-0.020202700100240844,0.073
-0.020080860115378595,0.074
-0.0186681233633814,0.075
-0.016359190124488478,0.076
-0.013360325401981607,0.077
-0.009662903298844162,0.078
-0.005201683275648092,0.079
-7.721892907282623e-05,0.08
0.005325293261660924,0.081
0.010381871535713306,0.082
0.014378633172237167,0.083
0.016671490210383763,0.084
0.01680894121237066,0.085
0.01462721190590129,0.086
0.01033693787457212,0.087
0.004580919635826275,0.088
-0.0015997885773420678,0.089
-0.006959911983554097,0.09
-0.010388510370731472,0.091
-0.011238778088843012,0.092
-0.009480705194429976,0.093
-0.005660345049775601,0.094
-0.0007674795553275992,0.095
0.00392825159864807,0.096
0.007109546620586641,0.097
0.007764344530456275,0.098
0.005576662666309499,0.099
0.0011239868781024677,0.1
-0.004285264855863888,0.101
-0.00907028082446248,0.102
-0.011877837039703888,0.103
-0.011894759687637639,0.104
-0.0089601483086289,0.105
-0.0035769052321145893,0.106
0.003176742201522056,0.107
0.009906050144031746,0.108
0.015286210641692086,0.109
0.01839830644740385,0.11
0.01886304326536986,0.111
0.01676659336136415,0.112
0.012498992383619874,0.113
0.0066335471212694355,0.114
-0.00012054747765186366,0.115
-0.006941121494895694,0.116
-0.012944084457859363,0.117
-0.01729353930478443,0.118
-0.01935095125364065,0.119
-0.018788427388703195,0.12
-0.015636126112697265,0.121
-0.010290745270712814,0.122
-0.0034937899844062876,0.123
0.003727743929056428,0.124
0.010176417543144878,0.125
0.014689699142641083,0.126
0.016438594550565074,0.127
0.015215081343753776,0.128
0.011515586948416076,0.129
0.006333208056209002,0.13
0.0008037690506587406,0.131
-0.004092431437407951,0.132
-0.007715140277889905,0.133
-0.009846220133280691,0.134
-0.010648771046895255,0.135
-0.010521044710494903,0.136
-0.00992670361715316,0.137
-0.009248408793773092,0.138
-0.008667422392902729,0.139
-0.008116146800986832,0.14
-0.007350989574552563,0.141
-0.006082388493785277,0.142
-0.004055386579811785,0.143
-0.001097736960896442,0.144
0.002782404625173512,0.145
0.007289570558123713,0.146
0.011822118654819394,0.147
0.015566183002986464,0.148
0.017693112465374472,0.149
0.017623923489744252,0.15
0.015258590594504408,0.151
0.011050395566080522,0.152
0.005879965426066498,0.153
0.0008024430610119238,0.154
-0.0031972375751639004,0.155
-0.00537049395903858,0.156
-0.0053205256506565,0.157
-0.0031045605726208614,0.158
0.0006978644481029597,0.159
0.0050180587202925675,0.16
0.00847588136145378,0.161
0.009674865319587432,0.162
0.007566414785279331,0.163
0.0018330403011979383,0.164
-0.00684374649099152,0.165
-0.016833254106354154,0.166
-0.025984328618767583,0.167
-0.03223691050341969,0.168
-0.03414025835795819,0.169
-0.031120241608258277,0.17
-0.023469885999334444,0.171
-0.012170088243175897,0.172
0.0012710672145354138,0.173
0.014920627588198303,0.174
0.026639455076998268,0.175
0.0345282607796153,0.176
0.037449612382338994,0.177
0.035341134144407864,0.178
0.029132113384730884,0.179
0.020317914457758705,0.18
0.010460100003874666,0.181
0.0008627914589660209,0.182
-0.007524486920670547,0.183
-0.014069070128022498,0.184
-0.018382570201979427,0.185
-0.020273703413027394,0.186
-0.019744575451305323,0.187
-0.01701318873963063,0.188
-0.012540763535140952,0.189
-0.0070484367010773714,0.19
-0.0014782645673686215,0.191
0.003157684987532444,0.192
0.006011525029279096,0.193
0.006593942857356426,0.194
0.004856025537232856,0.195
0.0011940572681741993,0.196
-0.0036104362873624193,0.197
-0.00854288062219411,0.198
-0.012558335435572525,0.199
-0.014766374261308276,0.2
-0.014583004774453328,0.201
-0.011834280028884618,0.202
-0.0067765363531465325,0.203
-5.8403912863168957e-05,0.204
0.007336529724326952,0.205
0.01422691370813349,0.206
0.019494438249148406,0.207
0.022369820456781653,0.208
0.022619227586834732,0.209
0.020562055345995797,0.21
0.016887983789725145,0.211
0.012338377350657738,0.212
0.007438383413205506,0.213
0.002437282211844794,0.214
-0.0025620311965275917,0.215
-0.0074122840959482995,0.216
-0.011770749776917245,0.217
-0.015071403831280682,0.218
-0.016696506289235285,0.219
-0.01627741438912131,0.22
-0.013878297687554192,0.221
-0.009909486366119933,0.222
-0.004891640532328539,0.223
0.0007066465875648592,0.224
0.006451950101560562,0.225
0.011812958596193086,0.226
0.016077251012444883,0.227
0.018433223474292805,0.228
0.018183768469328936,0.229
0.014976203105315243,0.23
0.00896808028781486,0.231
0.0008959786560540351,0.232
-0.007998301372211783,0.233
-0.01619358052811587,0.234
-0.02219895214137015,0.235
-0.02488733320651445,0.236
-0.023778885861215546,0.237
-0.019154126750407043,0.238
-0.011965720760781208,0.239
-0.003627204602441782,0.24
0.004259565814747624,0.241
0.010218852264707376,0.242
0.013218384485209733,0.243
0.012901265091393777,0.244
0.009652837903237359,0.245
0.004484882355781081,0.246
-0.001238840730842472,0.247
-0.006161272538695441,0.248
-0.009257951031742822,0.249
-0.010037908736018026,0.25
-0.008574679683550293,0.251
-0.005375752014882033,0.252
-0.0011586374043466626,0.253
0.003379609321569374,0.254
0.007727075379159776,0.255
0.01158818674054575,0.256
0.014761262025316177,0.257
0.01697534519291811,0.258
0.017852655032677855,0.259
0.01702701053870241,0.26
0.014306529840389218,0.261
0.009776706152424139,0.262
0.0038318709759291806,0.263
-0.0028311780065754517,0.264
-0.009275881660904609,0.265
-0.014504843467563627,0.266
-0.017723274848907702,0.267
-0.0185447661508488,0.268
-0.017047906015020934,0.269
-0.013715528923384542,0.27
-0.009300507938301292,0.271
-0.004614545584338965,0.272
-0.0002865082216579102,0.273
0.003352402053386619,0.274
0.006172690114037816,0.275
0.00809579890157045,0.276
0.009065741881595455,0.277
0.009103309766256371,0.278
0.008309056075905243,0.279
0.006789593390320227,0.28
0.004601081914003839,0.281
0.0017958445637173302,0.282
-0.0014418533589455752,0.283
-0.004677303677703461,0.284
-0.007254492217551103,0.285
-0.008503142839507625,0.286
-0.007997002733269889,0.287
-0.005695716705326573,0.288
-0.001916458005358161,0.289
0.0027777143943443073,0.29
0.007667932294489061,0.291
0.011942094612266198,0.292
0.014774273376457755,0.293
0.015443190705871525,0.294
0.013501719352611083,0.295
0.008953026914083987,0.296
0.002306370367496837,0.297
-0.005564628985182121,0.298
-0.01366175039365879,0.299
-0.021005952167872682,0.3
-0.026627468619912317,0.301
-0.029559614858523722,0.302
-0.02899962042092763,0.303
-0.02458779434060476,0.304
-0.016612884270634468,0.305
-0.006020369080614995,0.306
0.005768055912946289,0.307
0.01714198389913021,0.308
0.026569352202128405,0.309
0.03273335976570373,0.31
0.03460305657903928,0.311
0.03162149628694426,0.312
0.0239968022975173,0.313
0.012854834139577104,0.314
9.311510855255771e-05,0.315
-0.012015090458325819,0.316
-0.02131490298216732,0.317
-0.026218877727689213,0.318
-0.026002997500666612,0.319
-0.020904034466485137,0.32
-0.012050920414678952,0.321
-0.0012453463632010242,0.322
0.009423212814511438,0.323
0.018065961116336786,0.324
0.02342629718343342,0.325
0.025069056352085704,0.326
0.02326457847908989,0.327
0.018703377742259508,0.328
0.012235633490829522,0.329
0.004727857429821806,0.33
-0.0029928381842250088,0.331
-0.010177563522532218,0.332
-0.016194409220523096,0.333
-0.02055313406649876,0.334
-0.02294684103433256,0.335
-0.023328931488467614,0.336
-0.021951403881639246,0.337
-0.01927615371409679,0.338
-0.01578124382264872,0.339
-0.011791591284230496,0.34
-0.007449006960950372,0.341
-0.002823674019971508,0.342
0.001937874915533389,0.343
0.006559053728517005,0.344
0.010694693159678604,0.345
0.013994786902947242,0.346
0.016110977862265098,0.347
0.016709515283706743,0.348
0.015541310630441387,0.349
0.01255799371474976,0.35
0.008048836729947788,0.351
0.002741796461714434,0.352
-0.002249234479433067,0.353
-0.005691752043181363,0.354
-0.006612890456395255,0.355
-0.004626017792135931,0.356
-9.658604094032382e-05,0.357
0.0059039064962186395,0.358
0.01184404366743215,0.359
0.016108308193784223,0.36
0.01740062767419362,0.361
0.015054885403186094,0.362
0.00915614963675532,0.363
0.0004829462012177683,0.364
-0.0096412436151203,0.365
-0.01955628175238595,0.366
-0.02754648293124096,0.367
-0.03213743487755386,0.368
-0.03233092409609301,0.369
-0.02777083428175206,0.37
-0.018857281578422282,0.371
-0.006777209422156731,0.372
0.006625444077777331,0.373
0.01918355360469428,0.374
0.028884236203424764,0.375
0.03432842473486141,0.376
0.03498458148044616,0.377
0.031157354299859257,0.378
0.023757730719429375,0.379
0.014003476702738408,0.38
0.0031381813652099316,0.381
-0.007743798085915971,0.382
-0.017739760091202157,0.383
-0.026119519055559044,0.384
-0.032286281040927095,0.385
-0.03571305675402093,0.386
-0.03590913426518115,0.387
-0.03250812410928681,0.388
-0.02547768129065823,0.389
-0.015313387659325257,0.39
-0.0030561613129224015,0.391
0.009916045865339644,0.392
0.022187031364221732,0.393
0.03246288415343167,0.394
0.039586703530485025,0.395
0.04262622394347009,0.396
0.0410842049931092,0.397
0.035057178947951566,0.398
0.025224437203362496,0.399
0.012690814310059074,0.4
-0.001241955808224076,0.401
-0.015271423910992227,0.402
-0.028140195800336606,0.403
-0.0385590959632373,0.404
-0.04522438059896639,0.405
-0.04705863899668028,0.406
-0.043517761726164665,0.407
-0.034737278988830035,0.408
-0.021513269926311706,0.409
-0.0052456404488758854,0.41
0.01213645305661352,0.411
0.02835926588506942,0.412
0.04116231814849942,0.413
0.0487759204599601,0.414
0.05033948735530466,0.415
0.04607223589515319,0.416
0.03714731119517584,0.417
0.02534241169267991,0.418
0.01258939303761166,0.419
0.0005660932936613631,0.42
-0.009563879272138552,0.421
-0.01723112152931564,0.422
-0.02238877377017776,0.423
-0.025355218457148474,0.424
-0.026632558945919853,0.425
-0.0267319575871574,0.426
-0.026042146285158756,0.427
-0.024780816463909776,0.428
-0.023005327987694352,0.429
-0.020645333300747082,0.43
-0.017585448710216885,0.431
-0.013792260831975175,0.432
-0.009395602142596552,0.433
-0.0046766009650140205,0.434
1.9036969924872866e-05,0.435
0.004419286623062339,0.436
0.008439331509920635,0.437
0.012155031080847015,0.438
0.015632293066208763,0.439
0.01875012471903817,0.44
0.021160741182774143,0.441
0.022426898985702763,0.442
0.022253552495654774,0.443
0.02065810052941149,0.444
0.017958532953501225,0.445
0.014600605913361812,0.446
0.010970877181930043,0.447
0.007297726599158873,0.448
0.003632054497845602,0.449
-0.000123080737766709,0.45
-0.004148873193451963,0.451
-0.008598987625673262,0.452
-0.013437606618048173,0.453
-0.01829005703121103,0.454
-0.02238479372627367,0.455
-0.024657444333424382,0.456
-0.024050952081821248,0.457
-0.019926671609125098,0.458
-0.012394400264481234,0.459
-0.002396075381918125,0.46
0.008481454346153088,0.461
0.01834045798611327,0.462
0.025307399276426792,0.463
0.027862263574314563,0.464
0.025199996129556403,0.465
0.017523537045415576,0.466
0.006108336865834965,0.467
-0.006929630680396274,0.468
-0.019107725954617523,0.469
-0.028151007448779613,0.47
-0.032484516312707025,0.471
-0.03149062702322707,0.472
-0.025504840747241655,0.473
-0.015645662975575774,0.474
-0.0035758749321678483,0.475
0.008775380284702178,0.476
0.01951871452245692,0.477
0.027104790060315718,0.478
0.030569475460931774,0.479
0.029671531060151333,0.48
0.024892839913601923,0.481
0.017282518850984693,0.482
0.008163950099642405,0.483
-0.001166537013775496,0.484
-0.00961922312093568,0.485
-0.016364199675032345,0.486
-0.020801040963817945,0.487
-0.022507224062876047,0.488
-0.021256735456134036,0.489
-0.017110925390548783,0.49
-0.010496339072650641,0.491
-0.0022043209113964657,0.492
0.006702388495691748,0.493
0.015042857199407303,0.494
0.0216921928154916,0.495
0.025733110092746616,0.496
0.02656047382693298,0.497
0.02397754376078368,0.498
0.018270539718391952,0.499
0.010170960607978716,0.5
0.000686657649213565,0.501
-0.00910227891366692,0.502
-0.01819022707796621,0.503
-0.02572367806158784,0.504
-0.031040024818421816,0.505
-0.033704876320986635,0.506
-0.03353445580932162,0.507
-0.030560500259666168,0.508
-0.024980498296657497,0.509
-0.017168996007972687,0.51
-0.007731536413528115,0.511
0.0024878035794658956,0.512
0.012489218649133191,0.513
0.021262977977730507,0.514
0.02793399519222578,0.515
0.03183977902599702,0.516
0.03257391773112494,0.517
0.030087825662775895,0.518
0.024817982083109418,0.519
0.017692952025756548,0.52
0.009936693608766273,0.521
0.0027224285626292425,0.522
-0.0031497729121827927,0.523
-0.007352623806106963,0.524
-0.009870381635301875,0.525
-0.010775475208713466,0.526
-0.010159556186018366,0.527
-0.00819900833910782,0.528
-0.005212832002796671,0.529
-0.0016913975197240191,0.53
0.0016770657781402909,0.531
0.004033733003274739,0.532
0.004483781454361255,0.533
0.0023237839572304813,0.534
-0.0026960061652347507,0.535
-0.010138457862821106,0.536
-0.01875661782374451,0.537
-0.026599197130122293,0.538
-0.03143158627894085,0.539
-0.031409254793618654,0.54
-0.025735820402025763,0.541
-0.014952445862875363,0.542
-0.0007075535806546665,0.543
0.014784843692567409,0.544
0.02924238827379541,0.545
0.04059275071633019,0.546
0.047138179537105064,0.547
0.047801418115047366,0.548
0.042451415687148095,0.549
0.03205122387052496,0.55
0.0183951293905865,0.551
0.0035243995076301247,0.552
-0.01085468279299992,0.553
-0.023698046966920825,0.554
-0.0346045219803585,0.555
-0.04350278268816713,0.556
-0.05024723386151712,0.557
-0.05433257567760005,0.558
-0.054828541542407155,0.559
-0.05058309730614916,0.56
-0.04067334877507645,0.561
-0.024932915218321187,0.562
-0.0043198177165816,0.563
0.019014280767895804,0.564
0.0419949045190795,0.565
0.06120616072350977,0.566
0.07362898000742651,0.567
0.07733442085566294,0.568
0.07196375313713581,0.569
0.05881647972318735,0.57
0.04047565067073912,0.571
0.020131451462375653,0.572
0.0008380837560011817,0.573
-0.01508463785828829,0.574
-0.026327887732844946,0.575
-0.03255154782233217,0.576
-0.0341839477394097,0.577
-0.03219527542073412,0.578
-0.02790538756662684,0.579
-0.022820162377366386,0.58
-0.01843710950900417,0.581
-0.015994629741089658,0.582
-0.01620417743936086,0.583
-0.019038448230262503,0.584
-0.023654740197688397,0.585
-0.028512462423298232,0.586
-0.031692047520252765,0.587
-0.03133803812318611,0.588
-0.02612617165459383,0.589
-0.015687205960788403,0.59
-0.0008552361983146796,0.591
0.016427779397558285,0.592
0.03353489103214155,0.593
0.0477038297660967,0.594
0.05655521739454363,0.595
0.05853047488281848,0.596
0.05319310864054733,0.597
0.0413070556104555,0.598
0.024669644498505512,0.599
0.005780636906188883,0.6
-0.012539441764808784,0.601
-0.027573620173926384,0.602
-0.037217654661794865,0.603
-0.04043925816466997,0.604
-0.03743496114908433,0.605
-0.02941415388142964,0.606
-0.018196599844091756,0.607
-0.005849200941202401,0.608
0.005584480268099165,0.609
0.014365683359353633,0.61
0.019397644380890807,0.611
0.02044710101363944,0.612
0.018073263591051884,0.613
0.013382122266959453,0.614
0.00779355676002297,0.615
0.0027567409900738256,0.616
-0.00062966737278307,0.617
-0.0019018009200322786,0.618
-0.0012714365496764022,0.619
0.0005460599747217027,0.62
0.002604102776871705,0.621
0.003974626046520161,0.622
0.003933080173152311,0.623
0.0021040322824361474,0.624
-0.0014639344275288915,0.625
-0.006343798817395722,0.626
-0.011837848981546216,0.627
-0.01707132552470359,0.628
-0.021109059837631578,0.629
-0.023131622745947045,0.63
-0.022612675941907457,0.631
-0.01944642516908619,0.632
-0.014025097430109957,0.633
-0.007229189401347563,0.634
-0.00023303105234844803,0.635
0.005870207815607257,0.636
0.010403439775062227,0.637
0.013184325389438737,0.638
0.014392594624425426,0.639
0.014413692420444182,0.64
0.013733765282610232,0.641
0.012829608578107256,0.642
0.012035073874611783,0.643
0.011485771508889943,0.644
0.011214047683040417,0.645
0.011262107466432554,0.646
0.01161821523477597,0.647
0.012048855239404292,0.648
0.012108472284104653,0.649
0.011394362255315711,0.65
0.009799737526143684,0.651
0.007505539630181147,0.652
0.0047152199574433395,0.653
0.001389360969305253,0.654
-0.002805346023723692,0.655
-0.008350253881701176,0.656
-0.015647428784342582,0.657
-0.024742857069558623,0.658
-0.03500857181163843,0.659
-0.04497246194753666,0.66
-0.05253739215275478,0.661
-0.0555063044835146,0.662
-0.05210311988883218,0.663
-0.041404366707572825,0.664
-0.02378248057102303,0.665
-0.001213812791174033,0.666
0.02290148434933653,0.667
0.04449011296936805,0.668
0.059817381805263255,0.669
0.06638681036212357,0.67
0.063557391786994,0.671
0.052785086702899914,0.672
0.03730775444260524,0.673
0.021233464491467385,0.674
0.008322472006008424,0.675
0.000938700542168305,0.676
-0.0004555881381482803,0.677
0.0028029652381085894,0.678
0.008158089106330696,0.679
0.01268830243566065,0.68
0.013934555794493273,0.681
0.010453423463631806,0.682
0.0020821150078169453,0.683
-0.010041555072554406,0.684
-0.023785987811867273,0.685
-0.036643607506606626,0.686
-0.04640739815837067,0.687
-0.051624725303418786,0.688
-0.05173561825253198,0.689
-0.04704561627971366,0.69
-0.03864920636272402,0.691
-0.02816883516153794,0.692
-0.017245426868469523,0.693
-0.007049489598006497,0.694
0.0018517009208849269,0.695
0.009281477259385164,0.696
0.015267664463143602,0.697
0.020063154074602282,0.698
0.0240628169851416,0.699
0.027423747863852644,0.7
0.029765880345154563,0.701
0.030326573771096273,0.702
0.028385996725837918,0.703
0.023584534539974396,0.704
0.016073462715693917,0.705
0.006651918025423139,0.706
-0.0031466143877181417,0.707
-0.011292708312837647,0.708
-0.015923174460639438,0.709
-0.016065408945821463,0.71
-0.011931022928338485,0.711
-0.0046675601655403135,0.712
0.004133371253982507,0.713
0.012840439322813596,0.714
0.02000223585242629,0.715
0.024474548145634305,0.716
0.025558950525162265,0.717
0.023141775517570098,0.718
0.017699954213681156,0.719
0.010083365465277279,0.72
0.0012167560197165628,0.721
-0.008031229181988522,0.722
-0.01677525430096014,0.723
-0.024022823089347018,0.724
-0.02874857289731789,0.725
-0.030178270358958138,0.726
-0.02814078035106814,0.727
-0.023238072797204173,0.728
-0.016712116728923653,0.729
-0.010110840750313193,0.73
-0.004923955019471171,0.731
-0.002263153586319843,0.732
-0.0025620045835669392,0.733
-0.00532303904649113,0.734
-0.009086457193039237,0.735
-0.01180479296736783,0.736
-0.011581723603609888,0.737
-0.007445161699308081,0.738
0.00025314060740036287,0.739
0.009985326437793256,0.74
0.019569320835301496,0.741
0.026791373499928158,0.742
0.030012342323465495,0.743
0.02867387489966985,0.744
0.023471472130627734,0.745
0.016016929827551794,0.746
0.008168794181571262,0.747
0.0014323931947393647,0.748
-0.003304413344180567,0.749
-0.005700119742186182,0.75
-0.0057693054736836676,0.751
-0.0038291441471382088,0.752
-0.0006030859886181506,0.753
0.002765613679836586,0.754
0.004959681615119254,0.755
0.004884156112158763,0.756
0.0020251430379196007,0.757
-0.0033534218398959662,0.758
-0.01022140979187906,0.759
-0.016967864642484128,0.76
-0.021744360704218892,0.761
-0.022968623507434623,0.762
-0.019859664101702885,0.763
-0.012742836619718994,0.764
-0.0029487345297244632,0.765
0.0076174216775031865,0.766
0.016984760563392834,0.767
0.02349857254179802,0.768
0.02607284130622211,0.769
0.024389471017514746,0.77
0.018981543564988657,0.771
0.01109474501807422,0.772
0.00235875150858189,0.773
-0.00560151776667501,0.774
-0.011489441937326327,0.775
-0.014543662490575556,0.776
-0.014661290423720481,0.777
-0.012431527886737275,0.778
-0.009019558611360839,0.779
-0.005940324378079861,0.78
-0.004769109169760306,0.781
-0.006708641133727398,0.782
-0.012033148252347912,0.783
-0.019685106157866363,0.784
-0.02734593018551678,0.785
-0.03206433256166163,0.786
-0.031226184782907156,0.787
-0.02349266204956833,0.788
-0.009294811479962367,0.789
0.00933873517075949,0.79
0.029402761033946248,0.791
0.047585147676776816,0.792
0.060837977122936274,0.793
0.0669022389351865,0.794
0.0647507001567802,0.795
0.05476903692156977,0.796
0.03853255619974907,0.797
0.01826868932533651,0.798
-0.00367186572485333,0.799
-0.02505992011070707,0.8
-0.0437631052558706,0.801
-0.05768125920272145,0.802
-0.06489621266067613,0.803
-0.06408219484708855,0.804
-0.0549686739883111,0.805
-0.03866909091229747,0.806
-0.017773894719540124,0.807
0.00394264119885919,0.808
0.02229066946719322,0.809
0.03375398793523625,0.81
0.03654344308231007,0.811
0.031201298169626256,0.812
0.020427928343016547,0.813
0.008130622748116831,0.814
-0.0018799518084203287,0.815
-0.007004830668881386,0.816
-0.006455889386994717,0.817
-0.0012718479775785257,0.818
0.006158869753118308,0.819
0.012920397408569697,0.82
0.01652147888771076,0.821
0.015669310486988126,0.822
0.010575109588050453,0.823
0.0027145855561808018,0.824
-0.00573882868354852,0.825
-0.012524597272313514,0.826
-0.015856879388734726,0.827
-0.014914450794003756,0.828
-0.010114910026026332,0.829
-0.003009090897069732,0.83
0.004194510835960082,0.831
0.0092979444923044,0.832
0.010773157765654936,0.833
0.008205439907331939,0.834
0.00233294518627398,0.835
-0.00530613633127944,0.836
-0.012869554697534044,0.837
-0.01860895392318702,0.838
-0.021150439812715298,0.839
-0.019744398226887103,0.84
-0.014465361165639226,0.841
-0.006241172275092814,0.842
0.0033723853110124518,0.843
0.012588290439388064,0.844
0.019767902805802158,0.845
0.023663589895201877,0.846
0.023498440827548865,0.847
0.018965763847232555,0.848
0.010308118442460528,0.849
-0.0014703999420683314,0.85
-0.014414703930728806,0.851
-0.025748533987731463,0.852
-0.032491438720194166,0.853
-0.032376354734366876,0.854
-0.024652653770328464,0.855
-0.010410047228598113,0.856
0.007669764862583764,0.857
0.025971234241725576,0.858
0.04081623751748142,0.859
0.04934391098567379,0.86
0.050095888133199776,0.861
0.043079034051614555,0.862
0.02943881521270713,0.863
0.011103043748319774,0.864
-0.00946640591427767,0.865
-0.029517181063943895,0.866
-0.0462934992674584,0.867
-0.05736475392909702,0.868
-0.06100644736672787,0.869
-0.0565400261812822,0.87
-0.04448540485273504,0.871
-0.02649463514534957,0.872
-0.005095600760964532,0.873
0.016739744894982464,0.874
0.03611294694702997,0.875
0.050648050876292657,0.876
0.05876558990529261,0.877
0.05977890739051411,0.878
0.05387897489074787,0.879
0.04203113333509907,0.88
0.02580247471565543,0.881
0.0072118257902761725,0.882
-0.011378696208585393,0.883
-0.02745101185910938,0.884
-0.038706078929576886,0.885
-0.04360315256066749,0.886
-0.041873158659478944,0.887
-0.03472494663928946,0.888
-0.024572621599041486,0.889
-0.014355291629056827,0.89
-0.006688161582953402,0.891
-0.003097998190651365,0.892
-0.003580282256587624,0.893
-0.006704790300572571,0.894
-0.010291163201482177,0.895
-0.012302474517345063,0.896
-0.011477980343574667,0.897
-0.007476686072455469,0.898
-0.0006417359398544715,0.899
0.008298191467818353,0.9
0.018332841897872806,0.901
0.0281029390861915,0.902
0.03589311028974693,0.903
0.039867262145483216,0.904
0.03850894567106809,0.905
0.03114502766048974,0.906
0.018466483909110938,0.907
0.002761037802347808,0.908
-0.012503383750055113,0.909
-0.023648286961682276,0.91
-0.02785578068119717,0.911
-0.023980801000519286,0.912
-0.012873751682812455,0.913
0.002864150092471249,0.914
0.01955500989718237,0.915
0.0333296925267284,0.916
0.04099780542818987,0.917
0.040691250548122344,0.918
0.03212244275217791,0.919
0.016433360565786887,0.92
-0.004152165654200851,0.921
-0.026679220783003565,0.922
-0.047867597354730125,0.923
-0.06461700483728673,0.924
-0.07448477944386461,0.925
-0.0759979377875809,0.926
-0.06878352834892697,0.927
-0.05358570717826247,0.928
-0.03220452140335079,0.929
-0.007343039128476991,0.93
0.01767916454937,0.931
0.03942425250176352,0.932
0.05500921246726056,0.933
0.06271600337302398,0.934
0.06232052106620335,0.935
0.05508713745302609,0.936
0.04344460204855023,0.937
0.03036802442960317,0.938
0.018571093315310178,0.939
0.009774965062294149,0.94
0.004372736589044142,0.941
0.0015943121621052006,0.942
1.9804728643003466e-07,0.943
-0.0019438571712534938,0.944
-0.00537839381966451,0.945
-0.01073060942516114,0.946
-0.017609364123165067,0.947
-0.024928593381781636,0.948
-0.031184332408952374,0.949
-0.0347744706338993,0.95
-0.03436355491155504,0.951
-0.029337565154117125,0.952
-0.020220786550937026,0.953
-0.008774714756469446,0.954
0.0023843307637230835,0.955
0.010539258400318203,0.956
0.013722123898817457,0.957
0.011357296028947382,0.958
0.004478985849757569,0.959
-0.004507532108730943,0.96
-0.012461815821729933,0.961
-0.016471135546108486,0.962
-0.014830486273139605,0.963
-0.007534878743570047,0.964
0.003916563610501452,0.965
0.017146750496551028,0.966
0.029582685878356673,0.967
0.03898810350875995,0.968
0.04380332598597826,0.969
0.043283731276554806,0.97
0.037479144891531396,0.971
0.02719170229746658,0.972
0.013960556168673992,0.973
-0.0001057719897947199,0.974
-0.0128044867494893,0.975
-0.022461834898144746,0.976
-0.028369340993308907,0.977
-0.030853074182837163,0.978
-0.031008764146459526,0.979
-0.030206131606390626,0.98
-0.029529486349036304,0.981
-0.02937447775414226,0.982
-0.029296192928779698,0.983
-0.028088322631042183,0.984
-0.024154317049295427,0.985
-0.016212105521571717,0.986
-0.004040252578556299,0.987
0.011235775020584796,0.988
0.02744528462139542,0.989
0.041912806968024886,0.99
0.05200841416871898,0.991
0.055791628315074136,0.992
0.05264097637091286,0.993
0.043446084401799645,0.994
0.03017071878509528,0.995
0.015127137240835035,0.996
0.00041728608974483906,0.997
-0.012356895390077468,0.998
-0.022221015881505976,0.999
-0.028827898079059094,1.0
-0.032354114829784626,1.001
-0.03334672184589398,1.002
-0.032532062400960696,1.003
-0.03059520585054464,1.004
-0.027979874250029374,1.005
-0.024760873158803206,1.006
-0.020626475809708524,1.007
-0.015051094712855479,1.008
-0.007706750678602173,1.009
0.0010892416988153987,1.01
0.01025564006937783,1.011
0.01826657487206441,1.012
0.023674574848873236,1.013
0.025587479048881107,1.014
0.023973219315012766,1.015
0.019663128514747143,1.016
0.013947332895967748,1.017
0.007946889060159343,1.018
0.002229934845745404,1.019
-0.003098444126512976,1.02
-0.008075747676455452,1.021
-0.012600957442751732,1.022
-0.016226099331686887,1.023
-0.018077349554155683,1.024
-0.017046463837550554,1.025
-0.012244465180646561,1.026
-0.0035348758925717225,1.027
0.008113404990073266,1.028
0.0206866242226706,1.029
0.03164470196390918,1.03
0.03869011857370294,1.031
0.040396489017043305,1.032
0.03643070241213249,1.033
0.027469214521573523,1.034
0.014971955872651991,1.035
0.0008092084910444213,1.036
-0.013188930612279265,1.037
-0.025545753831249133,1.038
-0.03520298428764111,1.039
-0.041431042525304974,1.04
-0.043751135006156835,1.041
-0.04196290530858706,1.042
-0.03624924581813735,1.043
-0.02725809483814903,1.044
-0.016062594190993634,1.045
-0.003984021097958639,1.046
0.007632079815798765,1.047
0.017614487522978128,1.048
0.02511671318063,1.049
0.029646755551629853,1.05
0.030960792532526506,1.051
0.02895620702804511,1.052
0.023685975316765376,1.053
0.015507497977665853,1.054
0.0052658440399819175,1.055
-0.005674156933826765,1.056
-0.01564681311393078,1.057
-0.02306508290798468,1.058
-0.02677375814334771,1.059
-0.02623250598243615,1.06
-0.02152222758086897,1.061
-0.013308485698873301,1.062
-0.0028513815064523038,1.063
0.008079631335891069,1.064
0.017559214750786877,1.065
0.024022364234957315,1.066
0.026679838266535815,1.067
0.025686912291770888,1.068
0.02203867612052972,1.069
0.017205269026528913,1.07
0.012577565766002764,1.071
0.008887800215669666,1.072
0.005864743942534523,1.073
0.0023522592802104818,1.074
-0.003080460105174284,1.075
-0.011276264219852969,1.076
-0.021788976945204677,1.077
-0.03267539617504483,1.078
-0.04089810658298299,1.079
-0.04328066454042204,1.08
-0.037742669087492346,1.081
-0.024315974872798712,1.082
-0.00544763901700031,1.083
0.01457003896141127,1.084
0.030825217103067352,1.085
0.039246169290244416,1.086
0.03781653627076124,1.087
0.027162426442196356,1.088
0.010339679764752115,1.089
-0.008059736070953394,1.09
-0.023150901867707727,1.091
-0.03101946433770341,1.092
-0.0297200649678595,1.093
-0.01972186017398569,1.094
-0.003642230715334358,1.095
0.014573359106236822,1.096
0.030672152477862494,1.097
0.04108241459278306,1.098
0.043752166698459674,1.099
0.038631017500952644,1.1
0.027533522709471767,1.101
0.013376572294271818,1.102
-0.0008005053653790849,1.103
-0.01255751465291935,1.104
-0.020377559170292884,1.105
-0.023731186175056228,1.106
-0.023008700580010154,1.107
-0.019317828232451047,1.108
-0.014150104637565865,1.109
-0.009012623561340688,1.11
-0.005100567952332376,1.111
-0.003051607999472954,1.112
-0.0028593931538037336,1.113
-0.004006754961211722,1.114
-0.005766408333093298,1.115
-0.007514738879576905,1.116
-0.008926502984793043,1.117
-0.009986759279617953,1.118
-0.010802079929059787,1.119
-0.011319861868599719,1.12
-0.011187504125127262,1.121
-0.009887963438507506,1.122
-0.007041600361294375,1.123
-0.0026451285741548197,1.124
0.0028549884338452815,1.125
0.008619396352370924,1.126
0.013598287890181032,1.127
0.016846385526548015,1.128
0.01786308070858135,1.129
0.016774665487104864,1.13
0.014249767753069945,1.131
0.011183965769918367,1.132
0.00830575617837268,1.133
0.005929278499776723,1.134
0.004023055945824184,1.135
0.0025073935291966857,1.136
0.0014761542977151068,1.137
0.0011555030782978554,1.138
0.0017037166853381572,1.139
0.0030472650268653194,1.14
0.004812469563684297,1.141
0.006327111489435268,1.142
0.006735649214631196,1.143
0.00526999525661247,1.144
0.0015809925755731528,1.145
-0.004004270934257319,1.146
-0.010394150957704549,1.147
-0.01593622231880086,1.148
-0.018946973266265342,1.149
-0.01833653818349187,1.15
-0.013991956902136607,1.151
-0.006783882228931949,1.152
0.0016874681331295147,1.153
0.009474934392708951,1.154
0.014746709148409917,1.155
0.016203372623874588,1.156
0.013280863734276253,1.157
0.006156638990335915,1.158
-0.004253287171721957,1.159
-0.016225072883941743,1.16
-0.0272744022820101,1.161
-0.03457007952671374,1.162
-0.035699157975121874,1.163
-0.029475473668260713,1.164
-0.01642623068740605,1.165
0.0011971089570277074,1.166
0.019815326421058096,1.167
0.03528290616025345,1.168
0.04399480934241293,1.169
0.044048192229318696,1.17
0.03589216996073679,1.171
0.02207851489580023,1.172
0.006292498782657747,1.173
-0.007796133082582099,1.174
-0.017436057752798263,1.175
-0.021277425235734185,1.176
-0.019434068804355935,1.177
-0.013245028701171805,1.178
-0.004847817180987886,1.179
0.003392314437295377,1.18
0.009474603349473757,1.181
0.012182405296655917,1.182
0.011275171962795136,1.183
0.007482122150484772,1.184
0.00221287494598662,1.185
-0.003043138231441732,1.186
-0.0073432278792806265,1.187
-0.01057000000934983,1.188
-0.013261937893774686,1.189
-0.0161463696567714,1.19
-0.019608497704026395,1.191
-0.023320232806805185,1.192
-0.02617910198746492,1.193
-0.026622043685249182,1.194
-0.023218037671079186,1.195
-0.015262790563468994,1.196
-0.003144898257462298,1.197
0.01157804548755275,1.198
0.026434468186666768,1.199
0.038648452572330974,1.2
0.04592178786388802,1.201
0.047038955285610286,1.202
0.04207283943683846,1.203
0.032231198192032705,1.204
0.01946631636522173,1.205
0.005963361704075587,1.206
-0.006305990515168259,1.207
-0.015833760373932606,1.208
-0.0216814384320911,1.209
-0.02353790717392686,1.21
-0.021737132976536847,1.211
-0.017177393562140104,1.212
-0.011125985290313521,1.213
-0.004967784414826107,1.214
6.429031244731522e-05,1.215
0.0031431218026883164,1.216
0.003984447427691045,1.217
0.0028112695919875804,1.218
0.00020205214464856728,1.219
-0.003101965358830433,1.22
-0.006368225046480024,1.221
-0.008989636520998115,1.222
-0.010557999576610272,1.223
-0.010894573385152161,1.224
-0.010023463804056262,1.225
-0.008106248622132111,1.226
-0.00538173328836676,1.227
-0.002128499277010614,1.228
0.001356703166635081,1.229
0.004756689915349702,1.23
0.007714858992228072,1.231
0.00984803318233528,1.232
0.010825825665650038,1.233
0.010482445932199233,1.234
0.008879839147822357,1.235
0.006270922611035776,1.236
0.0029861274624069663,1.237
-0.0006744040012294659,1.238
-0.004455123463340266,1.239
-0.00805875193365088,1.24
-0.011058089864996458,1.241
-0.012916520802179856,1.242
-0.0131462686930497,1.243
-0.011525965599634936,1.244
-0.008240753299245847,1.245
-0.0038659082142141854,1.246
0.0007919607360431947,1.247
0.0049616367437769395,1.248
0.008216382797864729,1.249
0.010642184818170712,1.25
0.012688494664193533,1.251
0.01480645897810971,1.252
0.01717468642047061,1.253
0.019626319133298518,1.254
0.021678734923132235,1.255
0.022627651452235536,1.256
0.021747606755371626,1.257
0.01855147011115902,1.258
0.01296815802669115,1.259
0.005356851387858203,1.26
-0.0035799377547719967,1.261
-0.012881390034411045,1.262
-0.021398872520667165,1.263
-0.027916459585926055,1.264
-0.031376382435504745,1.265
-0.031181454161826733,1.266
-0.027428225461641538,1.267
-0.020901875474661245,1.268
-0.012826342761259268,1.269
-0.00452691982906905,1.27
0.0028245970709566658,1.271
0.00826923358118504,1.272
0.01094116946525572,1.273
0.009970362048767226,1.274
0.004650612854721766,1.275
-0.005065271067757428,1.276
-0.017973310959114978,1.277
-0.03137685088349773,1.278
-0.04154530601053109,1.279
-0.04478365504400498,1.28
-0.03862926575699089,1.281
-0.022689673088146674,1.282
0.0010710791274912703,1.283
0.02860421897133247,1.284
0.05464056386007955,1.285
0.07399995323382326,1.286
0.0829192965742867,1.287
0.08005233540681414,1.288
0.06682818652989571,1.289
0.04682109070573147,1.29
0.024351755952303763,1.291
0.0031558585051742025,1.292
-0.01428888704736798,1.293
-0.02681311625067142,1.294
-0.03428440326441989,1.295
-0.037254802918891314,1.296
-0.03667347203305146,1.297
-0.033718286799816324,1.298
-0.0296469492822653,1.299
-0.025530769962807513,1.3
-0.021939475410310723,1.301
-0.018810543474644732,1.302
-0.015629356078847908,1.303
-0.011809946422009405,1.304
-0.007049938481511095,1.305
-0.0015240003832878253,1.306
0.004115448928853893,1.307
0.008951564920806575,1.308
0.012158208135876505,1.309
0.013304892849008676,1.31
0.012474678649047836,1.311
0.01019223834308704,1.312
0.007231723527172219,1.313
0.0043877034889275735,1.314
0.0022660294163813284,1.315
0.0011394278127719421,1.316
0.0009334116126190775,1.317
0.0013434691477863035,1.318
0.001982367126917239,1.319
0.002482716534699916,1.32
0.002558584478592979,1.321
0.0020519119776500907,1.322
0.00096389253569659,1.323
-0.000553074567187154,1.324
-0.002253676523288817,1.325
-0.003894361667173409,1.326
-0.0053127259062099525,1.327
-0.006430021348249352,1.328
-0.007182103432593652,1.329
-0.007454160144474679,1.33
-0.007094423651800531,1.331
-0.0060018021071524714,1.332
-0.004216036162322824,1.333
-0.0019448277867052525,1.334
0.0005081853197159466,1.335
0.0028765790306239246,1.336
0.005023285328626926,1.337
0.006933678171744765,1.338
0.00863039343701187,1.339
0.010075882122357745,1.34
0.011140991882204286,1.341
0.0116684081843952,1.342
0.011564873055805254,1.343
0.010828897594605542,1.344
0.009497926607295716,1.345
0.007564792645706589,1.346
0.0049185884539375835,1.347
0.0013648356389092545,1.348
-0.0032267874019438433,1.349
-0.008685756204654234,1.35
-0.01438533501028613,1.351
-0.01931798793534489,1.352
-0.02237323770033412,1.353
-0.0226892033303017,1.354
-0.019960400458009613,1.355
-0.014600654325591184,1.356
-0.007690650752521951,1.357
-0.0006718801582715917,1.358
0.005162815363620768,1.359
0.009148732261757988,1.36
0.011417620581462916,1.361
0.012663276654680892,1.362
0.013654372692612703,1.363
0.014764921714686284,1.364
0.015749668824713934,1.365
0.01586590253570702,1.366
0.014290627710456135,1.367
0.010608467124259257,1.368
0.005080224747900256,1.369
-0.0014501625481709206,1.37
-0.007917247370849216,1.371
-0.013407193705900166,1.372
-0.017308816321029374,1.373
-0.019241402261851365,1.374
-0.018946610827056443,1.375
-0.016283878211584057,1.376
-0.01132624878452475,1.377
-0.004486856869286904,1.378
0.003402016341648699,1.379
0.011137457223760614,1.38
0.017364566652981316,1.381
0.020934123449557234,1.382
0.02126845032120939,1.383
0.01851508841275344,1.384
0.013393576292183745,1.385
0.006915219453461353,1.386
0.00015970371620694802,1.387
-0.005896029413952321,1.388
-0.010501004066818656,1.389
-0.013175738768237017,1.39
-0.01374009401811401,1.391
-0.012361949287501773,1.392
-0.009560064014452028,1.393
-0.0061454486127437875,1.394
-0.0031488490614081078,1.395
-0.0016729397367981512,1.396
-0.0025848796164818755,1.397
-0.006135932925498944,1.398
-0.011692286491395157,1.399
-0.017727004879693507,1.4
-0.0221408964998498,1.401
-0.022870571650007523,1.402
-0.018610742503762264,1.403
-0.009332386408246024,1.404
0.003649775975568934,1.405
0.018002889776846893,1.406
0.030915051840460773,1.407
0.03974008035066716,1.408
0.04266369252935857,1.409
0.03926603381891443,1.41
0.030725837436590034,1.411
0.019404232079779385,1.412
0.007937031327165119,1.413
-0.0016483310356235571,1.414
-0.00839535430823188,1.415
-0.01241026382046007,1.416
-0.014495957451855997,1.417
-0.015598858643650246,1.418
-0.016296388913108893,1.419
-0.016569306898020008,1.42
-0.0159805270729733,1.421
-0.014111592218465724,1.422
-0.01094595715005006,1.423
-0.006990466087328435,1.424
-0.003126601438504881,1.425
-0.00029068481193476414,1.426
0.0008889947054592582,1.427
0.00035019174844872717,1.428
-0.0013654562822598634,1.429
-0.0033176725624805294,1.43
-0.004526530756794837,1.431
-0.004307966250478402,1.432
-0.002441853086628859,1.433
0.0008355720839079876,1.434
0.004938638340160867,1.435
0.00909434319527014,1.436
0.012544388158906756,1.437
0.014718380990055084,1.438
0.015307063203287808,1.439
0.014260762166437024,1.44
0.0117679252129102,1.441
0.00820600001136537,1.442
0.004069497478651466,1.443
-7.97162189798875e-05,1.444
-0.003661465666058618,1.445
-0.006168485401653213,1.446
-0.0072705981508358174,1.447
-0.006905057449317901,1.448
-0.005342380699159338,1.449
-0.003171157483667595,1.45
-0.0011839203672897836,1.451
-0.00021758572333127995,1.452
-0.0009740930021486122,1.453
-0.0038529319659724374,1.454
-0.008850783851904716,1.455
-0.015509804879936442,1.456
-0.022873873066759212,1.457
-0.029500588574772727,1.458
-0.033639837518800925,1.459
-0.03362829060079741,1.46
-0.028370313276276322,1.461
-0.017703461754606718,1.462
-0.0025893980416988966,1.463
0.014882521010670982,1.464
0.03182459702048949,1.465
0.045294452311284004,1.466
0.05317257901531771,1.467
0.054675793142931854,1.468
0.05028815856590343,1.469
0.041340359137452445,1.47
0.029562611025211558,1.471
0.016727855309872672,1.472
0.0043745155719882595,1.473
-0.006376657520006838,1.474
-0.014897648722068101,1.475
-0.021034297390126733,1.476
-0.02499459319890234,1.477
-0.027166245345223272,1.478
-0.027941843253196087,1.479
-0.02761755263005622,1.48
-0.026357850790698627,1.481
-0.024183820046921083,1.482
-0.02099455131361859,1.483
-0.016667960857559717,1.484
-0.011203787081047838,1.485
-0.004806680022483326,1.486
0.0021165927673147933,1.487
0.008993489110374946,1.488
0.015130580590594321,1.489
0.019797498626142367,1.49
0.022363593401500206,1.491
0.02243324048982281,1.492
0.019939789009741776,1.493
0.015210068918774342,1.494
0.008951921515181614,1.495
0.0021189142192509836,1.496
-0.004266578159856585,1.497
-0.009265707837555003,1.498
-0.012174665276405263,1.499
-0.012670536758487514,1.5
-0.01091007210364181,1.501
-0.00754819838420204,1.502
-0.0036320567031187085,1.503
-0.0003464516536060418,1.504
0.0013287749415286714,1.505
0.0009327110280347991,1.506
-0.001308253162648103,1.507
-0.004553314693965928,1.508
-0.007663975164522157,1.509
-0.00961564157907437,1.51
-0.009798060761039139,1.511
-0.00811203160571618,1.512
-0.0049155413482428086,1.513
-0.0008888231607543656,1.514
0.0031662025719303233,1.515
0.0065733164324491295,1.516
0.008992566259448683,1.517
0.010468162138390323,1.518
0.011274557920101779,1.519
0.011688523122891738,1.52
0.011846717651501177,1.521
0.011721526923729658,1.522
0.01117006779535908,1.523
0.010015228203848026,1.524
0.00812450730037848,1.525
0.0054916932301788375,1.526
0.002320246996649068,1.527
-0.0009668622167121465,1.528
-0.0038303897135301473,1.529
-0.005781881806009416,1.53
-0.0065591243628022825,1.531
-0.0062392516999715975,1.532
-0.005211692609368966,1.533
-0.004019409605142584,1.534
-0.0031698244438262495,1.535
-0.003014145600111172,1.536
-0.0037137163696387586,1.537
-0.005260160857537761,1.538
-0.007519406804634681,1.539
-0.010266032451401211,1.54
-0.013177417274571218,1.541
-0.015801903223623386,1.542
-0.017549509863911655,1.543
-0.01774324247363505,1.544
-0.015768289088429144,1.545
-0.011325717703479057,1.546
-0.004661099568787791,1.547
0.0034227368588088673,1.548
0.011786300823234602,1.549
0.019239368700674168,1.55
0.024759908878948588,1.551
0.027649583414874015,1.552
0.02766363063160791,1.553
0.02507325500809384,1.554
0.020566415789957205,1.555
0.015012053164757344,1.556
0.009249306677121519,1.557
0.003974021760861971,1.558
-0.0003292288106660677,1.559
-0.0034319200882626816,1.56
-0.005379672189358244,1.561
-0.006476540794733837,1.562
-0.007209659866563505,1.563
-0.008122887772819682,1.564
-0.009670831246594068,1.565
-0.012073294313293504,1.566
-0.015213105351869788,1.567
-0.018637622601918525,1.568
-0.02167292124846243,1.569
-0.02358718487159251,1.57
-0.02374006698742742,1.571
-0.02169214827800458,1.572
-0.017268406702007393,1.573
-0.010604102198474859,1.574
-0.0021925389275321266,1.575
0.007113220475257182,1.576
0.01619498873976782,1.577
0.023859524165858088,1.578
0.029072515916095273,1.579
0.031134621128309607,1.58
0.029772859313525992,1.581
0.025237471085023888,1.582
0.018375271536842822,1.583
0.01049622731515201,1.584
0.002998080511131986,1.585
-0.0030514982531498003,1.586
-0.007166429553265838,1.587
-0.009447943445205678,1.588
-0.010379134822129724,1.589
-0.010534444832834477,1.59
-0.010352913330126341,1.591
-0.010041274582797686,1.592
-0.009592578663149574,1.593
-0.008883032232478147,1.594
-0.007782881718149168,1.595
-0.0062230492694362,1.596
-0.004221403896688989,1.597
-0.0018842085084032972,1.598
0.0006202029539517908,1.599
0.0030828451702596777,1.6
0.005249158156305995,1.601
0.006838058685349779,1.602
0.007619500236974467,1.603
0.0075086168869934545,1.604
0.00660687684305789,1.605
0.005151062120297468,1.606
0.0034078359389841228,1.607
0.0016067980168522746,1.608
-6.013169499032604e-05,1.609
-0.0014387768228050794,1.61
-0.0024478622159070894,1.611
-0.0031184418002054817,1.612
-0.00360745939120513,1.613
-0.004162521983546248,1.614
-0.005033402948645492,1.615
-0.00636776644096196,1.616
-0.00812886054488532,1.617
-0.010052418911648927,1.618
-0.01165747856616816,1.619
-0.012326580161362843,1.62
-0.011468407491156254,1.621
-0.008738106133193728,1.622
-0.004213803184025102,1.623
0.0015707376462726127,1.624
0.007732349748693724,1.625
0.013233972461118498,1.626
0.017125378792711254,1.627
0.018753351425686127,1.628
0.01790214897730466,1.629
0.014869078700897901,1.63
0.010419291806794066,1.631
0.005574540220912729,1.632
0.0013137765761850359,1.633
-0.0016938292230655636,1.634
-0.003238868755610967,1.635
-0.0035402722419685894,1.636
-0.0030443510029994937,1.637
-0.0021898096524121174,1.638
-0.0012788029131511993,1.639
-0.0004783257540721225,1.64
0.00010739426887214996,1.641
0.00036650151462288346,1.642
0.0001715396723340878,1.643
-0.0005577974924195749,1.644
-0.0017867688555946789,1.645
-0.0033713341865868785,1.646
-0.005139616493130052,1.647
-0.006967936834464188,1.648
-0.008790272906776298,1.649
-0.010552405591431955,1.65
-0.012141887375892372,1.651
-0.013320159880210793,1.652
-0.013689949126678938,1.653
-0.012732885186830946,1.654
-0.009941535761078436,1.655
-0.0050418014690356925,1.656
0.0017750464642466042,1.657
0.009761524674625427,1.658
0.017743396661686492,1.659
0.024395888130646134,1.66
0.02852076150563387,1.661
0.029235543541703022,1.662
0.026130421900571073,1.663
0.019459164959467704,1.664
0.010226753185170565,1.665
-1.6820702174110406e-05,1.666
-0.009606740781363594,1.667
-0.017172396212817066,1.668
-0.021883873306713927,1.669
-0.02351963045492871,1.67
-0.02239149583914366,1.671
-0.019183035275039697,1.672
-0.01473743712992332,1.673
-0.009839645459671099,1.674
-0.005063051423882059,1.675
-0.0007339699843174523,1.676
0.002993321158953926,1.677
0.006020871338821423,1.678
0.008233861731620547,1.679
0.009517336864934466,1.68
0.009830330282367086,1.681
0.009244490215425642,1.682
0.007896970037657127,1.683
0.005910009211248263,1.684
0.0033676479794225367,1.685
0.00037812821195012025,1.686
-0.002822589701218405,1.687
-0.005806573657115124,1.688
-0.00798133483122389,1.689
-0.00870939462267253,1.69
-0.007510356730866562,1.691
-0.004275933108508738,1.692
0.0006233739193701232,1.693
0.006377765609108618,1.694
0.011886890922399727,1.695
0.015994328745860868,1.696
0.01778724684846747,1.697
0.01687829484654918,1.698
0.01352994912186448,1.699
0.008544203415085364,1.7
0.0029728206028865733,1.701
-0.002211153455276628,1.702
-0.0063404058676396445,1.703
-0.009123846096568328,1.704
-0.010604477739292776,1.705
-0.011064694383280966,1.706
-0.010898987166602371,1.707
-0.010480499907602928,1.708
-0.01006795673276471,1.709
-0.009777803117653716,1.71
-0.009624135137744709,1.711
-0.00959981561570283,1.712
-0.009732976509860913,1.713
-0.010044009899022325,1.714
-0.010395794871055965,1.715
-0.01036453145108482,1.716
-0.009292239058340604,1.717
-0.006533449603875098,1.718
-0.001752665609916379,1.719
0.004869337657273345,1.72
0.01256761492944956,1.721
0.020072948787456024,1.722
0.025853229534098132,1.723
0.028504494809963463,1.724
0.027222852726892278,1.725
0.022177744286102582,1.726
0.014530013073633032,1.727
0.00601181797206674,1.728
-0.0016868431104603056,1.729
-0.007390127917821371,1.73
-0.010625606833285877,1.731
-0.011577892553630943,1.732
-0.010900042540872465,1.733
-0.009439608592644262,1.734
-0.007928847929192693,1.735
-0.006741731042681479,1.736
-0.005844294173225939,1.737
-0.004963810650637758,1.738
-0.0038373562539560017,1.739
-0.0023771010629179074,1.74
-0.0007091806885907558,1.741
0.0008820998987162629,1.742
0.0020634356101666097,1.743
0.002571091862478672,1.744
0.002308319321388879,1.745
0.0013996748476115927,1.746
0.00017368402586787944,1.747
-0.0009309045276609883,1.748
-0.0015062333620316946,1.749
-0.001314180007942576,1.75
-0.0003625255267174557,1.751
0.0010944005006833265,1.752
0.002608705850817128,1.753
0.0036537003970419477,1.754
0.003790900890873236,1.755
0.002827599825496634,1.756
0.0009013475380543703,1.757
-0.0015428830733594777,1.758
-0.003893321567011475,1.759
-0.005600926284838737,1.76
-0.006395212054010479,1.761
-0.0063642171291972815,1.762
-0.00585824787985682,1.763
-0.005277114127902573,1.764
-0.004850899803541298,1.765
-0.004520589308772168,1.766
-0.0039860586954256145,1.767
-0.002911412029294192,1.768
-0.001172498130679218,1.769
0.0010054148110350547,1.77
0.0030936807094451486,1.771
0.004474636445616466,1.772
0.004743028726314285,1.773
0.003952383406519717,1.774
0.002680455515612861,1.775
0.001853261552945563,1.776
0.002362569203314429,1.777
0.004654083948434488,1.778
0.00849192352822108,1.779
0.01299430567514534,1.78
0.016920816039349796,1.781
0.01907910194379184,1.782
0.018665053996084056,1.783
0.01543550892972798,1.784
0.009730426216899669,1.785
0.0023939089228641342,1.786
-0.0053820544256223315,1.787
-0.01227995160871099,1.788
-0.01713024991084916,1.789
-0.019197262829690507,1.79
-0.01837346238132541,1.791
-0.015170182231892716,1.792
-0.010517386913155067,1.793
-0.005497576140916217,1.794
-0.0011168185988835455,1.795
0.001868260490316974,1.796
0.003072890628458701,1.797
0.002514955214108236,1.798
0.000518533069024839,1.799
-0.002460640514394906,1.8
-0.005986504521135197,1.801
-0.009691837048493872,1.802
-0.013215861905345822,1.803
-0.01609218027044821,1.804
-0.017673214057143605,1.805
-0.01718285306719709,1.806
-0.013951427524107645,1.807
-0.0077489514359447,1.808
0.0009619778976422627,1.809
0.010985556784122465,1.81
0.020602054610516382,1.811
0.027971889150851983,1.812
0.03161667890357035,1.813
0.030853115914027587,1.814
0.026053418930054237,1.815
0.01857319930671459,1.816
0.010274067153963552,1.817
0.0028586909894612687,1.818
-0.002605541290023477,1.819
-0.0057975938679647515,1.82
-0.006984952956740342,1.821
-0.006772415012234731,1.822
-0.005861300703302465,1.823
-0.004861315593231053,1.824
-0.004187163217128308,1.825
-0.004034701102182417,1.826
-0.004394922755535818,1.827
-0.005089733164033138,1.828
-0.005839336212390461,1.829
-0.006355773120164544,1.83
-0.006440528387467682,1.831
-0.006051531832441967,1.832
-0.005305888675795929,1.833
-0.004420667092292356,1.834
-0.0036142820683461993,1.835
-0.00299589029071691,1.836
-0.002507224315490251,1.837
-0.0019821808961348283,1.838
-0.0012874164140495464,1.839
-0.00042424270226441125,1.84
0.000468300255901653,1.841
0.0011806252121449327,1.842
0.0015284614887915546,1.843
0.0014327437616703299,1.844
0.0009292765200073333,1.845
9.789479399764257e-05,1.846
-0.0010187477479193733,1.847
-0.0024133429354251013,1.848
-0.004016254118706642,1.849
-0.0055963453748628334,1.85
-0.0067526094400175655,1.851
-0.0069914331107618875,1.852
-0.005844885621719786,1.853
-0.003019465513584782,1.854
0.001444233828888931,1.855
0.007074387497612423,1.856
0.013010407566406139,1.857
0.018195916205381118,1.858
0.021654458769131763,1.859
0.02274264143673386,1.86
0.021293095557460937,1.861
0.0176217532948168,1.862
0.012423614164055807,1.863
0.006585072173417843,1.864
0.0009607838585175134,1.865
-0.0038104298818034347,1.866
-0.00739994861003366,1.867
-0.009789132042571822,1.868
-0.011194684882774168,1.869
-0.01194803632781605,1.87
-0.012376613023373085,1.871
-0.012735605226875894,1.872
-0.013191185258740678,1.873
-0.013812772246030352,1.874
-0.01453324231694192,1.875
-0.015088274197261579,1.876
-0.015015510093716886,1.877
-0.013781843525289895,1.878
-0.011004800303941882,1.879
-0.006655893574789757,1.88
-0.0011364998335845343,1.881
0.004815700300521771,1.882
0.010332413811880704,1.883
0.014621036637291177,1.884
0.017103590576659434,1.885
0.017501120288856056,1.886
0.01589040846021653,1.887
0.012690220933921307,1.888
0.008518669050569487,1.889
0.003994145664026718,1.89
-0.0003656402911583345,1.891
-0.004115365409022561,1.892
-0.006842349702933664,1.893
-0.00821748700797825,1.894
-0.008103932449077662,1.895
-0.0066121497627480595,1.896
-0.0040568357914513705,1.897
-0.0008664853143568847,1.898
0.0024917854388609765,1.899
0.005550993750251187,1.9
0.007877117964950801,1.901
0.009137784133224046,1.902
0.009184107847514274,1.903
0.00806339876853932,1.904
0.00593757373236297,1.905
0.0030075172729769886,1.906
-0.00046531548415524834,1.907
-0.004094090932679613,1.908
-0.0073587462237448475,1.909
-0.009684440933209148,1.91
-0.010585270424081982,1.911
-0.009808118112182636,1.912
-0.0074111178527326155,1.913
-0.0037861013200907708,1.914
0.00037296863979602627,1.915
0.004205301246539787,1.916
0.006908199962745623,1.917
0.007968836632611173,1.918
0.0073178617611907104,1.919
0.005319369232583012,1.92
0.002585556709343709,1.921
-0.00026435681658221633,1.922
-0.0027698502803092536,1.923
-0.00467897746170247,1.924
-0.0059076825023000375,1.925
-0.006463029063954071,1.926
-0.006380331974281749,1.927
-0.005697676039347232,1.928
-0.004467486690344424,1.929
-0.0027768580028444977,1.93
-0.0007498468353688262,1.931
0.0014557148933326749,1.932
0.0036322575879047282,1.933
0.005491228833487793,1.934
0.0066570249371655146,1.935
0.0067315450127726235,1.936
0.005420354908940372,1.937
0.0026621674074629622,1.938
-0.0012923600571847255,1.939
-0.005889409043610442,1.94
-0.010368607445966023,1.941
-0.013894959934489326,1.942
-0.015678141544623058,1.943
-0.015093900484548638,1.944
-0.011855753164689937,1.945
-0.006199200823785768,1.946
0.0010822999282716161,1.947
0.008836084121542178,1.948
0.01586514915118755,1.949
0.021189036485632154,1.95
0.024171279289151908,1.951
0.024535088052286054,1.952
0.022349029237387782,1.953
0.018013760521804107,1.954
0.012207326670622633,1.955
0.005766992874246529,1.956
-0.00047239807881642134,1.957
-0.005841620905257004,1.958
-0.009942695684138131,1.959
-0.012662139461519582,1.96
-0.01412246813571118,1.961
-0.014616548739221578,1.962
-0.014515923020907921,1.963
-0.014140186111333495,1.964
-0.013622020955392491,1.965
-0.012833384802251354,1.966
-0.011443053179163505,1.967
-0.00910369400359203,1.968
-0.005655198406158722,1.969
-0.001222472536211302,1.97
0.0038107315722203296,1.971
0.008884649045654891,1.972
0.013350524992886087,1.973
0.01655651229984715,1.974
0.01794804662797954,1.975
0.017196737039375593,1.976
0.014302916916312566,1.977
0.009572224290366685,1.978
0.0034762662504008316,1.979
-0.0034773255047227773,1.98
-0.010771095978115612,1.981
-0.017810911064422362,1.982
-0.023859051653544985,1.983
-0.028050415476031,1.984
-0.029497755442289886,1.985
-0.02747609495692069,1.986
-0.02166733144519863,1.987
-0.012356433088093479,1.988
-0.0004762336035721384,1.989
0.012471031434782426,1.99
0.024580031581694275,1.991
0.033857606796140194,1.992
0.03868407570536817,1.993
0.03824083630876348,1.994
0.032723416595184324,1.995
0.023313613211971024,1.996
0.011927100053267446,1.997
0.0007365251589421897,1.998
-0.008390808472337329,1.999
-0.014293163841353974,2.0
-0.016639997600613674,2.001
-0.0158303407934085,2.002
-0.01275657005615702,2.003
-0.008539422703314708,2.004
-0.004286389015577055,2.005
-0.0008721131240581279,2.006
0.001210486367151263,2.007
0.0018683602964675772,2.008
0.0013250992166959801,2.009
6.038701113273977e-07,2.01
-0.0016261291147479271,2.011
-0.0031469161963746488,2.012
-0.004302699289084114,2.013
-0.005000234233574979,2.014
-0.005278281837028534,2.015
-0.005239132941681359,2.016
-0.004985315041993271,2.017
-0.004600717308389313,2.018
-0.00416322649375411,2.019
-0.0037441510477470557,2.02
-0.0033801434776092043,2.021
-0.003032848778446328,2.022
-0.0025767557760924377,2.023
-0.0018512138956266746,2.024
-0.0007384537898147614,2.025
0.0007921381684017877,2.026
0.002678537550825359,2.027
0.004780757854353592,2.028
0.00689084847429337,2.029
0.00872849159406613,2.03
0.009968864341193038,2.031
0.0103377993733118,2.032
0.009729517249210298,2.033
0.00827268352258808,2.034
0.006292676615839572,2.035
0.004176930229065057,2.036
0.0022195430784798646,2.037
0.0005216253624925769,2.038
-0.0010316683163361302,2.039
-0.002730076984239245,2.04
-0.004926688487757529,2.041
-0.00784298135709139,2.042
-0.011347917238101463,2.043
-0.014851733658125078,2.044
-0.017438940038466806,2.045
-0.01821500582187572,2.046
-0.01666177072258499,2.047
-0.012791172701651428,2.048
-0.0070864035092499805,2.049
-0.0003625252581158393,2.05
0.006376630226070368,2.051
0.012104610197124836,2.052
0.015984837870384346,2.053
0.017586850830306665,2.054
0.01700336265173809,2.055
0.01478325873380523,2.056
0.01170913041414722,2.057
0.008539806228848501,2.058
0.005824048295622822,2.059
0.003827002808374154,2.06
0.002553274020683962,2.061
0.0018270893849946872,2.062
0.0013842546208642948,2.063
0.0009442938504582573,2.064
0.000268762264336695,2.065
-0.0007875946235801254,2.066
-0.0022474023661684726,2.067
-0.004010643536402807,2.068
-0.0058801637704317495,2.069
-0.007613760179607178,2.07
-0.008993912442765048,2.071
-0.009880325830930686,2.072
-0.010223983755876256,2.073
-0.010049727573103285,2.074
-0.009417316581890796,2.075
-0.008373332259506447,2.076
-0.00692156566680159,2.077
-0.005051392777748231,2.078
-0.0028064275511710565,2.079
-0.0003100172805733136,2.08
0.0022724910398743557,2.081
0.004775134724166601,2.082
0.007039012493989941,2.083
0.008887288216628866,2.084
0.010097547187441621,2.085
0.01042774084010971,2.086
0.009706562582485825,2.087
0.007923925256830437,2.088
0.005259185708452204,2.089
0.002044016131881202,2.09
-0.0013051059608053515,2.091
-0.00436163982658732,2.092
-0.00675315468759444,2.093
-0.008186995346389156,2.094
-0.008460705170018661,2.095
-0.0075057695510273355,2.096
-0.005432649738536487,2.097
-0.002523013515731754,2.098
0.0008150681496143703,2.099
0.004106764679785747,2.1
0.0068909745402212915,2.101
0.008797539276572123,2.102
0.00958543787619191,2.103
0.009154964778372146,2.104
0.007568264845576821,2.105
0.005077559173981016,2.106
0.002111285869074382,2.107
-0.0008252205649080914,2.108
-0.003296039901532136,2.109
-0.005048341667731029,2.11
-0.006050369941779663,2.111
-0.006449238472873591,2.112
-0.006478606356101924,2.113
-0.006367173565131342,2.114
-0.0062688934577045516,2.115
-0.0062166734938740465,2.116
-0.006131085600671617,2.117
-0.005886454088377011,2.118
-0.005373277579213335,2.119
-0.0045174022608272845,2.12
-0.003266396560445153,2.121
-0.0015815404141489111,2.122
0.0005292980079473566,2.123
0.0029584894028740955,2.124
0.005483609186794193,2.125
0.007813873183090386,2.126
0.00965239721537152,2.127
0.010728397746773926,2.128
0.010835698302959471,2.129
0.009906911699479104,2.13
0.00806358142704683,2.131
0.0055962060906962485,2.132
0.0028912283535885413,2.133
0.000331197903938912,2.134
-0.0017995542501182149,2.135
-0.0033576637418928448,2.136
-0.004318894430166859,2.137
-0.004733996229563622,2.138
-0.004702756838392736,2.139
-0.0043687722952542385,2.14
-0.003912401902558846,2.141
-0.003518861152039298,2.142
-0.0033271565679331753,2.143
-0.0033863495345939324,2.144
-0.0036494502191426748,2.145
-0.0040112536897571015,2.146
-0.004344475481160985,2.147
-0.00450175551233441,2.148
-0.004321396693402773,2.149
-0.003677157677901146,2.15
-0.0025415603834745954,2.151
-0.001002497782816623,2.152
0.0007701171416014606,2.153
0.002566035778587793,2.154
0.0041684424986107894,2.155
0.005386694467560198,2.156
0.006090413797378186,2.157
0.0062427748937334,2.158
0.005909591204012998,2.159
0.0052187366470448325,2.16
0.004300613039314111,2.161
0.0032550454686113735,2.162
0.002142487435361161,2.163
0.0009945679023558181,2.164
-0.00015683600520111286,2.165
-0.0012608478833344944,2.166
-0.0022551585771472264,2.167
-0.0030813177802171176,2.168
-0.0036879153327968608,2.169
-0.0040272981745594,2.17
-0.004062106300850844,2.171
-0.003775207973843435,2.172
-0.003173649055555161,2.173
-0.002295659922139869,2.174
-0.00121976618824562,2.175
-6.0363958402668694e-05,2.176
0.0010508087766205492,2.177
0.001981411723083124,2.178
0.0026089538363783128,2.179
0.0028371910010168123,2.18
0.002628174417296379,2.181
0.002035218660067093,2.182
0.0011962609623251525,2.183
0.0002767449588211245,2.184
-0.0005835757307490329,2.185
-0.001274830678538592,2.186
-0.0017015106826038298,2.187
-0.0017907526681245048,2.188
-0.0015202847254779793,2.189
-0.0009411704590869768,2.19
-0.00018290811954162437,2.191
0.0005636315542442171,2.192
0.0010967495964543242,2.193
0.0012816500035123495,2.194
0.001101426773322579,2.195
0.0006383612054438932,2.196
1.8092873444084233e-05,2.197
-0.0006212516930727183,2.198
-0.0011315235833773791,2.199
-0.0013758703205267425,2.2
-0.0012759630040939543,2.201
-0.0008420376713591256,2.202
-0.00016456861428932023,2.203
0.0006095405771699316,2.204
0.0012958227985626208,2.205
0.001703033709712862,2.206
0.0016910877692156573,2.207
0.001224798865240383,2.208
0.0003816591055981289,2.209
-0.0006825218848586217,2.21
-0.0017830435066232583,2.211
-0.0027543402865633617,2.212
-0.0034720878810636257,2.213
-0.0038415978411034616,2.214
-0.003790119452683745,2.215
-0.0032804948171029653,2.216
-0.0023240684174283105,2.217
-0.0009928913998883144,2.218
0.0005658964193743759,2.219
0.0021384167313576027,2.22
0.0034861913684105295,2.221
0.0044094994871629834,2.222
0.004802382621276465,2.223
0.004661353504430672,2.224
0.004054311595034408,2.225
0.003098139012498362,2.226
0.001953782488237162,2.227
0.0008035108294251342,2.228
-0.00019332298636058992,2.229
-0.0009347789898624142,2.23
-0.0013834612497929495,2.231
-0.0015496679224792664,2.232
-0.0014705505772451537,2.233
-0.0012112523000710922,2.234
-0.000879844666556201,2.235
-0.0006116185897078694,2.236
-0.0005087734844874154,2.237
-0.0005826726102844525,2.238
-0.0007512544443920494,2.239
-0.0008956011916528195,2.24
-0.0009262844695680089,2.241
-0.0008023423154269451,2.242
-0.000516956650462376,2.243
-0.00010966944591026405,2.244
0.0003078687688403749,2.245
0.000579147777844404,2.246
0.0005854730800815283,2.247
0.00031489934473520826,2.248
-0.00013306932246929477,2.249
-0.0005944429976680138,2.25
-0.0009109901414409774,2.251
-0.000996785489615208,2.252
-0.0008653252665473695,2.253
-0.0006120510937092594,2.254
-0.0003749936830409616,2.255
-0.00028350880638378984,2.256
-0.0004018894803391195,2.257
-0.0006889844772118319,2.258
-0.0009959188767786017,2.259
-0.0011162386158691643,2.26
-0.000883885080388421,2.261
-0.0002718999530020509,2.262
0.0005762472095049172,2.263
0.001407887373531201,2.264
0.0019754538269720046,2.265
0.0021400508606349788,2.266
0.0019128815620916208,2.267
0.0014179951221261736,2.268
0.0008136956524331482,2.269
0.00023159908875341386,2.27
-0.00023607862982361007,2.271
-0.0005207897273711917,2.272
-0.0005839050486766954,2.273
-0.0004495381513608803,2.274
-0.00021471439749274338,2.275
-1.438278869037098e-05,2.276
3.0188205779861334e-05,2.277
-0.00015594051827829322,2.278
-0.0005874816934768993,2.279
-0.0012091694035720724,2.28
-0.0019033444934543776,2.281
-0.002523853790760187,2.282
-0.0029309118623620893,2.283
-0.003012120271476614,2.284
-0.002701350820406192,2.285
-0.0019934670143213888,2.286
-0.0009452901711072994,2.287
0.00033168829264428317,2.288
0.0016861683845768585,2.289
0.0029568629291437305,2.29
0.004009134399871878,2.291
0.00475460203815757,2.292
0.005141503680734612,2.293
0.005135179609766974,2.294
0.004712066571248748,2.295
0.003865224162625439,2.296
0.002621268446173421,2.297
0.0010681307531691005,2.298
-0.0006308063613407727,2.299
-0.0022545943763953836,2.3
-0.003574962201549469,2.301
-0.004420523674326342,2.302
-0.0047204384723542004,2.303
-0.004512114532628172,2.304
-0.0039174965157158905,2.305
-0.0031046099983234247,2.306
-0.002253685151312319,2.307
-0.0015205628900753717,2.308
-0.000989279866845704,2.309
-0.0006426181432527137,2.31
-0.00038845638506202027,2.311
-0.00012615308382070374,2.312
0.00020219968227698593,2.313
0.000597339576072873,2.314
0.0010197137738104556,2.315
0.0014155685136825271,2.316
0.0017223435380997914,2.317
0.0018733368819833691,2.318
0.0018227116819605586,2.319
0.0015614949347322702,2.32
0.0011250746859159345,2.321
0.0006063949383937137,2.322
0.0001368643684526066,2.323
-0.00017729254510937624,2.324
-0.00031319128572704596,2.325
-0.00033488778452965627,2.326
-0.00033280821322859686,2.327
-0.000352225229176451,2.328
-0.0003828335857071791,2.329
-0.00040222717622526204,2.33
-0.0004041475627994147,2.331
