VaMe,time
-0.00023184588026253002,0.001
-0.0012121197288683136,0.002
-0.0022697770514144614,0.003
-0.0034595186664324053,0.004
-0.004723372647936445,0.005
-0.005841158277557193,0.006
-0.006477709521626452,0.007
-0.0063426861536731586,0.008
-0.005347186826613032,0.009
-0.0036188271537127325,0.01
-0.00139329266373278,0.011
0.0011010242229357913,0.012
0.003697600425978307,0.013
0.006267464463846848,0.014
0.008643713810987977,0.015
0.010563080327591238,0.016
0.011679199582758924,0.017
0.011663047178056597,0.018
0.010334817043550928,0.019
0.0077316809208782195,0.02
0.004086342132955562,0.021
-0.00023905127913835257,0.022
-0.004816110937046712,0.023
-0.009179177619103597,0.024
-0.01283435653665414,0.025
-0.01530290921267816,0.026
-0.016215316497166756,0.027
-0.015404735342673935,0.028
-0.012945685348501981,0.029
-0.009132223156836719,0.03
-0.00441113534452065,0.031
0.0007155257729869427,0.032
0.005780578414534092,0.033
0.01038266366816909,0.034
0.014154465023420847,0.035
0.01673382227421559,0.036
0.01780633165655653,0.037
0.017206693065091604,0.038
0.014986309745682562,0.039
0.011386607678522863,0.04
0.006761011584210811,0.041
0.0015161580924174397,0.042
-0.0039088398702947485,0.043
-0.009053092613787917,0.044
-0.013470734039463349,0.045
-0.01678318340603834,0.046
-0.01869861659816197,0.047
-0.018991131919228188,0.048
-0.017487149480577422,0.049
-0.014118506591857712,0.05
-0.009054326068287741,0.051
-0.0028198373979744285,0.052
0.003725806127540137,0.053
0.009582320529791155,0.054
0.013885480968554803,0.055
0.01613659459582115,0.056
0.016276242372218527,0.057
0.014583185515770593,0.058
0.011483698902703628,0.059
0.0073946966333495266,0.06
0.0026957955882614577,0.061
-0.0021732002703486984,0.062
-0.006643591214389231,0.063
-0.010114077946851745,0.064
-0.012136336033037211,0.065
-0.012529607937216717,0.066
-0.011379381115220695,0.067
-0.008971883946434455,0.068
-0.005714326797532002,0.069
-0.0020570404487945024,0.07
0.0015724214573481006,0.071
0.0048016640849439145,0.072
0.0073261292052255785,0.073
0.008945009031248874,0.074
0.009603162216493077,0.075
0.009377679186071726,0.076
0.008415313890551538,0.077
0.00689141116773387,0.078
0.005001939352118254,0.079
0.002944836253946548,0.08
0.0009015937404025284,0.081
-0.0009496780737994492,0.082
-0.0024136493558826414,0.083
-0.0032891898198629923,0.084
-0.0034251542822599738,0.085
-0.002808289421123122,0.086
-0.0016395197903595888,0.087
-0.000340723220022731,0.088
0.0005370520466918875,0.089
0.0004875261443370835,0.09
-0.0007688958477452974,0.091
-0.0031796154624658813,0.092
-0.006349608321851987,0.093
-0.009615694639347803,0.094
-0.0121976051245414,0.095
-0.013387702930832024,0.096
-0.012721407867676943,0.097
-0.010081614137084426,0.098
-0.005722807328631264,0.099
-0.00023264539733463483,0.1
0.005554269567420727,0.101
0.01069877145443837,0.102
0.014363734973396363,0.103
0.01603020673539234,0.104
0.0156094780415469,0.105
0.013397116851355065,0.106
0.009939645518942034,0.107
0.005917187825899269,0.108
0.0020597631655159938,0.109
-0.0009526712535117645,0.11
-0.0026338862129797825,0.111
-0.0028426140270921343,0.112
-0.0018543889245127827,0.113
-0.00029107535873313306,0.114
0.0010663756695167873,0.115
0.0015207540615162357,0.116
0.0006962019684733716,0.117
-0.0013450007755554136,0.118
-0.004196268018498406,0.119
-0.007315379073893611,0.12
-0.01015517172585842,0.121
-0.012177707044820156,0.122
-0.012892339470594075,0.123
-0.0120030533014659,0.124
-0.009562389390008896,0.125
-0.005993450355918778,0.126
-0.0019718359607766257,0.127
0.0017776206946404948,0.128
0.004709260456475083,0.129
0.006604272117657915,0.13
0.007561214492176099,0.131
0.007864588080958301,0.132
0.007834042724760008,0.133
0.007719927517606024,0.134
0.007630971653430408,0.135
0.007479955441167309,0.136
0.006990189800447084,0.137
0.005821519576540482,0.138
0.0038059059458917356,0.139
0.001147773983577213,0.14
-0.0015945918192923536,0.141
-0.0037604717619923326,0.142
-0.004894715811169467,0.143
-0.004917434202224831,0.144
-0.004055872415529197,0.145
-0.0026109925109797866,0.146
-0.0007815065101487786,0.147
0.0013177797212004377,0.148
0.0035116548640137185,0.149
0.005452754461485127,0.15
0.0066622024613676644,0.151
0.006711399700523996,0.152
0.005416873833240429,0.153
0.0029147300186833755,0.154
-0.0004346575053171228,0.155
-0.004222267019414769,0.156
-0.00809223824354985,0.157
-0.011742722596508753,0.158
-0.014918528398229658,0.159
-0.017412817528257435,0.16
-0.01901244935683974,0.161
-0.019398807675871817,0.162
-0.018126266606232077,0.163
-0.014770286246186355,0.164
-0.009171905766598563,0.165
-0.0016123112039700804,0.166
0.0071636634556869845,0.167
0.01605348590287468,0.168
0.02378349039664652,0.169
0.0291335269070191,0.17
0.031180643010172076,0.171
0.029533174345749293,0.172
0.024482545608838325,0.173
0.016983874803759222,0.174
0.008417390631073121,0.175
0.00021000073342735944,0.176
-0.006497991925790238,0.177
-0.01103354190318306,0.178
-0.013245488438112128,0.179
-0.013462333687949224,0.18
-0.01233707573116699,0.181
-0.010600203884114864,0.182
-0.00882770085447048,0.183
-0.007335393489730575,0.184
-0.0062023492535183905,0.185
-0.005352344356020112,0.186
-0.004640647546946115,0.187
-0.003918921557760779,0.188
-0.0030737136579620738,0.189
-0.002055205840300288,0.19
-0.0009055852750797609,0.191
0.00021537928101189583,0.192
0.0010268986893339721,0.193
0.0012096769636505376,0.194
0.0005958248082329804,0.195
-0.0006613939594985362,0.196
-0.0020821222967894425,0.197
-0.003018585264647008,0.198
-0.0028748522241245113,0.199
-0.0013059400266253519,0.2
0.0016281269224511564,0.201
0.005414473361158266,0.202
0.00922289300805108,0.203
0.012178112371162125,0.204
0.013619983364574786,0.205
0.013245108446085806,0.206
0.011125474507348512,0.207
0.007634717130967405,0.208
0.003325687992816803,0.209
-0.001169804105542419,0.21
-0.005196820575166557,0.211
-0.008136665815976862,0.212
-0.009517147745260763,0.213
-0.009162236864459735,0.214
-0.0072978725824486765,0.215
-0.0045200219028043095,0.216
-0.0016084536189134152,0.217
0.0007178106311972788,0.218
0.0019650185455152578,0.219
0.0018922404518736556,0.22
0.00046061250951113587,0.221
-0.0021897813845436764,0.222
-0.0056806773026343025,0.223
-0.009317689609150885,0.224
-0.012137600073475373,0.225
-0.013152960164047,0.226
-0.01167909100328409,0.227
-0.007561415963483196,0.228
-0.0012343867677309527,0.229
0.006371800142272289,0.23
0.014028502214832414,0.231
0.020426752609724746,0.232
0.02438422546258507,0.233
0.025090632565472674,0.234
0.0223705994027861,0.235
0.016789217086690778,0.236
0.009468799490326812,0.237
0.0017091891045524661,0.238
-0.005381715478821241,0.239
-0.011104398783572588,0.24
-0.015203671087689618,0.241
-0.01777516689213512,0.242
-0.019111298997371823,0.243
-0.019541458911460884,0.244
-0.019304981974189932,0.245
-0.018473386949393385,0.246
-0.01692701324940977,0.247
-0.014412739508580795,0.248
-0.010694272597910665,0.249
-0.0057243836995384744,0.25
0.00026934443173381935,0.251
0.006824628968015531,0.252
0.013344211406765373,0.253
0.019171223670564317,0.254
0.02363315545340087,0.255
0.02611288574466463,0.256
0.026189759332826742,0.257
0.023788389499786906,0.258
0.01922554370494239,0.259
0.013133087616132567,0.26
0.006305704967349449,0.261
-0.0004576213343192372,0.262
-0.006458974133815067,0.263
-0.011167946063585952,0.264
-0.014288857408155905,0.265
-0.01579447376608207,0.266
-0.015876648820735674,0.267
-0.014850537059592344,0.268
-0.013086371195700261,0.269
-0.010973779876521981,0.27
-0.00886664682217905,0.271
-0.007000397634009281,0.272
-0.0054367884841680205,0.273
-0.004070997955856695,0.274
-0.0026915650566058523,0.275
-0.0010786676515608042,0.276
0.0008960901193398457,0.277
0.003224595743026882,0.278
0.0057828804163382735,0.279
0.008377445780815023,0.28
0.01077598766725232,0.281
0.012724626886352603,0.282
0.01398806958057197,0.283
0.014400606496809984,0.284
0.013870267330208907,0.285
0.012342592753658673,0.286
0.009785597998215274,0.287
0.006201306952617621,0.288
0.0016342149098558319,0.289
-0.0037924710778434864,0.29
-0.009791972111847945,0.291
-0.015852500181301684,0.292
-0.021262992063123477,0.293
-0.02521177427879355,0.294
-0.02694203403364129,0.295
-0.02595216263747433,0.296
-0.022139046009236947,0.297
-0.01581156702130444,0.298
-0.007666143564679817,0.299
0.001249185195538786,0.3
0.009712588328682163,0.301
0.0166638810797279,0.302
0.0215005165346711,0.303
0.024129155903856073,0.304
0.02478642212269297,0.305
0.023818053563649945,0.306
0.021549226185979823,0.307
0.01827645703658656,0.308
0.014352793156643544,0.309
0.010248724031628497,0.31
0.006474115399649926,0.311
0.0033940267276457202,0.312
0.0010885471177521058,0.313
-0.000629347228644424,0.314
-0.002069174540652748,0.315
-0.0035229579124131357,0.316
-0.005220446949808844,0.317
-0.0073479623717583676,0.318
-0.010048248587240087,0.319
-0.013391900355282333,0.32
-0.017342864191726728,0.321
-0.0217045552698906,0.322
-0.026067555829223186,0.323
-0.029801426418493367,0.324
-0.03207983667798523,0.325
-0.03193928658862538,0.326
-0.028455667833398937,0.327
-0.02109163885524455,0.328
-0.01007643214727004,0.329
0.0034214609006168657,0.33
0.017457666315897666,0.331
0.029784353007245436,0.332
0.03847803216505758,0.333
0.04246631371713072,0.334
0.04172597196488646,0.335
0.03711646454514358,0.336
0.029994213269205764,0.337
0.021791974674695545,0.338
0.013706134433318869,0.339
0.0065544470123759,0.34
0.000762550567777168,0.341
-0.0035818282502799634,0.342
-0.006633193255380864,0.343
-0.008694233885816213,0.344
-0.010150811130840083,0.345
-0.011406964365005958,0.346
-0.01280475664733281,0.347
-0.014543696479791009,0.348
-0.016596849283956643,0.349
-0.018647767892532262,0.35
-0.020137436072163756,0.351
-0.02043930256721248,0.352
-0.019051117723296488,0.353
-0.01572113135854445,0.354
-0.010521180598461318,0.355
-0.0039011295577559757,0.356
0.0032860581825897533,0.357
0.009872986643846999,0.358
0.014653696489513592,0.359
0.016778251468782205,0.36
0.01607779975151555,0.361
0.013150079433843222,0.362
0.009153272213864128,0.363
0.00540606840365077,0.364
0.0029761833866621106,0.365
0.002400863715053144,0.366
0.003581169406891005,0.367
0.005815716241150989,0.368
0.007931518911825797,0.369
0.008521593963861006,0.37
0.006346517629114392,0.371
0.0008689256844808968,0.372
-0.007321212669575926,0.373
-0.016501301363782153,0.374
-0.024321518329488045,0.375
-0.028599396542523234,0.376
-0.02802458981193414,0.377
-0.022473594983662002,0.378
-0.012901338960894775,0.379
-0.0010209358695690244,0.38
0.011053186774113549,0.381
0.021228219508265443,0.382
0.027911378874649673,0.383
0.030337123273706412,0.384
0.028632421551669528,0.385
0.02371324363630745,0.386
0.01704208374272836,0.387
0.010184752687220272,0.388
0.004278204871239406,0.389
-0.00027463743057966355,0.39
-0.00369341910331254,0.391
-0.0064260766099524065,0.392
-0.00875343008637933,0.393
-0.010609893937477884,0.394
-0.01169093242547844,0.395
-0.01173566292001891,0.396
-0.010752281243340088,0.397
-0.009024314221981838,0.398
-0.006943932756105006,0.399
-0.00485015935897091,0.4
-0.002983665270147413,0.401
-0.0015228703801851145,0.402
-0.0006175554033091465,0.403
-0.00038248072265152313,0.404
-0.0008784048330227072,0.405
-0.0021230827219547834,0.406
-0.004091004551927948,0.407
-0.006616729424177241,0.408
-0.009236539673200504,0.409
-0.011150835844548578,0.41
-0.011438486633176563,0.411
-0.009419291804077912,0.412
-0.00494578245714053,0.413
0.0015055157129849608,0.414
0.008954704383568183,0.415
0.016152272953434705,0.416
0.02180720317984492,0.417
0.02481274972551145,0.418
0.024507638830701357,0.419
0.02087584077159303,0.42
0.014535156100761344,0.421
0.006525389564915166,0.422
-0.0019387783367306054,0.423
-0.009648245118410094,0.424
-0.015541858292509895,0.425
-0.018849825309237112,0.426
-0.019233450590508672,0.427
-0.01687628253750066,0.428
-0.012460356826752148,0.429
-0.007012882147168582,0.43
-0.0016577961090485465,0.431
0.0026825560877873963,0.432
0.005518973598322528,0.433
0.006822174994598214,0.434
0.006875423697068283,0.435
0.006118934986126054,0.436
0.005045885188087129,0.437
0.004083499623884878,0.438
0.0034607768268019776,0.439
0.003164610709044945,0.44
0.003048050771274007,0.441
0.00301301884183343,0.442
0.0030914578239305125,0.443
0.0033636112371521094,0.444
0.003857743912862285,0.445
0.004540036985280116,0.446
0.005319943614106648,0.447
0.005999511363831245,0.448
0.006233265249614234,0.449
0.005608932838737109,0.45
0.0038288614837041243,0.451
0.000837276297775879,0.452
-0.003181406051165474,0.453
-0.00786026188789879,0.454
-0.01269047520355687,0.455
-0.017052201452769315,0.456
-0.020271643396167223,0.457
-0.021715034617426982,0.458
-0.02093105558299036,0.459
-0.017848475338044307,0.46
-0.012925153415459535,0.461
-0.007074770620585931,0.462
-0.0013641738300527084,0.463
0.00334228820910516,0.464
0.006634518933886236,0.465
0.00861531985526055,0.466
0.00972248769741156,0.467
0.010390821069074607,0.468
0.01076022213013331,0.469
0.010635928894863816,0.47
0.009742574217626308,0.471
0.008071007642082583,0.472
0.006031035675244586,0.473
0.0043039397197891655,0.474
0.003532931219513689,0.475
0.004084496981811418,0.476
0.005978639951467245,0.477
0.008887705601808963,0.478
0.012117119820640707,0.479
0.014646106280099118,0.48
0.015356183792147848,0.481
0.013425759958097755,0.482
0.00869836693583606,0.483
0.0018105135463444262,0.484
-0.005998165731789638,0.485
-0.013272074561593523,0.486
-0.018734402861544864,0.487
-0.02156091751696581,0.488
-0.02147786600397291,0.489
-0.01871404465102609,0.49
-0.013881607424020498,0.491
-0.007838268814405512,0.492
-0.0015398933170208513,0.493
0.004140060924374116,0.494
0.008602798289436088,0.495
0.011619422106981707,0.496
0.013251866571277958,0.497
0.013668224370055118,0.498
0.012983185129689219,0.499
0.011182317414560349,0.5
0.00810147084804291,0.501
0.0034375337505140715,0.502
-0.003142784063809375,0.503
-0.011729912561717673,0.504
-0.021823288114381948,0.505
-0.032121634570906,0.506
-0.040617165442938155,0.507
-0.045024040789252436,0.508
-0.043438872479699166,0.509
-0.035007728325614586,0.51
-0.020366701408583952,0.511
-0.001697422708120422,0.512
0.01772705152429508,0.513
0.03445787811679363,0.514
0.045866116256353444,0.515
0.05073243210261444,0.516
0.04926648282111675,0.517
0.04277201281927259,0.518
0.03317547756575954,0.519
0.022508378769922056,0.52
0.012497180237950987,0.521
0.004358556714405744,0.522
-0.0012983086720434191,0.523
-0.00450270907000789,0.524
-0.0057703927937947375,0.525
-0.005768315817645659,0.526
-0.005003318816611592,0.527
-0.0037353152379307735,0.528
-0.002156732201969543,0.529
-0.0006636472463942676,0.53
7.228284186799042e-05,0.531
-0.0006898470463831452,0.532
-0.0034528916899990414,0.533
-0.008230763369179462,0.534
-0.014434198836825013,0.535
-0.02095319703987484,0.536
-0.026415439345771632,0.537
-0.02949690187052893,0.538
-0.029186479507931032,0.539
-0.025041636779169395,0.54
-0.017441348790445392,0.541
-0.007661530908507596,0.542
0.002382464779038671,0.543
0.010667092375518676,0.544
0.015667608128497632,0.545
0.01682484275599124,0.546
0.014677714582647368,0.547
0.010567928814001499,0.548
0.0060399016508160645,0.549
0.002241954335463351,0.55
-0.0003913333747599122,0.551
-0.0020992062994910285,0.552
-0.003492251163753014,0.553
-0.005101998612245401,0.554
-0.006917187997466884,0.555
-0.00816715186696992,0.556
-0.007605149767323562,0.557
-0.004210960720104063,0.558
0.002139022550782737,0.559
0.01045742846675754,0.56
0.018930698769545125,0.561
0.025488764923802785,0.562
0.028458811977712585,0.563
0.027111379364732555,0.564
0.02188240469918656,0.565
0.014173470812794388,0.566
0.005826931204160495,0.567
-0.0014934296975636782,0.568
-0.006754796380677026,0.569
-0.00970549137218708,0.57
-0.010758812312068664,0.571
-0.010695491129588284,0.572
-0.010286755700898686,0.573
-0.009990674183472013,0.574
-0.009846821640911253,0.575
-0.009576220436319378,0.576
-0.008800239493253684,0.577
-0.007273485046366501,0.578
-0.005050562249229744,0.579
-0.0025445673196608557,0.58
-0.0004664380501838672,0.581
0.0003527168240090997,0.582
-0.0007556651641537853,0.583
-0.003985392939879838,0.584
-0.008865809261569886,0.585
-0.014308124763699968,0.586
-0.018873736915233575,0.587
-0.021150896870894578,0.588
-0.02011331693417883,0.589
-0.015400120395966542,0.59
-0.0074722020535955514,0.591
0.0024792288188539703,0.592
0.012938806368897058,0.593
0.022594197698296334,0.594
0.03065516329719593,0.595
0.03681914817526842,0.596
0.041014749117927074,0.597
0.043134067813600484,0.598
0.04284668503515228,0.599
0.03950797740418051,0.6
0.03227635689294802,0.601
0.020583351468092217,0.602
0.004786007650140204,0.603
-0.013485656138124014,0.604
-0.03162960903098762,0.605
-0.04688413585161994,0.606
-0.05717098505947458,0.607
-0.061569154453236685,0.608
-0.06031676492645494,0.609
-0.054412186752699085,0.61
-0.045029232850020876,0.611
-0.03312033255948452,0.612
-0.019382148841955053,0.613
-0.004387738490484968,0.614
0.011243441172284138,0.615
0.026535075003784964,0.616
0.03980880959977087,0.617
0.04875739246964135,0.618
0.0511661523839186,0.619
0.045929870444117296,0.62
0.03379934469307443,0.621
0.017440172663144085,0.622
0.0006908906908539489,0.623
-0.012630822834824296,0.624
-0.01977078207616644,0.625
-0.01957559286714864,0.626
-0.012581640851778623,0.627
-0.0008309466830918621,0.628
0.012548706081158642,0.629
0.024062112077884973,0.63
0.03079997472304269,0.631
0.031305163655111386,0.632
0.02596671777521273,0.633
0.01675577205839317,0.634
0.006388342824313815,0.635
-0.0027283159716208444,0.636
-0.009261893184299116,0.637
-0.013133288887236786,0.638
-0.015215491805966734,0.639
-0.01684339815556168,0.64
-0.019314371580329538,0.641
-0.02345312869140797,0.642
-0.02931791594796766,0.643
-0.03608324243402261,0.644
-0.04203542557871838,0.645
-0.044733835395515835,0.646
-0.04163645845497456,0.647
-0.03122196054846969,0.648
-0.014001612218366702,0.649
0.007255196056672689,0.65
0.028240523631610844,0.651
0.04449272503427179,0.652
0.05289825765480249,0.653
0.05261610322502084,0.654
0.04503296017480841,0.655
0.03296502726101044,0.656
0.01960869039680764,0.657
0.007668671008001965,0.658
-0.0011200929110876357,0.659
-0.006131185138260616,0.66
-0.007773571908963928,0.661
-0.007223647079960558,0.662
-0.005951396445016555,0.663
-0.0051493389003479315,0.664
-0.005328651624115545,0.665
-0.00631390973716451,0.666
-0.007593085747207459,0.667
-0.008729793392096452,0.668
-0.009589739708648586,0.669
-0.01036835357203092,0.67
-0.011473275033717924,0.671
-0.013251314556436132,0.672
-0.015650241237786112,0.673
-0.018043073487074627,0.674
-0.019409456225172567,0.675
-0.018871658876215367,0.676
-0.016247971642390672,0.677
-0.012176526118080004,0.678
-0.007719710096142148,0.679
-0.0037213497701138465,0.68
-0.00027215905422934276,0.681
0.00341288516219371,0.682
0.00856160057639061,0.683
0.015991259515652723,0.684
0.025327166077914506,0.685
0.034881342872054924,0.686
0.042291124283648146,0.687
0.045441670725698595,0.688
0.043173310064714324,0.689
0.03563106135540915,0.69
0.02428822515790516,0.691
0.01157107344819378,0.692
4.240385965201531e-05,0.693
-0.00854242875309217,0.694
-0.013763864565299674,0.695
-0.01641264626638278,0.696
-0.017918186606733832,0.697
-0.0196646007543643,0.698
-0.022450188924919737,0.699
-0.026208292890674074,0.7
-0.030001459063549948,0.701
-0.03228440910269055,0.702
-0.03141271876366186,0.703
-0.026290741430254682,0.704
-0.016896071453549166,0.705
-0.004408973374432436,0.706
0.009046582509252447,0.707
0.02089148661003641,0.708
0.028763639149686753,0.709
0.031222340027083285,0.71
0.02811352144233281,0.711
0.02042141718379743,0.712
0.009814927262954834,0.713
-0.0018111267529783788,0.714
-0.01268913991056251,0.715
-0.021469178173003506,0.716
-0.027397785672671683,0.717
-0.030240568517045503,0.718
-0.029944431117982298,0.719
-0.02627828667256924,0.72
-0.01880620977273177,0.721
-0.00733280989461564,0.722
0.007475702353219685,0.723
0.02375481537639709,0.724
0.03862905560673443,0.725
0.04890614780280583,0.726
0.05204758713709353,0.727
0.046995866841908235,0.728
0.03448316114640392,0.729
0.016801291255471147,0.73
-0.0027063473350907364,0.731
-0.020277402625763045,0.732
-0.03251310900215735,0.733
-0.03723887450295811,0.734
-0.03412996615395137,0.735
-0.024788095034520296,0.736
-0.012249178685383432,0.737
-0.00011708615606096539,0.738
0.008461317581072355,0.739
0.011718105757711567,0.74
0.009728530490379111,0.741
0.004201048611980685,0.742
-0.002276511554113324,0.743
-0.007198996619124825,0.744
-0.008939573025809633,0.745
-0.007103488082957392,0.746
-0.0024215382387356797,0.747
0.0036405098083086324,0.748
0.009353101593633647,0.749
0.013145784263991754,0.75
0.013939412538257487,0.751
0.011370456683175238,0.752
0.005880155506949084,0.753
-0.001410407907008128,0.754
-0.009109415453085051,0.755
-0.016084438118876818,0.756
-0.021752161918733397,0.757
-0.025929556309092067,0.758
-0.028392733771858518,0.759
-0.028486741994658702,0.76
-0.02508755804310946,0.761
-0.01703711789017455,0.762
-0.003953860600959204,0.763
0.012967773017947186,0.764
0.03074917186797982,0.765
0.04535014649977762,0.766
0.053092683342137716,0.767
0.05208764636566341,0.768
0.04288705799999195,0.769
0.028040764099025874,0.77
0.010993877295966863,0.771
-0.004950237437926577,0.772
-0.017321394932965042,0.773
-0.02488853953370544,0.774
-0.027712675270067395,0.775
-0.0268296023471261,0.776
-0.023793890477727567,0.777
-0.02023495490469761,0.778
-0.017386064707247177,0.779
-0.01564272812561907,0.78
-0.014337607454784341,0.781
-0.011925104083943781,0.782
-0.006709301743283124,0.783
0.002134411101830203,0.784
0.013895797147406002,0.785
0.02639477193863479,0.786
0.03661513186321694,0.787
0.04164607930967871,0.788
0.0396655837582643,0.789
0.03053857737111237,0.79
0.015753318574366085,0.791
-0.0020979997601165623,0.792
-0.019956319703240615,0.793
-0.03492786554255802,0.794
-0.044812449445069645,0.795
-0.04837437692790731,0.796
-0.045342044709292324,0.797
-0.03630820665401389,0.798
-0.022688002219267554,0.799
-0.006651659447820975,0.8
0.00917013521113103,0.801
0.02220932731869578,0.802
0.03050865265109159,0.803
0.033122188550994566,0.804
0.030313097895812838,0.805
0.023477470374374233,0.806
0.014698322843005936,0.807
0.0060537218466564435,0.808
-0.0009755861757905792,0.809
-0.005749027596909043,0.81
-0.008366478042694846,0.811
-0.009373903718316498,0.812
-0.0094164688318271,0.813
-0.008954606839368202,0.814
-0.008132908972280759,0.815
-0.006838177383307677,0.816
-0.004900539059073145,0.817
-0.0023061866170862298,0.818
0.0007124962296907509,0.819
0.0037543559133354372,0.82
0.006421921380290869,0.821
0.008450310188987557,0.822
0.009704393757775084,0.823
0.01009529922085994,0.824
0.009564573507760476,0.825
0.008185550625264344,0.826
0.006248243689421664,0.827
0.004189912126001035,0.828
0.0023991493855004685,0.829
0.0010464104938567767,0.83
4.268471565946718e-05,0.831
-0.0008902106603705759,0.832
-0.0020879900718606768,0.833
-0.0038014261375657536,0.834
-0.006090921283067618,0.835
-0.008774095027313439,0.836
-0.011425058367640208,0.837
-0.013426164797962343,0.838
-0.014085373434803218,0.839
-0.012839323114070461,0.84
-0.009502275614121638,0.841
-0.004451498808977511,0.842
0.0013666151835429665,0.843
0.0066684330509357665,0.844
0.010222641792149807,0.845
0.011197798677996508,0.846
0.009292523270477486,0.847
0.004660641876232167,0.848
-0.0021442342268241225,0.849
-0.010081381067224133,0.85
-0.017585815485370273,0.851
-0.022770065875753653,0.852
-0.023798081207772846,0.853
-0.019327205644585465,0.854
-0.00901139718156974,0.855
0.006058721209387712,0.856
0.023315090985987802,0.857
0.03929676677922491,0.858
0.05064201605276114,0.859
0.054970732364197236,0.86
0.05131221595470481,0.861
0.04011637661839322,0.862
0.023047945458981624,0.863
0.002652269672714986,0.864
-0.018142408615901193,0.865
-0.0366135254634084,0.866
-0.0506862632917287,0.867
-0.05909280708148642,0.868
-0.06132537818696254,0.869
-0.05755197784133987,0.87
-0.04860657610619247,0.871
-0.0359634934384262,0.872
-0.021492285944958896,0.873
-0.006967452074752086,0.874
0.006462570364477048,0.875
0.018567670147111526,0.876
0.029846249373191084,0.877
0.04088881609473796,0.878
0.05170570574482529,0.879
0.061408715640416396,0.88
0.06832577503223364,0.881
0.07046447893576037,0.882
0.06619981906288007,0.883
0.05492649276896202,0.884
0.03735300643138328,0.885
0.015322157503739964,0.886
-0.008707181479956399,0.887
-0.03225324970974277,0.888
-0.05320566781506931,0.889
-0.06991300759894337,0.89
-0.0810981461966901,0.891
-0.08582916041643548,0.892
-0.0836325480336485,0.893
-0.07467772793466336,0.894
-0.059973920420253776,0.895
-0.0414331494698664,0.896
-0.021486137679174833,0.897
-0.0022541156353899704,0.898
0.015152035113295069,0.899
0.0306642380659374,0.9
0.044693327792419246,0.901
0.057431519016064615,0.902
0.06830866488804248,0.903
0.07576182625176255,0.904
0.07759093262817769,0.905
0.07188610108480813,0.906
0.058004556919566914,0.907
0.0370608741809993,0.908
0.011776879616704497,0.909
-0.014150954018996032,0.91
-0.0369099097361219,0.911
-0.05337387376638077,0.912
-0.06161106337805476,0.913
-0.06108504479420327,0.914
-0.052683307415918354,0.915
-0.0385480757418194,0.916
-0.021607714206544604,0.917
-0.004909879031457428,0.918
0.009041538812786569,0.919
0.018819337426941148,0.92
0.024272377559953248,0.921
0.026185388398669986,0.922
0.02559645781993395,0.923
0.023227980674509017,0.924
0.01927539041879001,0.925
0.0135627853107544,0.926
0.00597196097834561,0.927
-0.0030731658779384824,0.928
-0.012384153931223486,0.929
-0.02023179164910933,0.93
-0.024897110583737714,0.931
-0.025293036012973592,0.932
-0.02142957073583613,0.933
-0.014495618964504806,0.934
-0.006423171248090873,0.935
0.0008847195479512766,0.936
0.006239776087750074,0.937
0.00944651281718595,0.938
0.01110731059230375,0.939
0.012081316337456889,0.94
0.012887170759076841,0.941
0.013391459001020373,0.942
0.012888208440068279,0.943
0.01044134297299564,0.944
0.005385513352230763,0.945
-0.002123260568468058,0.946
-0.010782292909077187,0.947
-0.01835243665355005,0.948
-0.022393123057388335,0.949
-0.021160208232868814,0.95
-0.014293683754143128,0.951
-0.0030572328717371013,0.952
0.009983535913989334,0.953
0.021736995863431845,0.954
0.02949655771317031,0.955
0.03164812731792774,0.956
0.027990053705389685,0.957
0.01965871550290378,0.958
0.008721715110147467,0.959
-0.0024793757265485486,0.96
-0.012051300956576905,0.961
-0.019042296257904198,0.962
-0.02347476746613664,0.963
-0.025918350556212052,0.964
-0.02684403703750691,0.965
-0.02614900605331506,0.966
-0.023202522193017643,0.967
-0.017393712213881272,0.968
-0.00874669074607323,0.969
0.001804088268437655,0.97
0.012576516524403992,0.971
0.021647193506365275,0.972
0.027457949321524528,0.973
0.029187560453541244,0.974
0.026781789220490546,0.975
0.020855920872004295,0.976
0.01262904321511492,0.977
0.0037712288505529316,0.978
-0.003953283833101358,0.979
-0.009104733018086252,0.98
-0.010843185029194537,0.981
-0.009060502533043895,0.982
-0.0044542435064210805,0.983
0.0015176276877376914,0.984
0.00691720900716188,0.985
0.009825504629700901,0.986
0.008910343617963022,0.987
0.0038390862072896358,0.988
-0.0046442371207687915,0.989
-0.014964279394951827,0.99
-0.025108321167168036,0.991
-0.03301366610522331,0.992
-0.03690611578268783,0.993
-0.03557475105713106,0.994
-0.028576233393046067,0.995
-0.016426357722480345,0.996
-0.0007249822371592279,0.997
0.01602842161825367,0.998
0.03101013590042154,0.999
0.041751737189162016,1.0
0.04659914659754669,1.001
0.044964751525862094,1.002
0.037508995449524574,1.003
0.026074945424135593,1.004
0.013152308623927786,1.005
0.001097343421703246,1.006
-0.008446155288058855,1.007
-0.014746185729523,1.008
-0.017935211515145627,1.009
-0.01887152904420914,1.01
-0.018861795626567212,1.011
-0.01914081806971805,1.012
-0.02026189891590756,1.013
-0.021780398248541766,1.014
-0.022455282991002655,1.015
-0.020845785042082936,1.016
-0.016012056238272294,1.017
-0.008020098205914391,1.018
0.001958665606005025,1.019
0.011969540710577943,1.02
0.019891338699276728,1.021
0.02415417579062905,1.022
0.024277921422614476,1.023
0.0209395410444442,1.024
0.015531297621207175,1.025
0.00954828226803223,1.026
0.004157161086511128,1.027
-4.191761966864161e-05,1.028
-0.0031206962771063757,1.029
-0.0056417437535923095,1.03
-0.00815308256816137,1.031
-0.010687277902114616,1.032
-0.012611841038040318,1.033
-0.012895042288393867,1.034
-0.010633500818766845,1.035
-0.005581516634611098,1.036
0.0015639926769319087,1.037
0.009252865636086327,1.038
0.015542225508789722,1.039
0.018760587328741786,1.04
0.018088838275106617,1.041
0.013789702153556684,1.042
0.006981177421997967,1.043
-0.0008654191171175474,1.044
-0.008387293067892198,1.045
-0.014580384216741507,1.046
-0.018828591833107748,1.047
-0.02077235715319069,1.048
-0.020154518366868646,1.049
-0.016838905048816768,1.05
-0.011030056920181728,1.051
-0.0034640076660039116,1.052
0.004606703261906761,1.053
0.011631260550293338,1.054
0.016175607312287253,1.055
0.017444399453490994,1.056
0.015587911028406856,1.057
0.01152490025088286,1.058
0.0064387258839951975,1.059
0.001343450268668591,1.06
-0.0030802616860674883,1.061
-0.006427429602309789,1.062
-0.008431320199018238,1.063
-0.008910277102623154,1.064
-0.007867464664531355,1.065
-0.005625898921815708,1.066
-0.0028204413148853794,1.067
-0.000197988251852342,1.068
0.001669577919583938,1.069
0.0025990115880044893,1.07
0.002787200180790998,1.071
0.002551234576494699,1.072
0.002027519242564145,1.073
0.0011201722165240385,1.074
-0.0002618535680723674,1.075
-0.0019308186186339513,1.076
-0.0033734158277203405,1.077
-0.003971523000023851,1.078
-0.0032949080312294566,1.079
-0.0012452439785589709,1.08
0.0019592197379246605,1.081
0.0058482158521888875,1.082
0.00979166248181631,1.083
0.013131996496683297,1.084
0.015285881828949638,1.085
0.01577455459658113,1.086
0.014299764070028495,1.087
0.01093964809695734,1.088
0.006293703498426111,1.089
0.001372828868047515,1.09
-0.0027339297520416524,1.091
-0.005221086694878198,1.092
-0.005801432608951193,1.093
-0.004774537522794799,1.094
-0.0029699273716537133,1.095
-0.0015825051015407956,1.096
-0.0018856752102094836,1.097
-0.004884042701241699,1.098
-0.011022907663630682,1.099
-0.01999936981388887,1.1
-0.0306582437745031,1.101
-0.04101249201499005,1.102
-0.04846342987126577,1.103
-0.050267630195987276,1.104
-0.04429188613334746,1.105
-0.0299258913043432,1.106
-0.008684132788974794,1.107
0.015946147008856763,1.108
0.03936038464589491,1.109
0.05703894088261163,1.11
0.06580140403245298,1.111
0.06473934645573343,1.112
0.05535986639001167,1.113
0.040845996269001254,1.114
0.024850834753421112,1.115
0.010405708379120289,1.116
-0.0006417351967616375,1.117
-0.007633838904532087,1.118
-0.010831152103007368,1.119
-0.011082675678547276,1.12
-0.00952145740423221,1.121
-0.007313435489746019,1.122
-0.00544363918979074,1.123
-0.004563266581394989,1.124
-0.004940651644542081,1.125
-0.006501648772955463,1.126
-0.0089372988338674,1.127
-0.011846554996116478,1.128
-0.014833531275452642,1.129
-0.017500207613991382,1.13
-0.019371500023544222,1.131
-0.019867822592770364,1.132
-0.0184372203744475,1.133
-0.014849129094393487,1.134
-0.009493284344888485,1.135
-0.0034789261131925628,1.136
0.001579799154440298,1.137
0.004081888200256053,1.138
0.0031044732843478156,1.139
-0.0010402391079331588,1.14
-0.006601510713236545,1.141
-0.010776183070695212,1.142
-0.010750990060126728,1.143
-0.0049808305580614,1.144
0.00599438634061911,1.145
0.019590274990899628,1.146
0.03204154231135794,1.147
0.03976448527302676,1.148
0.04063113891175477,1.149
0.034565023230705524,1.15
0.023294781400663128,1.151
0.0095599958985448,1.152
-0.0038109290332076105,1.153
-0.014634374628997799,1.154
-0.02174260832353183,1.155
-0.02496957851653282,1.156
-0.024849974049902912,1.157
-0.02220928495211337,1.158
-0.017844982446386378,1.159
-0.012397214046937116,1.16
-0.006366979549948107,1.161
-0.00018174506975611888,1.162
0.005752536608931103,1.163
0.010995406485518092,1.164
0.015004889213360554,1.165
0.017148081915131428,1.166
0.016879382697356674,1.167
0.014028901793912005,1.168
0.009034804469786377,1.169
0.002959262390404099,1.17
-0.0028105159001776056,1.171
-0.007071115835583286,1.172
-0.009216237933751495,1.173
-0.009348613515436916,1.174
-0.008120439638486186,1.175
-0.006422289047799188,1.176
-0.005046777248925972,1.177
-0.0044645884662978955,1.178
-0.004764171587441601,1.179
-0.0056775269976865736,1.18
-0.0066653906477386,1.181
-0.007115406875400247,1.182
-0.0065880583750150675,1.183
-0.004979365605219127,1.184
-0.00256768618486564,1.185
5.085470241344326e-05,1.186
0.002133473368660414,1.187
0.0030480804679961964,1.188
0.002590995141696642,1.189
0.0012247072821515964,1.19
-1.3085200191821912e-05,1.191
9.865220399797498e-06,1.192
0.0019561654828701494,1.193
0.005755428060935544,1.194
0.010700824870557858,1.195
0.01571132771957285,1.196
0.01962184701770227,1.197
0.02146146982779435,1.198
0.020694437723177743,1.199
0.017358555259187173,1.2
0.012008043845120307,1.201
0.00547243450587169,1.202
-0.001439425033561082,1.203
-0.008176494429021179,1.204
-0.014556561353604912,1.205
-0.020699941711187914,1.206
-0.02677781161058623,1.207
-0.032654889096752716,1.208
-0.037589458870506104,1.209
-0.040191492120091,1.21
-0.038782322021731146,1.211
-0.03206876117827874,1.212
-0.019797237719742004,1.213
-0.00306290400316789,1.214
0.0158345014843096,1.215
0.033890233908409846,1.216
0.04806242775914727,1.217
0.0559524192767334,1.218
0.05638086784172315,1.219
0.04967481554747165,1.22
0.03748472178858841,1.221
0.022214464787633177,1.222
0.006374611579815293,1.223
-0.00788757975143264,1.224
-0.019015342470623014,1.225
-0.02613017177500139,1.226
-0.02907609956750966,1.227
-0.028370639928175366,1.228
-0.02502140718149892,1.229
-0.020258306064431176,1.23
-0.0152325140035942,1.231
-0.010749016850993137,1.232
-0.007127794186431499,1.233
-0.0042405368707690615,1.234
-0.001686076710165156,1.235
0.0009690642426734987,1.236
0.003973731240287071,1.237
0.0072972908166050445,1.238
0.010673136151697573,1.239
0.013693439282566172,1.24
0.015879904854535616,1.241
0.01672787858343892,1.242
0.01576792103240494,1.243
0.012670400878341054,1.244
0.007361217417885013,1.245
0.00011963989361511626,1.246
-0.00833676800189096,1.247
-0.016829870453875205,1.248
-0.023886431678628337,1.249
-0.028105514068537667,1.25
-0.028537835052527813,1.251
-0.024910893346749646,1.252
-0.017707200186632882,1.253
-0.008106206525494644,1.254
0.0022872868628651855,1.255
0.011880834978731887,1.256
0.01943686766736224,1.257
0.024166739631278845,1.258
0.025725210018589576,1.259
0.024241770985462482,1.26
0.02030174147797911,1.261
0.014805549034653226,1.262
0.00875534147269966,1.263
0.0030078474511929945,1.264
-0.0019051608856616704,1.265
-0.005742921784346152,1.266
-0.008378310969342505,1.267
-0.009689819294474131,1.268
-0.00960058445306044,1.269
-0.008193759416009593,1.27
-0.00579100588551981,1.271
-0.0029120830299381537,1.272
-0.0001242408617771085,1.273
0.0021134062333863423,1.274
0.0035138418359100276,1.275
0.0039560312409339885,1.276
0.0034762929744945213,1.277
0.0022382424163267353,1.278
0.0004232966520662991,1.279
-0.0019137603172331961,1.28
-0.004884261769852519,1.281
-0.008614339294692677,1.282
-0.012961021434089585,1.283
-0.017256560544056148,1.284
-0.020261879390947916,1.285
-0.020449292345430643,1.286
-0.016600923717054367,1.287
-0.008510352993582286,1.288
0.0026133465396699436,1.289
0.014391999712677891,1.29
0.024157470222747984,1.291
0.02996881104330247,1.292
0.031122612241655502,1.293
0.027993726062196467,1.294
0.021624383522863652,1.295
0.013414450082812274,1.296
0.004877139160872814,1.297
-0.0026397045252061625,1.298
-0.008212795457824754,1.299
-0.011481941601521667,1.3
-0.012628673425692015,1.301
-0.012216762861110604,1.302
-0.010965715923006866,1.303
-0.009548074264204528,1.304
-0.008449412592276762,1.305
-0.00787858682231305,1.306
-0.007724271579961418,1.307
-0.007593094812390349,1.308
-0.006972513286938464,1.309
-0.005490670644467899,1.31
-0.003147998176806467,1.311
-0.00036068505394248597,1.312
0.0022429629731535003,1.313
0.004148095968821465,1.314
0.0052016562662136456,1.315
0.005654773124499554,1.316
0.00598271668668911,1.317
0.006584835393803053,1.318
0.0075306625114441045,1.319
0.008487719828983498,1.32
0.008876103298972107,1.321
0.008173998444118147,1.322
0.006209787903963358,1.323
0.0032551164739664127,1.324
-0.000156650340126499,1.325
-0.003526897969053701,1.326
-0.006557992902951038,1.327
-0.009105221693319164,1.328
-0.01101313139809295,1.329
-0.011989115844629116,1.33
-0.01160767344997917,1.331
-0.009458073214984533,1.332
-0.005375856260296048,1.333
0.00034885717279267936,1.334
0.006871154557357728,1.335
0.012889489334385558,1.336
0.017014621357523792,1.337
0.018269507586223598,1.338
0.016423435174324732,1.339
0.011985158717628609,1.34
0.005884973028723965,1.341
-0.0009504659998840696,1.342
-0.00785107808077784,1.343
-0.014350564403883017,1.344
-0.019930368429109283,1.345
-0.023799524960013536,1.346
-0.024937881444496376,1.347
-0.022443209883179025,1.348
-0.016002884063946444,1.349
-0.006252503378635763,1.35
0.005149515921105744,1.351
0.015816873637898746,1.352
0.023267241748711934,1.353
0.02566145563763621,1.354
0.022322836945333897,1.355
0.013895297744880885,1.356
0.002223975106242948,1.357
-0.009981819526577873,1.358
-0.019743999647662824,1.359
-0.024577809698335853,1.36
-0.02313382561228019,1.361
-0.015528201782034585,1.362
-0.0033633534600324795,1.363
0.010585272484050837,1.364
0.023077792170763705,1.365
0.03135744637106913,1.366
0.03393833416187516,1.367
0.030885824398883033,1.368
0.023533496046771234,1.369
0.01388360970020657,1.37
0.004002895402223625,1.371
-0.004452324305547719,1.372
-0.010529416119086657,1.373
-0.01401571305437689,1.374
-0.015230115328362714,1.375
-0.014708002268032126,1.376
-0.012970136389602486,1.377
-0.01048784237410559,1.378
-0.007785746050686199,1.379
-0.0055246013499653255,1.38
-0.00442152536141773,1.381
-0.004961233152695632,1.382
-0.007046527728795204,1.383
-0.009880051258533166,1.384
-0.012223984318802438,1.385
-0.012892785804686698,1.386
-0.011223031233527143,1.387
-0.007333930432313528,1.388
-0.002067798193998318,1.389
0.003404099892650645,1.39
0.008088480739368931,1.391
0.011414324051057587,1.392
0.013128093632044124,1.393
0.01314991587544659,1.394
0.011588449448645503,1.395
0.008768478298234425,1.396
0.005160983756273004,1.397
0.0013140373700529426,1.398
-0.002163283358881786,1.399
-0.004654290576639884,1.4
-0.005695690543058015,1.401
-0.005183040512701164,1.402
-0.0034445392165192135,1.403
-0.0010693447693075086,1.404
0.0014042924113141857,1.405
0.0037276891188088176,1.406
0.005966805810971698,1.407
0.008313096411474583,1.408
0.010798771332087953,1.409
0.013065267967390255,1.41
0.0143119263992259,1.411
0.013506918994442264,1.412
0.009807755792378026,1.413
0.002964974782898431,1.414
-0.0064953150956042136,1.415
-0.01729785329591779,1.416
-0.027567830742215915,1.417
-0.035122711663255736,1.418
-0.03792794045868555,1.419
-0.034614941762317594,1.42
-0.024905412282239622,1.421
-0.009853551224327727,1.422
0.008168245208763409,1.423
0.025868088415362693,1.424
0.039820611611037636,1.425
0.04739316708711349,1.426
0.047437941990889694,1.427
0.04047096419872362,1.428
0.028331997926584064,1.429
0.013520032543117845,1.43
-0.0015284940426298337,1.431
-0.014925530525158853,1.432
-0.025460351010703562,1.433
-0.03249505373433064,1.434
-0.035787820918595815,1.435
-0.03534902311350463,1.436
-0.03140342226165954,1.437
-0.024460653477492704,1.438
-0.015388892912429604,1.439
-0.0053580407451963895,1.44
0.004345487000422369,1.441
0.012523847762154618,1.442
0.018257834924823343,1.443
0.021071622732698726,1.444
0.02100578145442595,1.445
0.01857601723376207,1.446
0.014651464368750991,1.447
0.01027463668208736,1.448
0.006416565064379451,1.449
0.0036946187851018336,1.45
0.002198626775341313,1.451
0.0015656801761614885,1.452
0.0012418827113206607,1.453
0.0007278322388096906,1.454
-0.0003217009483184855,1.455
-0.0021115867596009285,1.456
-0.004726901140687227,1.457
-0.008094207028877153,1.458
-0.011895587910330548,1.459
-0.01551471111090081,1.46
-0.018114625812488367,1.461
-0.018873089169155782,1.462
-0.017283082761641186,1.463
-0.013364923226829665,1.464
-0.007673793071212402,1.465
-0.0011042872729371115,1.466
0.005393901637690713,1.467
0.011059829412298133,1.468
0.015456865759943256,1.469
0.01847106321578847,1.47
0.020171577828001937,1.471
0.02060895848220766,1.472
0.019691872652555013,1.473
0.017249367018059472,1.474
0.013249630347205709,1.475
0.007999771332281424,1.476
0.002144602069731832,1.477
-0.0035296978206541428,1.478
-0.008320489810169845,1.479
-0.011756431078693815,1.48
-0.013673290906010847,1.481
-0.014229697002595095,1.482
-0.013849497020831292,1.483
-0.013079510458720012,1.484
-0.012377200665008307,1.485
-0.011896922876857015,1.486
-0.011394193495251994,1.487
-0.010320868596303689,1.488
-0.00806974239376076,1.489
-0.004271101756651067,1.49
0.0009706683482823381,1.491
0.007015763818079086,1.492
0.012834987953148587,1.493
0.017306729872266776,1.494
0.019600018247816195,1.495
0.019477900536417885,1.496
0.01730040177568184,1.497
0.01376556897264925,1.498
0.009631061991702806,1.499
0.005540987669168929,1.5
0.0019359483531550016,1.501
-0.0010036295026650303,1.502
-0.0033823771451183975,1.503
-0.005532450326795695,1.504
-0.00787241865612459,1.505
-0.010749014298217069,1.506
-0.014300673239362151,1.507
-0.018335699746717254,1.508
-0.02223310502089776,1.509
-0.02495601807777185,1.51
-0.025305659886094685,1.511
-0.02237227973820326,1.512
-0.015928585313339114,1.513
-0.0065622768462186756,1.514
0.004448010536397452,1.515
0.015391320103573183,1.516
0.024417409392994593,1.517
0.02986650544942195,1.518
0.03068720453976406,1.519
0.026855785260266836,1.52
0.019511027678124432,1.521
0.01061713520096041,1.522
0.002341865870705272,1.523
-0.0035116008438652218,1.524
-0.005884681384084722,1.525
-0.004677483266033334,1.526
-0.0007582561445484364,1.527
0.004310143052921923,1.528
0.00876816449270181,1.529
0.011172478069090767,1.53
0.010757995261294114,1.531
0.007589704443449583,1.532
0.0024483405788261977,1.533
-0.003541749562078307,1.534
-0.009354840750829915,1.535
-0.014324806944000535,1.536
-0.018136411333738695,1.537
-0.020665516892927966,1.538
-0.021819766328794312,1.539
-0.021455705895212274,1.54
-0.01939916860290944,1.541
-0.015544783497484747,1.542
-0.00999131273303003,1.543
-0.0031864853342526886,1.544
0.004010008403603179,1.545
0.010477525202659996,1.546
0.015165367388045388,1.547
0.017380143485531765,1.548
0.01689098157428203,1.549
0.013929668337816978,1.55
0.009145114556836219,1.551
0.0034517784383032947,1.552
-0.0021964529216213545,1.553
-0.006964444973492302,1.554
-0.010173818479813686,1.555
-0.011305690736550468,1.556
-0.010069475265579044,1.557
-0.0065359501076498044,1.558
-0.0012380135760864876,1.559
0.004850230626001243,1.56
0.01048862442750511,1.561
0.014475312543205431,1.562
0.015986047420216396,1.563
0.014819638762969054,1.564
0.011447628988582625,1.565
0.006829314955520746,1.566
0.002081460971044605,1.567
-0.0018325423379588494,1.568
-0.004313103575875104,1.569
-0.005209244184973696,1.57
-0.00476964722836583,1.571
-0.00352687642653316,1.572
-0.0021559773106370034,1.573
-0.0012670668881885588,1.574
-0.0011734525984211817,1.575
-0.001789609016087737,1.576
-0.0027312616777351545,1.577
-0.0035226586059395005,1.578
-0.003778904078827007,1.579
-0.0033120444297205297,1.58
-0.0021605513017588546,1.581
-0.0005478594937189599,1.582
0.0011912893978272224,1.583
0.002674009764737274,1.584
0.0035310516448665524,1.585
0.0034744848629461216,1.586
0.0023502515142105962,1.587
0.000182430698164266,1.588
-0.0028013135300642717,1.589
-0.006212341847999882,1.59
-0.009590753186535454,1.591
-0.012478148248105348,1.592
-0.01446622895468321,1.593
-0.015226679296453357,1.594
-0.01451350385943227,1.595
-0.012168142831316096,1.596
-0.008169125211399626,1.597
-0.0027019051299293296,1.598
0.003826926466499584,1.599
0.010841567606110037,1.6
0.017619639882381518,1.601
0.023274041291635666,1.602
0.02683729414618839,1.603
0.027480826191574055,1.604
0.024738410279449115,1.605
0.01868251801276914,1.606
0.010057756250124507,1.607
0.0002550363699219366,1.608
-0.008994811973695465,1.609
-0.016109144440460414,1.61
-0.020066604101553063,1.611
-0.020583011335845038,1.612
-0.018060460000200916,1.613
-0.013387965910650158,1.614
-0.007667056662570039,1.615
-0.0019279593675479232,1.616
0.0030785179810529943,1.617
0.00692634964989997,1.618
0.009417077235819077,1.619
0.010486392572455285,1.62
0.010232572012998974,1.621
0.009003851314713481,1.622
0.007352525954361215,1.623
0.005807683567200753,1.624
0.0046368472394925555,1.625
0.0037371210435042743,1.626
0.0026757789258486067,1.627
0.0008702172383625407,1.628
-0.0021339217609266828,1.629
-0.006384096594339332,1.63
-0.01137367219021936,1.631
-0.016128477100625843,1.632
-0.019505659272466058,1.633
-0.020567703769672274,1.634
-0.018895617690595123,1.635
-0.014751856297645439,1.636
-0.009022572043691127,1.637
-0.002912618950196035,1.638
0.002511285095657321,1.639
0.006688610573403629,1.64
0.009622514804644844,1.641
0.011635061737121892,1.642
0.013021188473352924,1.643
0.013822294121469377,1.644
0.013846932150235967,1.645
0.01288913568363668,1.646
0.010946741122167567,1.647
0.008261065582854466,1.648
0.005177171085348452,1.649
0.0019950510090775294,1.65
-0.0010500590459231543,1.651
-0.003719737432203389,1.652
-0.005736336726122003,1.653
-0.006829324919681592,1.654
-0.006851204252976313,1.655
-0.005897622171243204,1.656
-0.004314935463776114,1.657
-0.002550724001935394,1.658
-0.0009574220253033344,1.659
0.0002924424728931664,1.66
0.0011580451707676313,1.661
0.001670885158983482,1.662
0.0019194004082616143,1.663
0.002004153955185052,1.664
0.0019496856077574553,1.665
0.0016824559380413627,1.666
0.0011190730289792894,1.667
0.000271722861916996,1.668
-0.0007131406748389731,1.669
-0.001592690602800011,1.67
-0.00211950856201896,1.671
-0.0021456964492052952,1.672
-0.0016807478463290214,1.673
-0.0008669122440107101,1.674
9.832930657717664e-05,1.675
0.0010316644417674209,1.676
0.0017925483997100688,1.677
0.002271289016160287,1.678
0.002360036434346311,1.679
0.0019468278394558962,1.68
0.0009563007288180276,1.681
-0.0005861732248301542,1.682
-0.0025089782015906004,1.683
-0.004484128421695453,1.684
-0.00605429765932009,1.685
-0.00671704245808545,1.686
-0.006083211086398482,1.687
-0.004063391166122254,1.688
-0.0009769999819743368,1.689
0.0024939711143954664,1.69
0.005486271236907008,1.691
0.007198649352905911,1.692
0.007137905458525365,1.693
0.0052950182325633595,1.694
0.0021815198459226182,1.695
-0.001295339065191893,1.696
-0.004098906844428773,1.697
-0.005389766144116066,1.698
-0.00481174905828439,1.699
-0.002668726601936044,1.7
9.617141005681184e-05,1.701
0.002201467070038042,1.702
0.002572908772373522,1.703
0.0009009207196299825,1.704
-0.0021681742590725396,1.705
-0.00538689538820127,1.706
-0.007514094293570595,1.707
-0.00773966174787239,1.708
-0.005824601622315099,1.709
-0.002092624649591369,1.71
0.0026779825567715405,1.711
0.007490946974788813,1.712
0.011436103625216538,1.713
0.013916343329326349,1.714
0.014720232651519725,1.715
0.01398872225443797,1.716
0.012120449591962509,1.717
0.009596137834355577,1.718
0.00677404435699079,1.719
0.0037972055045526337,1.72
0.0006729925144555603,1.721
-0.0025662029182071475,1.722
-0.005759676862085005,1.723
-0.008622141406255826,1.724
-0.010824445913270616,1.725
-0.01211569350842571,1.726
-0.01243418837895498,1.727
-0.011935107101366076,1.728
-0.010903876129129962,1.729
-0.009622735145443298,1.73
-0.008293861758870955,1.731
-0.007039059325901845,1.732
-0.005927987951024973,1.733
-0.004992883880573944,1.734
-0.004210399630907397,1.735
-0.0034489967687827607,1.736
-0.002422031761066458,1.737
-0.0007358001076976956,1.738
0.0019300873014671865,1.739
0.005603662862309732,1.74
0.009902068993584357,1.741
0.014091347407102479,1.742
0.017303268929749562,1.743
0.018808271837849194,1.744
0.018249721212064255,1.745
0.01576400642685231,1.746
0.011916940257249016,1.747
0.0074883487274756315,1.748
0.0032277247532650002,1.749
-0.0003334738874580359,1.75
-0.0029760860389172476,1.751
-0.004779899332549934,1.752
-0.006029173541283615,1.753
-0.007079543569914432,1.754
-0.008221122525651848,1.755
-0.009575411984837474,1.756
-0.01104807279532256,1.757
-0.01233516584904484,1.758
-0.012992013662823175,1.759
-0.012578996056403068,1.76
-0.010847597691637971,1.761
-0.007871868990365434,1.762
-0.004051845769147181,1.763
1.1203038269831488e-05,1.764
0.003726396830296653,1.765
0.00670670054126219,1.766
0.008814629011383808,1.767
0.010059849874578903,1.768
0.010443299536791961,1.769
0.009833586066294428,1.77
0.007973388428632894,1.771
0.0046776165203753104,1.772
0.00014902634935898788,1.773
-0.004815579717093576,1.774
-0.00897207559424699,1.775
-0.011120301223607834,1.776
-0.010628867478360145,1.777
-0.0076711081746222536,1.778
-0.0031010471271802204,1.779
0.0018644475833683198,1.78
0.005989973831010599,1.781
0.008370624901439862,1.782
0.00872575381235104,1.783
0.0074322990590628525,1.784
0.0052448839101590225,1.785
0.0029320020254961507,1.786
0.00103242033956756,1.787
-0.00023199593784870194,1.788
-0.0008959199454960162,1.789
-0.0010892300144069813,1.79
-0.000886588878571509,1.791
-0.000272864468287936,1.792
0.0007720714596233503,1.793
0.0021809679912203235,1.794
0.0037808037387242815,1.795
0.005312215158068219,1.796
0.006445911880081272,1.797
0.006829418650462148,1.798
0.0061951280928599665,1.799
0.004459530667713026,1.8
0.0017256898108043497,1.801
-0.00176696507054649,1.802
-0.005653213020929146,1.803
-0.009430743892574318,1.804
-0.012510566935757006,1.805
-0.014339360020243287,1.806
-0.014524091058296572,1.807
-0.012912952425116118,1.808
-0.009640769742671475,1.809
-0.005139190076262945,1.81
-8.432949226135791e-05,1.811
0.004717260961555085,1.812
0.008465163880230562,1.813
0.010504866276607135,1.814
0.010461318725823138,1.815
0.008311539729012633,1.816
0.0043611679971011915,1.817
-0.0008158874281832707,1.818
-0.006409451033907755,1.819
-0.011405432298148449,1.82
-0.014699222966196997,1.821
-0.015316455009653089,1.822
-0.012687861277668884,1.823
-0.006885469529710817,1.824
0.0012878606054566016,1.825
0.010421212877156437,1.826
0.018792708341483964,1.827
0.024755065391005377,1.828
0.02715654423156805,1.829
0.025697301862286064,1.83
0.021007649915783442,1.831
0.014339001056873123,1.832
0.007061721212896078,1.833
0.0002581562435936165,1.834
-0.005469578754584953,1.835
-0.00998829495552787,1.836
-0.013475887107802868,1.837
-0.016193001089239684,1.838
-0.018255529739747492,1.839
-0.01949258704025473,1.84
-0.01946765103094126,1.841
-0.017671040022654357,1.842
-0.013804367941002258,1.843
-0.008036785821536501,1.844
-0.001127050912599518,1.845
0.005655749647609961,1.846
0.010819940227886269,1.847
0.013082481523952421,1.848
0.011814827812612679,1.849
0.0073533395202368896,1.85
0.0010278854742371737,1.851
-0.005195307441658709,1.852
-0.00937789879412327,1.853
-0.01028833735046849,1.854
-0.007787238400007313,1.855
-0.002799823657671507,1.856
0.003061347265875585,1.857
0.0080826315800452,1.858
0.011035857811424037,1.859
0.011530955857274072,1.86
0.010005192111455627,1.861
0.007413677208961445,1.862
0.0048145803576931726,1.863
0.003009937440061456,1.864
0.0023361011722623916,1.865
0.002647043061663145,1.866
0.003445486658009043,1.867
0.004079753567052628,1.868
0.003984410626313198,1.869
0.0029340331667736383,1.87
0.001148909051538914,1.871
-0.0008754853191253358,1.872
-0.0026770570043330322,1.873
-0.004019547570713752,1.874
-0.004882560061447511,1.875
-0.005334230858969095,1.876
-0.005413339569554179,1.877
-0.005097264995679668,1.878
-0.0043319953706216115,1.879
-0.0030774206988643535,1.88
-0.0013691644265940944,1.881
0.000614283562230913,1.882
0.0025171613318210246,1.883
0.0038288225793768524,1.884
0.0039867248746909,1.885
0.0025522525488011196,1.886
-0.0006140449559979468,1.887
-0.005228813624017814,1.888
-0.010523636735589226,1.889
-0.015307108201824791,1.89
-0.018242841912746024,1.891
-0.01830647672078841,1.892
-0.015186722261607801,1.893
-0.009401865218948206,1.894
-0.002124225725462448,1.895
0.005168253735601226,1.896
0.011104261511615575,1.897
0.014795490265838087,1.898
0.016082891162698974,1.899
0.015547979813181614,1.9
0.014214792230803169,1.901
0.013052880777241468,1.902
0.012560893197372625,1.903
0.012627701492402997,1.904
0.012668993380328706,1.905
0.01192463491480602,1.906
0.009765473655254946,1.907
0.005895880859288909,1.908
0.000438042442992311,1.909
-0.006076910970815389,1.91
-0.012798017305127642,1.911
-0.018691391831331547,1.912
-0.022709359070152434,1.913
-0.02399899883562566,1.914
-0.022115701989493038,1.915
-0.017182846686810523,1.916
-0.009941230334491851,1.917
-0.0016372860369528112,1.918
0.0062523756372490765,1.919
0.012390665361388765,1.92
0.015934215712777294,1.921
0.01673074260781024,1.922
0.015238032812047827,1.923
0.012218431824752102,1.924
0.008427466187038461,1.925
0.004459590560795461,1.926
0.0007459702426697238,1.927
-0.002400166403143604,1.928
-0.004769178308947597,1.929
-0.006266405275272388,1.93
-0.006906532493405515,1.931
-0.006770232362636076,1.932
-0.0059539454979747235,1.933
-0.004558883600611914,1.934
-0.0027170595797182044,1.935
-0.0006318292099112475,1.936
0.0013823008050290145,1.937
0.002909508167928987,1.938
0.003530166053026318,1.939
0.0029609824292351236,1.94
0.0011738867004546254,1.941
-0.0015359739463156937,1.942
-0.004568034776930171,1.943
-0.0071464207211161404,1.944
-0.008530393869456029,1.945
-0.008221089606878484,1.946
-0.006083177691824615,1.947
-0.00236491298620854,1.948
0.002346432266193585,1.949
0.007220773782512022,1.95
0.011356181876308732,1.951
0.014008215578569017,1.952
0.014778148291844304,1.953
0.01366297116702441,1.954
0.010984240224350336,1.955
0.007286643787557283,1.956
0.0032550129514331877,1.957
-0.00038497903310112685,1.958
-0.0030422942823350794,1.959
-0.004472605947059036,1.96
-0.004889880046951639,1.961
-0.004906363343098146,1.962
-0.0053329663591840945,1.963
-0.006896991295189294,1.964
-0.009952372276780032,1.965
-0.014259586107932338,1.966
-0.018909642334999675,1.967
-0.022501329679975982,1.968
-0.023603440078491578,1.969
-0.02128754481253933,1.97
-0.015433467477964523,1.971
-0.0067337946701360035,1.972
0.003511728881903424,1.973
0.013720449176972904,1.974
0.022373531650515723,1.975
0.028328402661254273,1.976
0.031046092312250282,1.977
0.03062406177939746,1.978
0.027614645849895713,1.979
0.022772670800981193,1.98
0.01685746091118767,1.981
0.010497824783968011,1.982
0.0041435933251827445,1.983
-0.0018544165020061847,1.984
-0.007135423766141781,1.985
-0.011336106623552045,1.986
-0.0141868112267035,1.987
-0.015577174426999517,1.988
-0.015565840073448637,1.989
-0.014366563333813793,1.99
-0.012317154543206763,1.991
-0.00982718855580367,1.992
-0.007307700729309787,1.993
-0.0050991148382340075,1.994
-0.00341391248517716,1.995
-0.0023063291448563402,1.996
-0.0016891923772277336,1.997
-0.0013989109322170197,1.998
-0.0012775268173065187,1.999
-0.0012314152905149262,2.0
-0.0012304547922543112,2.001
-0.001241578661640052,2.002
-0.0011571406486357593,2.003
-0.0008051258338270585,2.004
-4.43841204243419e-05,2.005
0.0011460433818131924,2.006
0.0026463034688345996,2.007
0.004229479071743489,2.008
0.005622554574927038,2.009
0.00657739403402133,2.01
0.006934028805626319,2.011
0.006654337205439663,2.012
0.005810275459941338,2.013
0.004553695146654573,2.014
0.0031036081960424153,2.015
0.0017335920516509714,2.016
0.000720011687953218,2.017
0.0002631293854463769,2.018
0.00043744018838030543,2.019
0.0011818379321186117,2.02
0.002293978495633265,2.021
0.0034331902973894317,2.022
0.004181642146196256,2.023
0.004183417589089442,2.024
0.003298879121548477,2.025
0.0016662749415975074,2.026
-0.00038573355436363565,2.027
-0.002512323325502649,2.028
-0.0044957569987359855,2.029
-0.006311666499682619,2.03
-0.008137690561900715,2.031
-0.010290318740966909,2.032
-0.013038566705461056,2.033
-0.016326878048507205,2.034
-0.019580684338562457,2.035
-0.021757300076220003,2.036
-0.02163222926893622,2.037
-0.018189115158912535,2.038
-0.011003326567601508,2.039
-0.0005296117222183896,2.04
0.011831005209130056,2.041
0.02396477903837841,2.042
0.03355301870632487,2.043
0.03872520395447381,2.044
0.03861536916594341,2.045
0.033581257707237834,2.046
0.02501094247355949,2.047
0.014833950207795004,2.048
0.004951836021912479,2.049
-0.0032252856924423665,2.05
-0.009017373209330944,2.051
-0.012444689591513396,2.052
-0.014003017620922884,2.053
-0.014376243394719244,2.054
-0.014182369182668214,2.055
-0.013818441861086135,2.056
-0.013436646386126532,2.057
-0.013014877200913304,2.058
-0.01245266898722197,2.059
-0.01165173445809096,2.06
-0.01056376290761195,2.061
-0.0091966278683185,2.062
-0.007584116354579485,2.063
-0.005732359184090211,2.064
-0.0035947003707254587,2.065
-0.0011263285369297372,2.066
0.001638217578816896,2.067
0.004568348315473964,2.068
0.007467623112495798,2.069
0.010100322735429606,2.07
0.012210930799904629,2.071
0.013564830178636881,2.072
0.014008464142329551,2.073
0.013511387742030053,2.074
0.012157978714640751,2.075
0.010081963757619297,2.076
0.007391165972427603,2.077
0.004172377881798628,2.078
0.0006059406855843007,2.079
-0.002926923855182145,2.08
-0.005906377630881571,2.081
-0.007886572722252334,2.082
-0.008672410068169017,2.083
-0.00835346635270799,2.084
-0.0072344930843168224,2.085
-0.005728707793013355,2.086
-0.004254030276075683,2.087
-0.003157335284029708,2.088
-0.0026737924933378974,2.089
-0.0029067498869210194,2.09
-0.00380309305073333,2.091
-0.005124168283071603,2.092
-0.006455523386362907,2.093
-0.0073036173733058395,2.094
-0.0072511945198763805,2.095
-0.0060552790426900505,2.096
-0.0036400087048564806,2.097
-7.90843642129697e-05,2.098
0.0043587181827245604,2.099
0.009165851057351408,2.1
0.013649803543554207,2.101
0.017072936280717106,2.102
0.018800372759199307,2.103
0.01842102107508746,2.104
0.01584682309019336,2.105
0.011374285362591732,2.106
0.005671726109725904,2.107
-0.00033205550501231885,2.108
-0.0056639748174782,2.109
-0.009574949912298335,2.11
-0.011731134083484964,2.111
-0.012238081550419649,2.112
-0.01152649464018524,2.113
-0.010177246969761522,2.114
-0.00874095013942569,2.115
-0.007592390863531388,2.116
-0.006853999279976609,2.117
-0.006391234501431992,2.118
-0.005872193976880961,2.119
-0.0049001108473638415,2.12
-0.003185314260744214,2.121
-0.0006745466844920019,2.122
0.002418787335524729,2.123
0.005689897414264617,2.124
0.008663994755807744,2.125
0.010876291383917498,2.126
0.011913627698193366,2.127
0.011494587357599333,2.128
0.009590895654327474,2.129
0.006494936100173677,2.13
0.002764566695071245,2.131
-0.000927828471838347,2.132
-0.003967923209859893,2.133
-0.005933440054980734,2.134
-0.006653355268517689,2.135
-0.006203754389905321,2.136
-0.0048942490868278555,2.137
-0.0032374112137715846,2.138
-0.00183536559686014,2.139
-0.0011803737456270909,2.14
-0.001454628767100676,2.141
-0.0024439418554967644,2.142
-0.0036275231236319737,2.143
-0.004389821895780841,2.144
-0.004222064659333269,2.145
-0.0028386937610728417,2.146
-0.000241363898236501,2.147
0.0032445154650612693,2.148
0.0069969626886794934,2.149
0.010218777447054083,2.15
0.01214941564722172,2.151
0.012310554925126971,2.152
0.010659178279283813,2.153
0.0075544363874473774,2.154
0.00358618049106797,2.155
-0.0006053952032225992,2.156
-0.004445858862128553,2.157
-0.007488681476420296,2.158
-0.009446595944679217,2.159
-0.010196079159120615,2.16
-0.009755652090725668,2.161
-0.008253226674989303,2.162
-0.005905774242534245,2.163
-0.0030133619461653587,2.164
4.401900362380632e-05,2.165
0.002826102887471607,2.166
0.004903886209606289,2.167
0.005980015014210054,2.168
0.005984345068559004,2.169
0.005074745056576662,2.17
0.003550535754193851,2.171
0.00174434968592137,2.172
-4.947939760463675e-05,2.173
-0.0016005213595721055,2.174
-0.0027533216155098007,2.175
-0.0034584005052396955,2.176
-0.0038149652769091926,2.177
-0.00406026654630156,2.178
-0.004455671500464568,2.179
-0.005115048210018122,2.18
-0.005890628952277217,2.181
-0.006408318319917616,2.182
-0.0062461368005092355,2.183
-0.005141639486352381,2.184
-0.0030837300517412448,2.185
-0.0002489539680187402,2.186
0.003109247791707686,2.187
0.0067029420086760225,2.188
0.010187324304321507,2.189
0.013147698109092549,2.19
0.015134816206101348,2.191
0.015734615705223623,2.192
0.01466224052940479,2.193
0.0118688758561055,2.194
0.007602647811925831,2.195
0.002373744523469148,2.196
-0.003142365877372794,2.197
-0.008205529575163767,2.198
-0.012120805528373253,2.199
-0.014380457812545589,2.2
-0.014786878769250486,2.201
-0.013474214336335298,2.202
-0.010832156521940077,2.203
-0.007397536296658641,2.204
-0.003746900385687209,2.205
-0.0004014573885973925,2.206
0.002241469549897996,2.207
0.003949397970683235,2.208
0.004684890490739381,2.209
0.004618601120496723,2.21
0.00407394424132487,2.211
0.003409293529114967,2.212
0.002914527805516375,2.213
0.00275186742647248,2.214
0.0029383798771539264,2.215
0.003368928050497808,2.216
0.0038472490331761928,2.217
0.00411708773308789,2.218
0.003921428672125275,2.219
0.003085202299302375,2.22
0.0015964622882597387,2.221
-0.0003489453723273943,2.222
-0.002382668975670249,2.223
-0.004073002866803595,2.224
-0.005061110872906139,2.225
-0.005182785553565231,2.226
-0.004531690157082241,2.227
-0.0034251294093551126,2.228
-0.0022837775447826798,2.229
-0.0015043783037956943,2.23
-0.001390864557707212,2.231
-0.002116398938036697,2.232
-0.0036676480581323135,2.233
-0.005779597668442124,2.234
-0.007901703368642406,2.235
-0.009270728560693662,2.236
-0.009147958702667502,2.237
-0.00710701809772227,2.238
-0.0031769359888955844,2.239
0.0021839903175423546,2.24
0.008192365882632575,2.241
0.013880140059768318,2.242
0.018256083326984408,2.243
0.02048488364219541,2.244
0.020086655235824636,2.245
0.017102856697415014,2.246
0.0121303437526158,2.247
0.006159807265953313,2.248
0.0002649670813631298,2.249
-0.004704576317524987,2.25
-0.008282258584796396,2.251
-0.010360447871592108,2.252
-0.011065314361662545,2.253
-0.010639600512139288,2.254
-0.009372720920292418,2.255
-0.007566249917640787,2.256
-0.005526025530793738,2.257
-0.003558564769884662,2.258
-0.0019314775576837553,2.259
-0.0008023117633766808,2.26
-0.0001645547344532701,2.261
0.00015150539564798016,2.262
0.0004045511287072729,2.263
0.0008256731951520592,2.264
0.00152755137446131,2.265
0.0024652508377218958,2.266
0.003446383987988246,2.267
0.004192435184362912,2.268
0.004430222744841322,2.269
0.00397699622082728,2.27
0.0027942079766496595,2.271
0.0009953176633111496,2.272
-0.0011855341425895604,2.273
-0.0034387447453850927,2.274
-0.00543150230824256,2.275
-0.006867836743906669,2.276
-0.007545388263761946,2.277
-0.007397254664039617,2.278
-0.006499435348670128,2.279
-0.005027538368226366,2.28
-0.0031837577396008816,2.281
-0.0011392731091179695,2.282
0.000987631559570093,2.283
0.0031271856474831303,2.284
0.0052300805424523224,2.285
0.007213608714510192,2.286
0.00890843251049613,2.287
0.010048506922426568,2.288
0.010326920329705601,2.289
0.009508117279661074,2.29
0.007546767939383098,2.291
0.0046519956036628965,2.292
0.001269948269661244,2.293
-0.0020168998176597697,2.294
-0.004650204116014862,2.295
-0.006253797435780152,2.296
-0.0067243772827310705,2.297
-0.006223952603351963,2.298
-0.005087003218818361,2.299
-0.00368510601097427,2.3
-0.0023093158880496283,2.301
-0.0011292778452375587,2.302
-0.00022366844761246695,2.303
0.00038067155506520627,2.304
0.0006942361546686579,2.305
0.0007629170289872191,2.306
0.0006565406273045725,2.307
0.00042936469899394075,2.308
6.790803052433346e-05,2.309
-0.0005107099486010206,2.31
-0.0013766929428296025,2.311
-0.0024765765745343887,2.312
-0.00358322963725434,2.313
-0.00434677728757709,2.314
-0.0044098242694204795,2.315
-0.0035320342698137532,2.316
-0.0016886134613465925,2.317
0.0008943556853471786,2.318
0.003782965367384663,2.319
0.006436151413236262,2.32
0.00834393578637692,2.321
0.009169572495705984,2.322
0.008832384681945868,2.323
0.00749187022444385,2.324
0.005461216536791037,2.325
0.0031101387013533844,2.326
0.0007867031031976838,2.327
-0.0012353881538329683,2.328
-0.0027800326350802228,2.329
-0.0037740658337952005,2.33
-0.004243840584570583,2.331
-0.004297058387155449,2.332
-0.004090552509172919,2.333
-0.0037889303531064783,2.334
-0.0035235436230548413,2.335
-0.00337332508743417,2.336
-0.0033650408740257642,2.337
-0.0034644529040954966,2.338
-0.0035669739695294283,2.339
-0.0035254688676464277,2.34
-0.00321357648267285,2.341
-0.0025905511053261644,2.342
-0.001732302939943714,2.343
-0.0007996705053408658,2.344
4.404960770678046e-05,2.345
0.0007123444493779506,2.346
0.0012238555570605986,2.347
0.0016672012709426436,2.348
0.0021320001621971474,2.349
0.002654416326876114,2.35
0.0032009249122792317,2.351
0.0036890554147566345,2.352
0.004030850994493469,2.353
0.004172211670062756,2.354
0.004116885126628244,2.355
0.0039260490182439715,2.356
0.003670825097893579,2.357
0.003368190029852616,2.358
0.0029628646188041134,2.359
0.002365409936361264,2.36
0.001517474710743155,2.361
0.00044282213560588264,2.362
-0.0007501393417058398,2.363
-0.0019125897062210629,2.364
-0.002911271263419755,2.365
-0.003654796416210067,2.366
-0.004088274099942453,2.367
-0.004191060177351036,2.368
-0.0039895264468802,2.369
-0.003563933515921789,2.37
-0.0030300943939972217,2.371
-0.002501436843149067,2.372
-0.0020529918393949317,2.373
-0.0017005103940884764,2.374
-0.0014068978468301182,2.375
-0.0011153235967164045,2.376
-0.000779824349977767,2.377
-0.0003747165786944276,2.378
0.00011299962495065632,2.379
0.0006980090844118179,2.38
0.0013978593609450627,2.381
0.002212017230911269,2.382
0.0030959751821968548,2.383
0.003944957105485539,2.384
0.004602232449817961,2.385
0.004907093565955462,2.386
0.0047551740936078975,2.387
0.004122286459821714,2.388
0.0030464090643805707,2.389
0.0016085024688803709,2.39
-6.032945275901192e-05,2.391
-0.0017629969813669686,2.392
-0.0032462719323382784,2.393
-0.004252747796462937,2.394
-0.004596699685008777,2.395
-0.004223939165852653,2.396
-0.003226672075115191,2.397
-0.0018116346995368307,2.398
-0.00024933917700758996,2.399
0.0011610221214707847,2.4
0.0021240862679856305,2.401
0.002420612495541821,2.402
0.001992672144664522,2.403
0.0009630662874367995,2.404
-0.00042125264239496497,2.405
-0.0018624425162913657,2.406
-0.003074368275461482,2.407
-0.003845676068180753,2.408
-0.004085527430196185,2.409
-0.0038230364346215533,2.41
-0.003156363799017884,2.411
-0.0021772125223695404,2.412
-0.0009378586379142956,2.413
0.0005081365902137533,2.414
0.002052014183919542,2.415
0.003519773593068313,2.416
0.0047054352074244465,2.417
0.00543225573456304,2.418
0.005611830432918879,2.419
0.00525348509787221,2.42
0.004424747355800997,2.421
0.003217006297025671,2.422
0.0017482286314265505,2.423
0.00018700212140453434,2.424
-0.001251194047312696,2.425
-0.002362925297531761,2.426
-0.0030271627413494713,2.427
-0.0032371298466752664,2.428
-0.003080250533306173,2.429
-0.0026724432013662492,2.43
-0.0020980285209911413,2.431
-0.0014087182734167096,2.432
-0.0006595583133838574,2.433
6.931470243049434e-05,2.434
0.0006798948251222121,2.435
0.0010837071945628534,2.436
0.00122849444159942,2.437
0.0011047575378488668,2.438
0.0007385332118659976,2.439
0.00018207382564336836,2.44
-0.0004941331748636855,2.441
-0.0012010253788607911,2.442
-0.00183060510107981,2.443
-0.002275713596823923,2.444
-0.0024625444992645755,2.445
-0.002364947916166316,2.446
-0.001986468847966362,2.447
-0.0013375154082054855,2.448
-0.0004457565541288263,2.449
0.0006113132589670215,2.45
0.001698759310262726,2.451
0.002657817328356883,2.452
0.0033538375937569405,2.453
0.003709151412836019,2.454
0.003715426577140341,2.455
0.0034303727113119526,2.456
0.0029550007189600965,2.457
0.0023928336957537984,2.458
0.0018074696691175048,2.459
0.001202635970244902,2.46
0.0005495875466401144,2.461
-0.00015497770641963488,2.462
-0.000864479475195695,2.463
-0.0015098821620605656,2.464
-0.0020321595303615554,2.465
-0.0023986490389560143,2.466
-0.0026128442559639285,2.467
-0.0027057973238322893,2.468
-0.002707530581682508,2.469
-0.0026305788157592255,2.47
-0.002474576398488679,2.471
-0.0022277640312169684,2.472
-0.0018683407759910032,2.473
-0.001384427831418603,2.474
-0.000806813253230303,2.475
-0.00023118704337365148,2.476
0.00020479008713914144,2.477
0.0003929749166100864,2.478
0.0003269459767266449,2.479
0.000129720814218834,2.48
9.789665444554888e-06,2.481
0.0001511203621769302,2.482
0.0006094579387779227,2.483
0.0012896692816980885,2.484
0.002004707903952976,2.485
0.00257307334166556,2.486
0.002904504981547848,2.487
0.003024038616378203,2.488
0.0030230516700710214,2.489
0.0029782762262578755,2.49
0.0028866141646436212,2.491
0.0026504175946434273,2.492
0.002135075147263845,2.493
0.0012659194550960447,2.494
9.179287257438231e-05,2.495
-0.0012206904678772478,2.496
-0.0024458333594289225,2.497
-0.00337163236950701,2.498
-0.0038603873064240826,2.499
-0.003888187300997489,2.5
-0.003550684355127635,2.501
-0.0030256551713355347,2.502
-0.0025029099947041747,2.503
-0.0021149208859781977,2.504
-0.001896668847751797,2.505
-0.0017785535242632452,2.506
-0.0016166895254106034,2.507
-0.0012595483256140135,2.508
-0.0006216586099571944,2.509
0.0002712587200377833,2.51
0.0012880521512432842,2.511
0.002242843378103349,2.512
0.002955381313232367,2.513
0.003297931508541968,2.514
0.0032285463135042344,2.515
0.0027998651158051124,2.516
0.0021262776590119962,2.517
0.0013377226112466297,2.518
0.0005657507434980928,2.519
-5.8497927316827675e-05,2.52
-0.0004293613136355145,2.521
-0.0004963769902225486,2.522
-0.0002775231387864316,2.523
0.0001447114434378804,2.524
0.0006532233360516685,2.525
0.0011461905018139227,2.526
0.0015678933279312372,2.527
0.0019032015297843314,2.528
0.002151996515649749,2.529
0.002302405338546953,2.53
0.002321360579594616,2.531
0.002162157188169435,2.532
0.0017790797871796446,2.533
0.0011453266427309992,2.534
0.00026808419574004806,2.535
-0.0007938804457633958,2.536
-0.0019133201453117744,2.537
-0.0029097682611348495,2.538
-0.003613933334177865,2.539
-0.003946711128336778,2.54
-0.003950498062754036,2.541
-0.0037512070759306605,2.542
-0.0034833221524788347,2.543
-0.003220113870349045,2.544
-0.0029483987918052907,2.545
-0.0026027158423300467,2.546
-0.0021267366741066687,2.547
-0.0015172854332791228,2.548
-0.0008227610155904746,2.549
-0.00010274470664064101,2.55
