VaMe,time
0.007451970948853336,0.001
0.007908009742521897,0.002
0.008362064001296398,0.003
0.008813475350179956,0.004
0.00926162595775429,0.005
0.009705954812928604,0.006
0.010145964916633098,0.007
0.01058121957599948,0.008
0.011011328138428728,0.009
0.011435926118549917,0.01
0.011854662098084019,0.011
0.012267200782894963,0.012
0.012673235863418592,0.013
0.013072498636790773,0.014
0.013464754791319521,0.015
0.013849791613681701,0.016
0.014227407241351532,0.017
0.014597413614867496,0.018
0.014959650953973273,0.019
0.015314001474617709,0.02
0.015660393909500615,0.021
0.015998797676312595,0.022
0.01632920916326981,0.023
0.016651635220515385,0.024
0.016966081657629688,0.025
0.01727255193777809,0.026
0.017571053109583696,0.027
0.017861602443291064,0.028
0.01814423158861937,0.029
0.01841898800680641,0.03
0.01868593363606442,0.031
0.018945140408811633,0.032
0.01919668269749426,0.033
0.019440629332623017,0.034
0.019677040533132493,0.035
0.019905971726729633,0.036
0.020127479288164274,0.037
0.0203416222594507,0.038
0.020548458472033276,0.039
0.020748038221174298,0.04
0.02094040183360198,0.041
0.021125584345306085,0.042
0.021303623543372383,0.043
0.021474566490553938,0.044
0.02163847321679654,0.045
0.021795418043460076,0.046
0.02194548887409115,0.047
0.022088784327386635,0.048
0.022225408218479112,0.049
0.022355461724145244,0.05
0.022479036610221343,0.051
0.02259621463430287,0.052
0.022707073884289705,0.053
0.022811697069991695,0.054
0.022910176907593754,0.055
0.023002617183340332,0.056
0.023089130184204176,0.057
0.023169832048238786,0.058
0.023244837872059446,0.059
0.02331425802389436,0.06
0.02337819627789694,0.061
0.0234367494979346,0.062
0.023490007973747895,0.063
0.023538055281087635,0.064
0.023580966639421854,0.065
0.02361880548697915,0.066
0.023651620242423472,0.067
0.023679445155555885,0.068
0.02370230674468852,0.069
0.023720232689043348,0.07
0.023733259080373752,0.071
0.02374143410920394,0.072
0.02374481808008048,0.073
0.023743480493856894,0.074
0.0237374949588526,0.075
0.02372693212378478,0.076
0.02371185224666076,0.077
0.02369230286051704,0.078
0.0236683255847817,0.079
0.023639968377715155,0.08
0.023607296179989856,0.081
0.023570395477555742,0.082
0.0235293705608166,0.083
0.023484332902493535,0.084
0.023435392474315024,0.085
0.023382661156417413,0.086
0.023326267131826638,0.087
0.023266369263351645,0.088
0.02320316268247092,0.089
0.02313687328992871,0.09
0.023067743637302886,0.091
0.022996018439073736,0.092
0.02292194083258248,0.093
0.02284576174203744,0.094
0.022767752626608323,0.095
0.02268821170103691,0.096
0.02260746094916018,0.097
0.02252583561674354,0.098
0.022443670703768757,0.099
0.022361291815392103,0.1
0.022279014628401646,0.101
0.022197148925757377,0.102
0.022116000528963228,0.103
0.022035868777391186,0.104
0.021957041401962116,0.105
0.0218797907120842,0.106
0.02180437360171032,0.107
0.021731033671549292,0.108
0.021660002343399272,0.109
0.021591497988030922,0.11
0.021525723810107908,0.111
0.021462865514104586,0.112
0.021403089659492208,0.113
0.021346543357001736,0.114
0.0212933554327308,0.115
0.021243638727203595,0.116
0.02119749308645014,0.117
0.021155008473693317,0.118
0.021116267350662785,0.119
0.021081345438065745,0.12
0.021050310385346865,0.121
0.021023218638092516,0.122
0.021000111633370205,0.123
0.020981012798689885,0.124
0.020965926113361403,0.125
0.02095483601522931,0.126
0.020947708114201498,0.127
0.020944489909470208,0.128
0.020945110893433,0.129
0.02094948302402444,0.13
0.020957503439689572,0.131
0.020969059557652988,0.132
0.020984034576555555,0.133
0.021002311046017897,0.134
0.021023770948842807,0.135
0.02104829186025475,0.136
0.02107574116195751,0.137
0.021105973362912447,0.138
0.02113883378220966,0.139
0.02117416581219322,0.14
0.021211817388131177,0.141
0.021251645202986207,0.142
0.02129351677236598,0.143
0.02133731027173029,0.144
0.021382911746209016,0.145
0.0214302093845138,0.146
0.021479085910040056,0.147
0.021529412781560425,0.148
0.02158105010052115,0.149
0.021633851828547337,0.15
0.021687672661077663,0.151
0.021742374355133053,0.152
0.021797831626034013,0.153
0.021853937969485742,0.154
0.021910610833996324,0.155
0.021967794635798357,0.156
0.022025459706920707,0.157
0.022083595622755397,0.158
0.022142199705765548,0.159
0.0222012668151746,0.16
0.022260788537092936,0.161
0.022320762075165746,0.162
0.02238120051441476,0.163
0.02244213726438456,0.164
0.022503623136187173,0.165
0.022565717654401733,0.166
0.022628477779407942,0.167
0.022691948343989844,0.168
0.022756157025199973,0.169
0.02282111294102542,0.17
0.02288680739229099,0.171
0.022953217498059987,0.172
0.02302031254695366,0.173
0.02308806039111008,0.174
0.02315643143261726,0.175
0.02322539938721776,0.176
0.023294939054169083,0.177
0.023365021696787818,0.178
0.023435609038500123,0.179
0.023506648352866564,0.18
0.023578072186816224,0.181
0.023649803773452542,0.182
0.023721765370590682,0.183
0.023793886139312683,0.184
0.023866107563881658,0.185
0.023938385213576094,0.186
0.02401068624612438,0.187
0.02408298282723674,0.188
0.024155243089306982,0.189
0.024227424125740114,0.19
0.02429947217497016,0.191
0.024371329874515332,0.192
0.024442944885002028,0.193
0.024514274447607492,0.194
0.024585283524711444,0.195
0.02465593717540316,0.196
0.02472619223079489,0.197
0.024795995590582414,0.198
0.024865290518064312,0.199
0.024934024406348055,0.2
0.02500215169346454,0.201
0.02506963060052455,0.202
0.025136415354901374,0.203
0.025202447300170995,0.204
0.02526764945507047,0.205
0.02533192608610811,0.206
0.02539516368595971,0.207
0.025457230017909546,0.208
0.025517972402642527,0.209
0.025577217342321837,0.21
0.025634771000589637,0.211
0.02569042078523254,0.212
0.02574394143486444,0.213
0.025795107355478037,0.214
0.025843707916783316,0.215
0.025889560389361212,0.216
0.025932516388861612,0.217
0.025972459647828683,0.218
0.026009294882323404,0.219
0.026042931945927994,0.22
0.02607327660133134,0.221
0.02610023716993076,0.222
0.026123742426440194,0.223
0.0261437589324923,0.224
0.026160300926167054,0.225
0.026173431272437552,0.226
0.026183254162879584,0.227
0.026189901473455245,0.228
0.026193515543627807,0.229
0.026194233204338516,0.23
0.026192178109933146,0.231
0.026187463864136597,0.232
0.02618020186570613,0.233
0.0261705072166736,0.234
0.026158501391692988,0.235
0.026144312948944474,0.236
0.02612807751991501,0.237
0.026109937822946735,0.238
0.026090043797674503,0.239
0.02606855239357843,0.24
0.02604562617508129,0.241
0.026021429793554506,0.242
0.02599612358132448,0.243
0.025969855826070018,0.244
0.025942759543415104,0.245
0.025914958068225157,0.246
0.025886575777851056,0.247
0.025857746957561465,0.248
0.02582861884634864,0.249
0.02579934771572681,0.25
0.025770089450275625,0.251
0.02574099021219844,0.252
0.025712183892588506,0.253
0.02568379673146745,0.254
0.025655952764644826,0.255
0.02562877487958538,0.256
0.02560238079892538,0.257
0.025576876438807447,0.258
0.02555235177263569,0.259
0.02552888322411291,0.26
0.0255065407357293,0.261
0.025485394571408585,0.262
0.025465518911080617,0.263
0.025446991621353342,0.264
0.02542989062781476,0.265
0.025414287940651557,0.266
0.02540024288093722,0.267
0.02538779678218428,0.268
0.025376971729321577,0.269
0.025367774080528285,0.27
0.025360200944474352,0.271
0.025354247263836432,0.272
0.025349911829690958,0.273
0.0253472007854251,0.274
0.02534612745840586,0.275
0.02534670805335184,0.276
0.025348953985476857,0.277
0.025352864205863187,0.278
0.025358422552124487,0.279
0.025365601295055128,0.28
0.025374366215487224,0.281
0.025384678539946998,0.282
0.025396492740695213,0.283
0.025409751555476437,0.284
0.02542438151900766,0.285
0.02544029317338365,0.286
0.025457387026427733,0.287
0.025475562114987273,0.288
0.025494723346382284,0.289
0.025514785191545698,0.29
0.0255356701400685,0.291
0.025557301670335424,0.292
0.025579595870488428,0.293
0.02560246024427224,0.294
0.025625803681737575,0.295
0.02564955148087431,0.296
0.025673657017034675,0.297
0.025698106216693467,0.298
0.02572291431232584,0.299
0.02574811600454046,0.3
0.025773751564737882,0.301
0.025799853720061005,0.302
0.025826442094335916,0.303
0.02585352753424374,0.304
0.025881120757083997,0.305
0.0259092387808311,0.306
0.02593790670547524,0.307
0.02596715458259059,0.308
0.025997009871836105,0.309
0.02602748833327568,0.31
0.026058589121324444,0.311
0.026090296937703216,0.312
0.026122586853475356,0.313
0.026155426147553996,0.314
0.02618877164317604,0.315
0.026222564558338036,0.316
0.026256727410452086,0.317
0.02629116610535799,0.318
0.02632577510824831,0.319
0.02636044182798724,0.32
0.026395048802742446,0.321
0.026429474064082054,0.322
0.026463590284361564,0.323
0.026497263079876564,0.324
0.02653034860759191,0.325
0.02656269069709572,0.326
0.02659411821739478,0.327
0.026624443819811317,0.328
0.026653465153226568,0.329
0.02668096890389334,0.33
0.026706736710044646,0.331
0.026730550513017017,0.332
0.026752193777582967,0.333
0.026771447160323727,0.334
0.026788085121553926,0.335
0.026801884374890953,0.336
0.026812645790419174,0.337
0.026820219331839278,0.338
0.02682452048533238,0.339
0.02682553208998756,0.34
0.026823290582892567,0.341
0.026817861491483838,0.342
0.02680931642870516,0.343
0.026797724271411874,0.344
0.026783155754358176,0.345
0.026765688565223777,0.346
0.026745404243548418,0.347
0.026722378549678356,0.348
0.02669667128644609,0.349
0.026668320973523608,0.35
0.026637347588836385,0.351
0.02660376367810469,0.352
0.02656759074995328,0.353
0.02652887537341027,0.354
0.026487699168953244,0.355
0.026444178749554886,0.356
0.026398454765194687,0.357
0.026350674691634254,0.358
0.026300980585083015,0.359
0.026249509900126432,0.36
0.026196404236472497,0.361
0.02614181558424682,0.362
0.026085906120384292,0.363
0.02602884337197607,0.364
0.02597079357583372,0.365
0.02591191518702203,0.366
0.025852353208223242,0.367
0.025792234582558006,0.368
0.02573166599394374,0.369
0.025670735664269587,0.37
0.025609518387096807,0.371
0.025548080992569597,0.372
0.025486485688201603,0.373
0.025424789746841512,0.374
0.025363041424273938,0.375
0.02530127509725579,0.376
0.02523951101087128,0.377
0.02517776153000732,0.378
0.02511603962427192,0.379
0.025054364399090888,0.38
0.024992761485949862,0.381
0.02493125809229736,0.382
0.02486987483103384,0.383
0.024808620469960928,0.384
0.024747495238517603,0.385
0.02468650080123038,0.386
0.024625649857391067,0.387
0.024564970111343534,0.388
0.02450450071285421,0.389
0.02444428278156178,0.39
0.024384350959877416,0.391
0.02432473403073155,0.392
0.024265464318183484,0.393
0.024206587606305095,0.394
0.024148166860397398,0.395
0.024090278601827955,0.396
0.024033003999823773,0.397
0.023976418186660218,0.398
0.023920582154257724,0.399
0.023865540302433166,0.4
0.023811322903244902,0.401
0.02375795057088542,0.402
0.023705439283519494,0.403
0.02365380602761673,0.404
0.02360307464261418,0.405
0.023553280301905604,0.406
0.02350447054556709,0.407
0.023456701281987975,0.408
0.023410028315494796,0.409
0.023364499000613957,0.41
0.023320150262007042,0.411
0.02327701369359195,0.412
0.02323512198994455,0.413
0.02319451176720093,0.414
0.023155222141553824,0.415
0.02311729048482637,0.416
0.02308074702241052,0.417
0.023045609678767568,0.418
0.02301188004804296,0.419
0.022979540790070148,0.42
0.022948554238526913,0.421
0.022918861739443856,0.422
0.0228903836185991,0.423
0.02286302050865576,0.424
0.022836656847425744,0.425
0.02281116636383129,0.426
0.02278641837372846,0.427
0.022762283255563336,0.428
0.022738635476263352,0.429
0.02271535306437931,0.43
0.02269231332319472,0.431
0.022669386169291702,0.432
0.022646429095312597,0.433
0.02262328824163398,0.434
0.022599805924007677,0.435
0.02257583091413221,0.436
0.022551227820298215,0.437
0.0225258832817015,0.438
0.022499707149852187,0.439
0.022472627392634458,0.44
0.022444579486447697,0.441
0.022415495612151295,0.442
0.022385301766204607,0.443
0.022353924842842862,0.444
0.022321303057660245,0.445
0.022287393370013172,0.446
0.022252175009526823,0.447
0.022215650580534565,0.448
0.022177845818404925,0.449
0.022138808005438368,0.45
0.022098602005977925,0.451
0.022057302450212726,0.452
0.022014983386535066,0.453
0.02197171289428039,0.454
0.02192755931690577,0.455
0.021882605113807702,0.456
0.02183695862836381,0.457
0.021790758159530993,0.458
0.021744167868953307,0.459
0.021697367987582778,0.46
0.021650543209065495,0.461
0.021603872858226233,0.462
0.02155752477327197,0.463
0.021511652820324488,0.464
0.021466396483555517,0.465
0.021421880489056213,0.466
0.021378213536873386,0.467
0.02133548773446353,0.468
0.021293780967219636,0.469
0.02125316175242118,0.47
0.02121369409551326,0.471
0.021175440556636334,0.472
0.021138463029332696,0.473
0.021102821473168106,0.474
0.021068571137315514,0.475
0.021035758705529817,0.476
0.02100441807744195,0.477
0.020974567688243514,0.478
0.020946211037837958,0.479
0.02091933920076443,0.48
0.02089393207630968,0.481
0.02086995709031413,0.482
0.020847368336899843,0.483
0.020826110129448183,0.484
0.020806124357795906,0.485
0.020787356998084053,0.486
0.020769759703239285,0.487
0.02075328540663896,0.488
0.020737881651577483,0.489
0.020723489266641786,0.49
0.02071004970301313,0.491
0.020697515450491623,0.492
0.0206858562130516,0.493
0.02067505784479457,0.494
0.02066511441527349,0.495
0.02065601764020583,0.496
0.02064775200941189,0.497
0.020640299834763495,0.498
0.020633650706620807,0.499
0.02062780815260773,0.5
0.02062279155960809,0.501
0.020618634357602854,0.502
0.02061537968532682,0.503
0.020613074415032837,0.504
0.020611762013457154,0.505
0.02061147579999085,0.506
0.020612236498429196,0.507
0.020614056621985493,0.508
0.020616949220056968,0.509
0.02062093678045408,0.51
0.020626057771009225,0.511
0.020632369282924348,0.512
0.0206399448065391,0.513
0.020648867293137755,0.514
0.020659219413082543,0.515
0.02067107532477587,0.516
0.020684498146647683,0.517
0.02069954223698238,0.518
0.020716255031204365,0.519
0.020734675201932118,0.52
0.020754829073915237,0.521
0.02077672940921546,0.522
0.02080037735005921,0.523
0.020825763823388483,0.524
0.020852868035589514,0.525
0.020881656319307915,0.526
0.020912085548042986,0.527
0.020944109829834277,0.528
0.020977685562996045,0.529
0.02101277169319889,0.53
0.02104932502095762,0.531
0.021087293112358754,0.532
0.021126609396877907,0.533
0.0211671928409442,0.534
0.021208949722267674,0.535
0.021251774413298816,0.536
0.021295549078653716,0.537
0.021340143582656682,0.538
0.021385416268214816,0.539
0.02143121515215098,0.54
0.021477378159544244,0.541
0.021523731514337303,0.542
0.02157008845630033,0.543
0.021616252851030728,0.544
0.021662029417729524,0.545
0.021707237399303605,0.546
0.021751723167779645,0.547
0.021795368331783933,0.548
0.021838090673754862,0.549
0.021879836072365717,0.55
0.021920563834988173,0.551
0.02196023625421231,0.552
0.0219988233570413,0.553
0.02203631995964995,0.554
0.022072762267618715,0.555
0.022108235230333926,0.556
0.022142868943222704,0.557
0.02217682608281369,0.558
0.022210284266695992,0.559
0.02224341936514355,0.56
0.022276396865719906,0.561
0.022309372990712614,0.562
0.02234249933960036,0.563
0.02237592496462191,0.564
0.022409794918329614,0.565
0.022444246490039198,0.566
0.022479404386657464,0.567
0.02251537639989681,0.568
0.02255225121600185,0.569
0.022590098663400653,0.57
0.022628970918411602,0.571
0.022668903349473718,0.572
0.022709914826659985,0.573
0.022752007636461253,0.574
0.022795166948725378,0.575
0.022839359712849158,0.576
0.022884533372401913,0.577
0.022930615716858786,0.578
0.022977516797334514,0.579
0.02302513207683976,0.58
0.023073345312079666,0.581
0.023122030438407947,0.582
0.02317105253578693,0.583
0.023220268420238086,0.584
0.023269527538050012,0.585
0.023318673568338586,0.586
0.023367546664339486,0.587
0.023415985871848465,0.588
0.023463831070621544,0.589
0.02351092367063554,0.59
0.023557105134583735,0.591
0.023602212444970374,0.592
0.02364607206939893,0.593
0.02368849848249039,0.594
0.023729301785764774,0.595
0.023768300818489744,0.596
0.02380533475601506,0.597
0.023840269128864233,0.598
0.02387299479894521,0.599
0.02390341978852136,0.6
0.02393145660911722,0.601
0.02395701262892242,0.602
0.023979991197995973,0.603
0.024000302226187358,0.604
0.02401787328545714,0.605
0.024032653979145658,0.606
0.024044611098432502,0.607
0.024053717057359408,0.608
0.02405994093575788,0.609
0.024063251444030577,0.61
0.024063629636265033,0.611
0.024061080825011613,0.612
0.02405563839681616,0.613
0.024047358448154123,0.614
0.024036307456823846,0.615
0.024022548126729503,0.616
0.02400613136111276,0.617
0.023987098199899245,0.618
0.023965486556801793,0.619
0.02394133604138726,0.62
0.023914689088963062,0.621
0.023885589343865556,0.622
0.023854078596431367,0.623
0.023820193739759826,0.624
0.023783965223626732,0.625
0.02374541808655115,0.626
0.023704575647850244,0.627
0.023661464577368466,0.628
0.023616118999799422,0.629
0.02356858112169913,0.63
0.023518896644518162,0.631
0.02346710656133242,0.632
0.023413242627801093,0.633
0.023357332965595237,0.634
0.023299414784257625,0.635
0.02323954604461839,0.636
0.023177810977799106,0.637
0.02311431803752352,0.638
0.023049190790043177,0.639
0.02298255498251979,0.64
0.02291452871878521,0.641
0.022845221347411133,0.642
0.022774738639493246,0.643
0.022703187122361645,0.644
0.022630673490589247,0.645
0.02255729945804932,0.646
0.02248315561396342,0.647
0.022408319463306594,0.648
0.02233285926425417,0.649
0.022256839462142283,0.65
0.02218032293585298,0.651
0.02210336855413781,0.652
0.022026025686630993,0.653
0.02194833013244345,0.654
0.021870305020652087,0.655
0.02179196496860391,0.656
0.021713319225130895,0.657
0.021634371780394856,0.658
0.0215551190014478,0.659
0.021475546516003308,0.66
0.021395627410889177,0.661
0.021315323347101855,0.662
0.021234588989189854,0.663
0.02115337864297251,0.664
0.02107165271220875,0.665
0.020989380963854484,0.666
0.02090653999807716,0.667
0.020823105847786894,0.668
0.020739049156499583,0.669
0.02065434033115515,0.67
0.020568962333493552,0.671
0.020482922799752716,0.672
0.020396260287309228,0.673
0.020309043620022393,0.674
0.020221365136676477,0.675
0.020133329508983198,0.676
0.02004504137076813,0.677
0.019956597482699946,0.678
0.019868087500684913,0.679
0.019779600888304973,0.68
0.019691234575568428,0.681
0.019603098602809177,0.682
0.01951531924721286,0.683
0.019428039315236643,0.684
0.019341415109951486,0.685
0.01925560979927923,0.686
0.019170784717000358,0.687
0.019087093514253462,0.688
0.019004683552377787,0.689
0.018923702581714014,0.69
0.018844304831803434,0.691
0.01876665287097971,0.692
0.018690914858242574,0.693
0.018617258383358818,0.694
0.018545843352291376,0.695
0.018476817574044953,0.696
0.01841031702990716,0.697
0.018346468789111017,0.698
0.018285393414447043,0.699
0.01822720574549619,0.7
0.01817201446968907,0.701
0.018119921238594048,0.702
0.01807101995346688,0.703
0.018025396352110177,0.704
0.017983127468622878,0.705
0.017944280318832207,0.706
0.017908909737081057,0.707
0.0178770565599948,0.708
0.0178487476136656,0.709
0.017823997284741294,0.71
0.017802809152281215,0.711
0.01778517685142178,0.712
0.01777108453327387,0.713
0.01776050765053293,0.714
0.017753414492511884,0.715
0.01774976834094188,0.716
0.017749529660365748,0.717
0.01775265758102514,0.718
0.017759110052545147,0.719
0.01776884230319841,0.72
0.017781803521097126,0.721
0.017797932736390062,0.722
0.017817156744462236,0.723
0.017839392198755705,0.724
0.017864550333547523,0.725
0.017892541308102743,0.726
0.0179232768176917,0.727
0.017956671098826454,0.728
0.017992640926803936,0.729
0.01803110511388181,0.73
0.01807198354848193,0.731
0.01811519537135499,0.732
0.0181606558064284,0.733
0.018208271877488694,0.734
0.018257938858431213,0.735
0.01830953976549456,0.736
0.018362947688175552,0.737
0.018418028210581482,0.738
0.018474639719870276,0.739
0.018532631362711542,0.74
0.018591839714393044,0.741
0.018652085874331432,0.742
0.01871317471886804,0.743
0.01877489741223568,0.744
0.01883703719227386,0.745
0.018899377076185636,0.746
0.01896170703084503,0.747
0.019023827891378235,0.748
0.019085549950923784,0.749
0.019146686470431572,0.75
0.01920704720057578,0.751
0.01926643941641347,0.752
0.019324677924829996,0.753
0.019381597626021322,0.754
0.01943706194948177,0.755
0.01949096454113667,0.756
0.019543224025828268,0.757
0.01959377286167691,0.758
0.019642544639992824,0.759
0.019689468741085594,0.76
0.019734477294797277,0.761
0.019777518368912818,0.762
0.019818566423416756,0.763
0.019857626147804917,0.764
0.019894729134477398,0.765
0.01992992422052185,0.766
0.019963264565812204,0.767
0.019994797272842528,0.768
0.02002456009049205,0.769
0.02005258316980265,0.77
0.02007889013673131,0.771
0.020103496046800794,0.772
0.020126404014846118,0.773
0.020147603404968375,0.774
0.0201670716633915,0.775
0.020184780457956287,0.776
0.020200705123535827,0.777
0.02021483478244484,0.778
0.020227179389097013,0.779
0.020237770060181407,0.78
0.020246651253768132,0.781
0.020253869283404675,0.782
0.020259467330635397,0.783
0.02026349147719386,0.784
0.020265999897806527,0.785
0.020267065716672392,0.786
0.020266771433453814,0.787
0.02026519873254477,0.788
0.020262420723172442,0.789
0.020258501129284397,0.79
0.02025349737985455,0.791
0.02024746186523448,0.792
0.02024043935206538,0.793
0.020232462582928292,0.794
0.020223550069690694,0.795
0.02021370805718753,0.796
0.020202934182950476,0.797
0.02019121959055461,0.798
0.020178548773554978,0.799
0.02016489799334106,0.8
0.02015023333674301,0.801
0.02013450923602559,0.802
0.020117667844040562,0.803
0.02009963929900444,0.804
0.0200803426699053,0.805
0.02005968716499236,0.806
0.020037572971453244,0.807
0.02001389090898405,0.808
0.01998852057036394,0.809
0.019961328844974344,0.81
0.019932172754871105,0.811
0.01990090853645745,0.812
0.019867404650363883,0.813
0.019831554640541493,0.814
0.01979328613349561,0.815
0.01975256275571217,0.816
0.019709376825523983,0.817
0.019663735174386587,0.818
0.01961564841913623,0.819
0.019565133929211095,0.82
0.01951222967028528,0.821
0.019457007080456275,0.822
0.019399575349420325,0.823
0.019340076531233857,0.824
0.01927867427399943,0.825
0.019215539956400653,0.826
0.01915084027025868,0.827
0.019084729972484966,0.828
0.019017350691755947,0.829
0.01894883272023649,0.83
0.018879296507050766,0.831
0.018808853107725315,0.832
0.01873760415240939,0.833
0.018665641975902644,0.834
0.01859305052687522,0.835
0.018519907543865274,0.836
0.018446288051030744,0.837
0.0183722684725326,0.838
0.018297929918977513,0.839
0.018223358985218284,0.84
0.01814864501389497,0.841
0.018073874378750632,0.842
0.017999124820583988,0.843
0.01792446372733022,0.844
0.01784995084755868,0.845
0.017775642032831107,0.846
0.01770159110555035,0.847
0.01762784951044722,0.848
0.01755446455428023,0.849
0.017481477149240903,0.85
0.017408919822531253,0.851
0.01733681536892944,0.852
0.017265176045039556,0.853
0.017194002883988133,0.854
0.017123284736357512,0.855
0.017052996957244528,0.856
0.016983100197478167,0.857
0.016913540322630528,0.858
0.016844250324789447,0.859
0.016775154254095377,0.86
0.01670617272265566,0.861
0.01663722935259968,0.862
0.01656825699695073,0.863
0.016499201872906124,0.864
0.016430023438408634,0.865
0.01636068898251966,0.866
0.016291166513948876,0.867
0.016221424112920095,0.868
0.016151439148635715,0.869
0.016081210433166536,0.87
0.016010764288473294,0.871
0.015940150941466922,0.872
0.01586943350363784,0.873
0.0157986773618912,0.874
0.015727947904519236,0.875
0.015657315566879774,0.876
0.015586860113741047,0.877
0.015516668753417874,0.878
0.015446829442136168,0.879
0.015377425671289609,0.88
0.01530853761887446,0.881
0.015240247235758472,0.882
0.015172641336646945,0.883
0.01510580996474379,0.884
0.015039841303421906,0.885
0.014974817018600128,0.886
0.014910811824426254,0.887
0.014847897055383905,0.888
0.014786144665832626,0.889
0.014725629052169705,0.89
0.01466642650196389,0.891
0.014608613084876649,0.892
0.014552261780578436,0.893
0.014497439281238941,0.894
0.014444202952242552,0.895
0.014392599209435074,0.896
0.014342664338375808,0.897
0.014294426864828829,0.898
0.01424790941784745,0.899
0.014203128565557636,0.9
0.014160092849610484,0.901
0.014118801699832602,0.902
0.014079247500913543,0.903
0.014041419155427386,0.904
0.014005303673405821,0.905
0.01397088451074802,0.906
0.013938138886961937,0.907
0.013907038118135255,0.908
0.013877552241187571,0.909
0.013849655843316752,0.91
0.013823331593859258,0.911
0.013798570320594243,0.912
0.01377536810372675,0.913
0.013753721524347638,0.914
0.013733622463869232,0.915
0.013715054054750172,0.916
0.013697989271102776,0.917
0.01368239231734481,0.918
0.01366822147474379,0.919
0.013655432190974403,0.92
0.013643980069984372,0.921
0.013633823684884106,0.922
0.013624927048919837,0.923
0.013617261443265125,0.924
0.013610806066003959,0.925
0.013605546746125725,0.926
0.013601472024992699,0.927
0.013598567620158583,0.928
0.013596813398939079,0.929
0.013596185946281609,0.93
0.013596664162727146,0.931
0.013598233249083502,0.932
0.013600885141588038,0.933
0.01360461570515304,0.934
0.013609419739008,0.935
0.013615285706383238,0.936
0.01362219305639634,0.937
0.013630113578428322,0.938
0.01363901508289048,0.939
0.013648865078081324,0.94
0.013659633434565532,0.941
0.013671293414455828,0.942
0.013683820364166991,0.943
0.013697188053480237,0.944
0.01371136464532674,0.945
0.013726311939911444,0.946
0.01374198928624289,0.947
0.01375835932360391,0.948
0.013775391984520756,0.949
0.013793065273745088,0.95
0.013811362881688098,0.951
0.01383026949529709,0.952
0.01384976531771489,0.953
0.013869821759746393,0.954
0.013890399665407964,0.955
0.013911449483442593,0.956
0.013932911667834788,0.957
0.013954716584270494,0.958
0.013976784501010635,0.959
0.013999026463096219,0.96
0.014021346447017078,0.961
0.014043644704185782,0.962
0.01406582177590576,0.963
0.014087782341419563,0.964
0.014109437863690582,0.965
0.014130707003127638,0.966
0.014151513068085446,0.967
0.014171778993001703,0.968
0.014191422977741315,0.969
0.014210358962411629,0.97
0.01422850235839008,0.971
0.014245777140278191,0.972
0.014262120647658336,0.973
0.014277484957138696,0.974
0.01429183509938045,0.975
0.01430514481491284,0.976
0.014317390626863446,0.977
0.01432854550315516,0.978
0.014338574553400707,0.979
0.014347434754144898,0.98
0.014355077752818813,0.981
0.014361453088523714,0.982
0.014366510357809021,0.983
0.014370200360355335,0.984
0.014372475738056919,0.985
0.014373291629521086,0.986
0.014372606705427645,0.987
0.014370384658708012,0.988
0.014366595860296606,0.989
0.014361218527677565,0.99
0.014354238487523182,0.991
0.014345646619608996,0.992
0.01433543390711709,0.993
0.014323586342222113,0.994
0.014310083516610754,0.995
0.014294901897898327,0.996
0.014278019646789888,0.997
0.014259420124868425,0.998
0.014239093991763829,0.999
0.014217040857554772,1.0
0.014193271073878475,1.001
0.01416780756542169,1.002
0.014140687015976088,1.003
0.014111959513182804,1.004
0.014081685984324233,1.005
0.014049933269076137,1.006
0.014016767748563431,1.007
0.013982250416411083,1.008
0.013946436829197844,1.009
0.013909382210093081,1.01
0.013871148617476643,1.011
0.013831811313875965,1.012
0.013791463123744439,1.013
0.013750216216205369,1.014
0.013708200933739026,1.015
0.013665561639508264,1.016
0.013622450083514788,1.017
0.013579017775507112,1.018
0.013535410183270345,1.019
0.01349176509860025,1.02
0.013448214418184293,1.021
0.013404886654720618,1.022
0.013361908743352774,1.023
0.013319407253505538,1.024
0.013277509194924616,1.025
0.013236342166284394,1.026
0.013196033398659967,1.027
0.013156707381012843,1.028
0.013118482567223698,1.029
0.013081469117829222,1.03
0.013045769578877023,1.031
0.013011481925496574,1.032
0.01297870261890703,1.033
0.01294752787899431,1.034
0.012918052430457726,1.035
0.012890366376947961,1.036
0.012864553144165066,1.037
0.012840691250700746,1.038
0.012818858741173628,1.039
0.012799136666884108,1.04
0.012781609309777606,1.041
0.012766360990555765,1.042
0.012753471505696086,1.043
0.01274301395884302,1.044
0.012735056578015104,1.045
0.01272966568322117,1.046
0.012726906362307843,1.047
0.012726840271634697,1.048
0.01272952269843262,1.049
0.012735001860710733,1.05
0.01274332095200823,1.051
0.012754520290916846,1.052
0.012768637081769025,1.053
0.012785702995168959,1.054
0.012805742469572785,1.055
0.01282877426872385,1.056
0.012854815085379143,1.057
0.012883881919747696,1.058
0.012915991512661209,1.059
0.012951157238695629,1.06
0.01298938539990249,1.061
0.013030673493904344,1.062
0.013075011266835765,1.063
0.013122382826443362,1.064
0.01317276806372709,1.065
0.01322614304254663,1.066
0.0132824794872593,1.067
0.013341743319200594,1.068
0.013403892507223623,1.069
0.013468875623968424,1.07
0.013536632729161748,1.071
0.013607098340663685,1.072
0.01368020462291983,1.073
0.01375588326766171,1.074
0.013834065616621783,1.075
0.013914681338614829,1.076
0.013997656433528799,1.077
0.014082911415223831,1.078
0.014170360144055389,1.079
0.014259909113824989,1.08
0.014351456412560634,1.081
0.014444890242498511,1.082
0.01454008902067893,1.083
0.014636925156274273,1.084
0.014735271471083146,1.085
0.014835007334795347,1.086
0.014936022275576057,1.087
0.015038215817101347,1.088
0.015141493176731465,1.089
0.015245758453241429,1.09
0.015350909799394163,1.091
0.015456840328792965,1.092
0.015563443146887608,1.093
0.015670615957849774,1.094
0.015778262664516318,1.095
0.015886291766248235,1.096
0.015994612290331132,1.097
0.016103128446910295,1.098
0.016211734937955122,1.099
0.01632031520715711,1.1
0.01642874313778031,1.101
0.016536886251469998,1.102
0.016644608460634636,1.103
0.016751771839187014,1.104
0.016858237420448965,1.105
0.01696386491380398,1.106
0.017068511078878384,1.107
0.017172026535456276,1.108
0.017274252042667623,1.109
0.01737501736806503,1.11
0.01747414481401125,1.111
0.017571455369440412,1.112
0.01766677399044423,1.113
0.01775993210105715,1.114
0.017850766638070576,1.115
0.017939115564466344,1.116
0.018024811509266245,1.117
0.01810767810603414,1.118
0.018187532801086027,1.119
0.018264194282197246,1.12
0.01833748961734625,1.121
0.018407257860010805,1.122
0.01847334883242382,1.123
0.01853561705133984,1.124
0.018593914086095155,1.125
0.018648086869604775,1.126
0.018697986454080075,1.127
0.018743482552877246,1.128
0.01878447595675574,1.129
0.0188209040817135,1.13
0.018852737640349906,1.131
0.018879968721377437,1.132
0.01890259599887482,1.133
0.018920618620322956,1.134
0.018934044604067685,1.135
0.018942905765551455,1.136
0.01894726831612086,1.137
0.018947235308740335,1.138
0.018942941578131096,1.139
0.018934543087023664,1.14
0.01892220352745134,1.141
0.018906082585695733,1.142
0.018886330693360785,1.143
0.018863090553550482,1.144
0.018836500311819472,1.145
0.018806694141828794,1.146
0.01877380019520754,1.147
0.018737937737096283,1.148
0.01869921528427886,1.149
0.01865773098005091,1.15
0.018613575445715118,1.151
0.018566836266657862,1.152
0.018517602464471903,1.153
0.018465967054579452,1.154
0.01841202619738406,1.155
0.018355874637724832,1.156
0.01829759983685364,1.157
0.018237279727645387,1.158
0.01817498623454438,1.159
0.018110790743508354,1.16
0.01804476677241345,1.161
0.017976988355634972,1.162
0.017907525246966375,1.163
0.01783643830512721,1.164
0.017763779195156863,1.165
0.01768959514877936,1.166
0.017613935511285546,1.167
0.01753685663482115,1.168
0.017458423309073125,1.169
0.017378705675664918,1.17
0.017297772787764967,1.171
0.01721568861974831,1.172
0.01713251611461519,1.173
0.017048327156201953,1.174
0.01696321150195948,1.175
0.016877280108352398,1.176
0.01679066191495947,1.177
0.01670349522929363,1.178
0.01661591732269049,1.179
0.01652805839498456,1.18
0.016440043114154358,1.181
0.016351995863368596,1.182
0.016264044392862092,1.183
0.016176320399514672,1.184
0.016088957808746415,1.185
0.016002089772677364,1.186
0.015915845257469523,1.187
0.015830345823990257,1.188
0.01574570299732374,1.189
0.015662016548837525,1.19
0.015579373937890368,1.191
0.015497850834156487,1.192
0.015417512039089849,1.193
0.015338411698918005,1.194
0.015260592678402738,1.195
0.015184087158334612,1.196
0.015108920401761568,1.197
0.015035116650038668,1.198
0.01496270463605515,1.199
0.014891721096604596,1.2
0.014822211549204435,1.201
0.014754228153394057,1.202
0.01468782506233633,1.203
0.014623052665965664,1.204
0.014559953673861188,1.205
0.01449856358115672,1.206
0.01443891463210115,1.207
0.01438104012549573,1.208
0.014324977013175292,1.209
0.01427076654195819,1.21
0.01421845349089702,1.211
0.01416808470418982,1.212
0.014119707379838975,1.213
0.014073367148877887,1.214
0.014029105720737569,1.215
0.013986958002015687,1.216
0.013946949152024737,1.217
0.013909092478652978,1.218
0.013873388624915573,1.219
0.013839825900092303,1.22
0.013808381578535084,1.221
0.01377902345776611,1.222
0.013751710404375594,1.223
0.013726392098784148,1.224
0.013703010433019747,1.225
0.013681504030057395,1.226
0.013661813913544258,1.227
0.013643887181221188,1.228
0.013627677029355039,1.229
0.013613139154087866,1.23
0.013600226173361502,1.231
0.013588883143157334,1.232
0.013579046169949026,1.233
0.01357064267517613,1.234
0.013563590988896703,1.235
