VaMe,time
0.0024159659946661,0.001
0.0026625605501640302,0.002
0.002910441278465747,0.003
0.003159466372057047,0.004
0.0034094945364848625,0.005
0.00366038496127132,0.006
0.003911996624033276,0.007
0.00416418746915348,0.008
0.004416814122444217,0.009
0.004669732637877451,0.01
0.004922800365222317,0.011
0.005175878531984015,0.012
0.005428834744800517,0.013
0.005681544468115622,0.014
0.005933890675888142,0.015
0.006185761280117156,0.016
0.006437045253195985,0.017
0.006687630315042772,0.018
0.0069374042899348586,0.019
0.007186258650244443,0.02
0.007434091468398055,0.021
0.007680808628616477,0.022
0.007926323397335892,0.023
0.00817055475255914,0.024
0.008413424891677726,0.025
0.008654856152761623,0.026
0.008894767870461019,0.027
0.009133074868880119,0.028
0.009369689255723753,0.029
0.00960452483929778,0.03
0.009837501779226408,0.031
0.010068549471981745,0.032
0.010297606692063019,0.033
0.01052461900357336,0.034
0.010749534407787639,0.035
0.010972298729404119,0.036
0.011192852131786855,0.037
0.01141112748394848,0.038
0.011627050423334215,0.039
0.01184054029937282,0.04
0.012051511023636757,0.041
0.012259871145139496,0.042
0.012465522913250928,0.043
0.012668360594057538,0.044
0.01286826907754734,0.045
0.01306512425434203,0.046
0.013258795771652234,0.047
0.01344915149662653,0.048
0.013636062769352931,0.049
0.013819409833208998,0.05
0.013999086846337884,0.051
0.014175005770900908,0.052
0.014347098499191612,0.053
0.014515316856609608,0.054
0.014679630487531134,0.055
0.01484002281539511,0.056
0.014996485162214463,0.057
0.015149009668362835,0.058
0.015297584039907693,0.059
0.015442192430226098,0.06
0.015582823047372234,0.061
0.015719478308434905,0.062
0.015852183032658885,0.063
0.015980988304983425,0.064
0.01610597022533304,0.065
0.016227224110436783,0.066
0.016344856014177657,0.067
0.01645897408257885,0.068
0.016569682015745272,0.069
0.01667707596388983,0.07
0.0167812449492778,0.071
0.016882273778102055,0.072
0.01698024665893471,0.073
0.017075249497053913,0.074
0.01716736908221847,0.075
0.017256689132604034,0.076
0.017343287124094102,0.077
0.017427237388498096,0.078
0.017508620973104374,0.079
0.01758753726674782,0.08
0.01766411248399561,0.081
0.017738502748077582,0.082
0.017810891273409953,0.083
0.017881480295159784,0.084
0.017950479648075154,0.085
0.01801809611837815,0.086
0.018084528991805977,0.087
0.018149972951358815,0.088
0.018214623234655686,0.089
0.01827867799221933,0.09
0.018342336813563353,0.091
0.018405796511714943,0.092
0.01846924571480223,0.093
0.01853286006809874,0.094
0.01859679954246459,0.095
0.01866120775961338,0.096
0.018726211843158445,0.097
0.01879192201211317,0.098
0.018858431465682602,0.099
0.018925817150562387,0.1
0.018994141247928434,0.101
0.01906345257162718,0.102
0.01913378686319761,0.103
0.019205165761569186,0.104
0.019277596063406094,0.105
0.019351071363989433,0.106
0.019425575884693628,0.107
0.01950108831409689,0.108
0.019577583912546662,0.109
0.019655034410339885,0.11
0.019733406128258548,0.111
0.019812657201284563,0.112
0.019892734735898233,0.113
0.019973572248298283,0.114
0.020055087538947112,0.115
0.02013718192487178,0.116
0.02021974211529609,0.117
0.02030264458871291,0.118
0.020385760669381334,0.119
0.020468960137617464,0.12
0.0205521116264178,0.121
0.020635079193102764,0.122
0.020717717492212743,0.123
0.020799870827993738,0.124
0.020881378302664302,0.125
0.020962080679673274,0.126
0.02104182318711234,0.127
0.021120452053696535,0.128
0.021197807663874052,0.129
0.02127372203757632,0.13
0.021348025347804465,0.131
0.021420556824646195,0.132
0.021491172613136,0.133
0.021559747210101263,0.134
0.021626168052398125,0.135
0.02169032544688585,0.136
0.021752104660586313,0.137
0.021811387564827343,0.138
0.02186806342771325,0.139
0.0219220412717857,0.14
0.021973257022435206,0.141
0.022021672524933606,0.142
0.02206726603449018,0.143
0.022110018370367707,0.144
0.02214990542568649,0.145
0.022186904011314654,0.146
0.022221004543188316,0.147
0.02225221971604289,0.148
0.022280584543545576,0.149
0.022306148017895204,0.15
0.022328960399329696,0.151
0.02234906465532882,0.152
0.022366497770366596,0.153
0.022381297533711143,0.154
0.022393506548612784,0.155
0.022403169998318512,0.156
0.022410328764042822,0.157
0.022415012764209593,0.158
0.02241723946323973,0.159
0.022417017473010985,0.16
0.022414350739929305,0.161
0.022409239883844263,0.162
0.02240168013317879,0.163
0.0223916568996501,0.164
0.022379141939265414,0.165
0.022364094151709434,0.166
0.022346466259366555,0.167
0.022326214586155302,0.168
0.022303308412527242,0.169
0.022277736437890022,0.17
0.022249508279921122,0.171
0.022218649478623707,0.172
0.02218519109577389,0.173
0.022149160169661654,0.174
0.022110578729286005,0.175
0.0220694713853356,0.176
0.022025873832021932,0.177
0.02197983629834844,0.178
0.021931421593832406,0.179
0.02188070020093791,0.18
0.021827745269088265,0.181
0.02177262957218933,0.182
0.02171542495073068,0.183
0.02165620321824965,0.184
0.02159503662391842,0.185
0.02153199602956683,0.186
0.02146714625538692,0.187
0.02140054098702158,0.188
0.02133222178013919,0.189
0.021262222737622388,0.19
0.021190577367242683,0.191
0.021117323687382086,0.192
0.02104250636190515,0.193
0.020966176162133462,0.194
0.020888387420166875,0.195
0.020809194233411127,0.196
0.020728646073836354,0.197
0.020646783302798077,0.198
0.020563633027392912,0.199
0.02047920577635551,0.2
0.02039349353748054,0.201
0.020306469679922504,0.202
0.020218091100305025,0.203
0.020128302498073163,0.204
0.020037041952930216,0.205
0.019944246071289463,0.206
0.019849852284731954,0.207
0.019753796645288226,0.208
0.019656009876509048,0.209
0.01955641937855305,0.21
0.019454961295845404,0.211
0.01935159723377989,0.212
0.01924632720592416,0.213
0.019139194038898848,0.214
0.019030277871564104,0.215
0.018919682040217326,0.216
0.018807516596699773,0.217
0.018693890422447904,0.218
0.01857891668642242,0.219
0.01846272347778542,0.22
0.018345459780719324,0.221
0.01822729439883726,0.222
0.018108409639542068,0.223
0.017988992302563993,0.224
0.017869224623507738,0.225
0.017749277564636793,0.226
0.0176293076469106,0.227
0.01750945624397164,0.228
0.0173898495050793,0.229
0.017270598879661963,0.23
0.017151802990264357,0.231
0.017033550166688095,0.232
0.016915920263493044,0.233
0.01679898504570242,0.234
0.016682807034853944,0.235
0.016567437393411613,0.236
0.01645291455593335,0.237
0.01633926533750978,0.238
0.016226508407299868,0.239
0.01611465864696127,0.24
0.01600373127037762,0.241
0.015893745216154227,0.242
0.015784725441294205,0.243
0.015676703679226224,0.244
0.015569717226261047,0.245
0.015463805469918728,0.246
0.015359004775137448,0.247
0.015255344490946624,0.248
0.01515284755537781,0.249
0.01505153579094357,0.25
0.014951436302772254,0.251
0.014852585649663849,0.252
0.014755030580193259,0.253
0.014658825436299261,0.254
0.014564026979106368,0.255
0.014470688259968958,0.256
0.014378854356904463,0.257
0.014288562082755864,0.258
0.01419984247267671,0.259
0.014112722977708115,0.26
0.014027227580685869,0.261
0.013943374803685226,0.262
0.013861174696582391,0.263
0.013780626712230876,0.264
0.01370171944014232,0.265
0.013624430938885391,0.266
0.013548728489660773,0.267
0.013474568774774608,0.268
0.013401899474980182,0.269
0.013330660986424134,0.27
0.013260786542876891,0.271
0.013192201752568166,0.272
0.013124826806704024,0.273
0.013058582630946768,0.274
0.012993398202085112,0.275
0.012929215028141186,0.276
0.012865986331970806,0.277
0.012803671368728219,0.278
0.012742229789053011,0.279
0.012681622365635224,0.28
0.012621818386854338,0.281
0.012562803751052731,0.282
0.012504584659442687,0.283
0.012447185892282409,0.284
0.012390645042623634,0.285
0.012335004909936175,0.286
0.012280306221145445,0.287
0.012226582294825684,0.288
0.012173856447280659,0.289
0.012122141660071889,0.29
0.012071441145155435,0.291
0.012021748961493694,0.292
0.01197305069175207,0.293
0.011925324332277068,0.294
0.011878541440966136,0.295
0.011832668576426167,0.296
0.011787669030716727,0.297
0.011743504740514832,0.298
0.01170013809241299,0.299
0.011657533207168246,0.3
0.011615656286067838,0.301
0.011574474788016861,0.302
0.011533955565061082,0.303
0.011494062508827667,0.304
0.011454754570299024,0.305
0.011415985025365465,0.306
0.011377702474057123,0.307
0.011339853356177473,0.308
0.011302384997210264,0.309
0.011265247731518392,0.31
0.01122839477762135,0.311
0.0111917794625646,0.312
0.011155351535816519,0.313
0.011119056284678287,0.314
0.011082838398753186,0.315
0.011046648518308744,0.316
0.011010449513998337,0.317
0.010974221170502245,0.318
0.01093796279786819,0.319
0.010901693525698577,0.32
0.010865450322283253,0.321
0.01082928393950753,0.322
0.01079325302428471,0.323
0.010757417480819997,0.324
0.010721834078503956,0.325
0.010686556910624277,0.326
0.010651641359743478,0.327
0.010617147892658588,0.328
0.010583143571521382,0.329
0.010549701210234838,0.33
0.010516896891066654,0.331
0.010484806733810009,0.332
0.010453503741149806,0.333
0.010423055311982114,0.334
0.010393521722685345,0.335
0.010364955607777818,0.336
0.010337402273625129,0.337
0.010310900566618094,0.338
0.010285483981229278,0.339
0.010261181706800876,0.34
0.010238019340370589,0.341
0.010216019020199056,0.342
0.01019519878418685,0.343
0.010175571149623497,0.344
0.010157141543140279,0.345
0.010139907842753247,0.346
0.010123861571619932,0.347
0.010108989778449052,0.348
0.010095276433839225,0.349
0.010082702990582863,0.35
0.010071248211332632,0.351
0.010060887428986877,0.352
0.010051591382411835,0.353
0.010043324732912414,0.354
0.010036044670119978,0.355
0.010029700610582098,0.356
0.010024235662370005,0.357
0.010019589249497765,0.358
0.010015699775870548,0.359
0.010012506600229149,0.36
0.01000995088213621,0.361
0.010007974981189566,0.362
0.01000652023211204,0.363
0.010005523898723003,0.364
0.010004918013048198,0.365
0.01000463221064214,0.366
0.01000459911587301,0.367
0.010004759314767282,0.368
0.010005064271387344,0.369
0.010005476703184881,0.37
0.010005968517762207,0.371
0.010006516887992856,0.372
0.010007099350174842,0.373
0.010007689448834109,0.374
0.010008255093884724,0.375
0.010008760479827612,0.376
0.01000916997461642,0.377
0.010009452062950832,0.378
0.010009582630726177,0.379
0.01000954735820381,0.38
0.010009342901963827,0.381
0.010008976501015837,0.382
0.010008463739693657,0.383
0.010007824513391194,0.384
0.010007078071619909,0.385
0.010006239285193976,0.386
0.01000531807882807,0.387
0.010004321459619256,0.388
0.010003255867956551,0.389
0.010002128474881772,0.39
0.010000947449665183,0.391
0.00999972172246772,0.392
0.009998460763063802,0.393
0.00999717464018648,0.394
0.009995874180210295,0.395
0.00999457065888372,0.396
0.009993274412385554,0.397
0.009991992361851039,0.398
0.009990725700813571,0.399
0.009989469381089215,0.4
0.009988213277248508,0.401
0.00998694309927738,0.402
0.009985639782019856,0.403
0.009984278394060752,0.404
0.009982828783876456,0.405
0.009981258586476442,0.406
0.00997953690016438,0.407
0.009977636693917923,0.408
0.009975535029990988,0.409
0.009973210828814576,0.41
0.00997064115151553,0.411
0.009967799293304064,0.412
0.009964657539696543,0.413
0.009961193335200258,0.414
0.009957395478671662,0.415
0.009953268309166003,0.416
0.00994883323982292,0.417
0.009944127523556855,0.418
0.009939200504208585,0.419
0.009934107985828637,0.42
0.009928906030940416,0.421
0.009923646345357091,0.422
0.009918374689824731,0.423
0.009913131154270428,0.424
0.009907950002564305,0.425
0.009902858713180713,0.426
0.009897877570975436,0.427
0.009893020069901242,0.428
0.00988829308325399,0.429
0.009883697434189027,0.43
0.00987923098504338,0.431
0.009874894381309564,0.432
0.009870697344854008,0.433
0.009866663467936406,0.434
0.00986283233685485,0.435
0.009859258504031519,0.436
0.00985600749266127,0.437
0.0098531496661726,0.438
0.009850753926956784,0.439
0.009848884341906191,0.44
0.009847600935358755,0.441
0.009846962160546858,0.442
0.009847026172507732,0.443
0.009847850242003084,0.444
0.00984948878734681,0.445
0.009851990843231798,0.446
0.009855398176723927,0.447
0.009859744757729683,0.448
0.009865056879279065,0.449
0.009871352972715268,0.45
0.009878643606641521,0.451
0.009886932751498873,0.452
0.009896220221969782,0.453
0.009906504384159354,0.454
0.00991778448942816,0.455
0.009930062303489352,0.456
0.009943342723904566,0.457
0.009957633104302805,0.458
0.009972941145501174,0.459
0.009989271786709226,0.46
0.010006624701888529,0.461
0.010024994254302191,0.462
0.010044371803163435,0.463
0.010064748335320929,0.464
0.010086115678419202,0.465
0.010108465748351864,0.466
0.010131788092410375,0.467
0.010156066969942328,0.468
0.010181279988961438,0.469
0.010207399048890536,0.47
0.01023439211270159,0.471
0.010262224231451907,0.472
0.01029085756782524,0.473
0.010320250711650734,0.474
0.01035035748182716,0.475
0.010381125350702547,0.476
0.010412493923692596,0.477
0.010444394350947087,0.478
0.010476750128714686,0.479
0.010509478733857786,0.48
0.010542493405379993,0.481
0.010575704928861349,0.482
0.010609023424504298,0.483
0.010642359910573457,0.484
0.010675627182431752,0.485
0.01070873947999063,0.486
0.010741610575383203,0.487
0.01077415072576489,0.488
0.010806264514104961,0.489
0.0108378517205779,0.49
0.01086881079053266,0.491
0.01089904238924228,0.492
0.010928451047278524,0.493
0.01095694421274537,0.494
0.010984428992347747,0.495
0.011010808320743245,0.496
0.011035979614828311,0.497
0.011059837283567152,0.498
0.01108227697736571,0.499
0.011103198773959424,0.5
0.011122508121218764,0.501
0.011140114329414544,0.502
0.01115592697405827,0.503
0.011169852231569974,0.504
0.011181792847518461,0.505
0.011191653536966368,0.506
0.011199349345912041,0.507
0.011204813127388615,0.508
0.011207999669396269,0.509
0.011208885268307312,0.51
0.011207462565928202,0.511
0.01120373221988087,0.512
0.011197695791270059,0.513
0.011189354881847057,0.514
0.011178716769514256,0.515
0.011165801740306801,0.516
0.011150647838564839,0.517
0.011133311779806119,0.518
0.011113866364424343,0.519
0.011092395374615769,0.52
0.01106898733814422,0.521
0.011043729570371339,0.522
0.011016703549635217,0.523
0.010987982072984315,0.524
0.01095762800327372,0.525
0.010925693968564841,0.526
0.010892222396183556,0.527
0.010857245884045104,0.528
0.010820788430906456,0.529
0.010782867790775854,0.53
0.010743498693770006,0.531
0.010702696436995148,0.532
0.010660480231344995,0.533
0.010616875608419821,0.534
0.010571915300750545,0.535
0.010525638388499169,0.536
0.010478088060522342,0.537
0.010429308799255054,0.538
0.010379343881692956,0.539
0.010328233698861084,0.54
0.0102760147233086,0.541
0.010222718387592318,0.542
0.010168369639107173,0.543
0.010112986623550545,0.544
0.010056583008140132,0.545
0.009999172086076499,0.546
0.009940770617073299,0.547
0.009881401282463557,0.548
0.00982109351820955,0.549
0.009759882838469765,0.55
0.009697808986972733,0.551
0.009634913440022815,0.552
0.009571236919438657,0.553
0.0095068175385103,0.554
0.009441689930208608,0.555
0.009375885271213158,0.556
0.00930943168325467,0.557
0.009242354225369148,0.558
0.00917467395755078,0.559
0.009106406895746258,0.56
0.009037564970700077,0.561
0.008968159964645086,0.562
0.008898208857908322,0.563
0.008827738286064861,0.564
0.008756786750425205,0.565
0.00868540413778827,0.566
0.008613648795837453,0.567
0.008541582963377578,0.568
0.008469267898130425,0.569
0.008396760598756665,0.57
0.008324113318529558,0.571
0.008251375016046636,0.572
0.008178592979070861,0.573
0.008105813781659255,0.574
0.008033083638810442,0.575
0.007960448396606137,0.576
0.007887953319770144,0.577
0.007815642744515391,0.578
0.007743559588496766,0.579
0.007671744673458413,0.58
0.007600235810947992,0.581
0.007529066611356662,0.582
0.0074582652602192085,0.583
0.007387854067415763,0.584
0.007317850363525444,0.585
0.007248268212064704,0.586
0.007179119995588641,0.587
0.007110417363334171,0.588
0.007042171321754726,0.589
0.006974391342451776,0.59
0.006907083795326163,0.591
0.006840250897755639,0.592
0.006773891332662809,0.593
0.006708002118176877,0.594
0.006642580254003395,0.595
0.006577623166572166,0.596
0.006513127773584074,0.597
0.006449088696923661,0.598
0.006385497079532203,0.599
0.006322341371010331,0.6
0.006259609792322311,0.601
0.006197293037975216,0.602
0.00613538611075241,0.603
0.00607388880298368,0.604
0.006012804677572862,0.605
0.005952138693176954,0.606
0.005891894361076711,0.607
0.00583207235279191,0.608
0.005772671707990346,0.609
0.005713692406063328,0.61
0.005655137380831643,0.611
0.0055970131553090005,0.612
0.005539329047339805,0.613
0.005482095267284196,0.614
0.005425320576947486,0.615
0.005369010326326145,0.616
0.005313165530673952,0.617
0.005257783252074305,0.618
0.0052028580727881725,0.619
0.005148384066450351,0.62
0.005094356501457602,0.621
0.005040772575952359,0.622
0.004987630737502572,0.623
0.00493492895367837,0.624
0.004882663677311506,0.625
0.004830831162822222,0.626
0.004779430587940086,0.627
0.004728467066573836,0.628
0.004677953273905333,0.629
0.004627909344414382,0.63
0.004578361236641636,0.631
0.0045293381049169145,0.632
0.004480869410880947,0.633
0.004432982603839392,0.634
0.004385702004393256,0.635
0.004339048742253935,0.636
0.004293040939617891,0.637
0.004247693629735918,0.638
0.004203018521517973,0.639
0.004159023901185342,0.64
0.00411571486300609,0.641
0.004073093918020485,0.642
0.00403116189295161,0.643
0.003989918955046944,0.644
0.003949365600625006,0.645
0.003909503494595595,0.646
0.0038703360969368074,0.647
0.003831869034764183,0.648
0.003794110178684109,0.649
0.0037570693734225555,0.65
0.0037207577711409257,0.651
0.0036851867395706075,0.652
0.003650366553411114,0.653
0.0036163055765287603,0.654
0.003583010623861229,0.655
0.0035504883172809334,0.656
0.0035187466599035794,0.657
0.0034877962923584183,0.658
0.003457651250045943,0.659
0.003428329175905054,0.66
0.003399851025026207,0.661
0.003372240379652723,0.662
0.0033455225375740435,0.663
0.0033197235250731036,0.664
0.0032948691366763484,0.665
0.003270984054234351,0.666
0.003248091068435052,0.667
0.003226210470137626,0.668
0.0032053597733873837,0.669
0.0031855538359409317,0.67
0.00316680519844466,0.671
0.003149124444279489,0.672
0.0031325205403770406,0.673
0.0031170011839264725,0.674
0.00310257316599915,0.675
0.003089242749384685,0.676
0.0030770160517190333,0.677
0.0030658994232669267,0.678
0.0030558998008994817,0.679
0.0030470250009237026,0.68
0.0030392838924003726,0.681
0.0030326863848592076,0.682
0.0030272431787233623,0.683
0.0030229652615045596,0.684
0.003019863178439506,0.685
0.003017946186814435,0.686
0.0030172215715594843,0.687
0.0030176944739031156,0.688
0.003019368274700002,0.689
0.0030222451757084853,0.69
0.003026326622706065,0.691
0.003031613434665928,0.692
0.0030381056284795836,0.693
0.003045802003753306,0.694
0.003054699631413754,0.695
0.0030647934287650917,0.696
0.0030760759732043263,0.697
0.0030885376186977993,0.698
0.0031021668773308733,0.699
0.003116950955938439,0.7
0.0031328763095080357,0.701
0.0031499290759301997,0.702
0.003168095278185124,0.703
0.0031873607275857093,0.704
0.0032077106449910115,0.705
0.003229129113043286,0.706
0.0032515985264571713,0.707
0.0032750991797163213,0.708
0.00329960903870121,0.709
0.0033251036441537245,0.71
0.0033515560445269393,0.711
0.003378936666408374,0.712
0.003407213115412686,0.713
0.0034363500534610385,0.714
0.003466309359059103,0.715
0.0034970506431025172,0.716
0.0035285320514437763,0.717
0.0035607112523380257,0.718
0.003593546476423063,0.719
0.0036269974245164657,0.72
0.0036610258536811575,0.721
0.0036955957101061517,0.722
0.003730672764066226,0.723
0.0037662237812264767,0.724
0.0038022153219109335,0.725
0.003838612424411929,0.726
0.0038753777362722512,0.727
0.003912471571965832,0.728
0.003949852721058784,0.729
0.003987479462321087,0.73
0.004025310481059477,0.731
0.004063305642205987,0.732
0.004101426587773383,0.733
0.004139637072104191,0.734
0.004177902926810917,0.735
0.004216191581401548,0.736
0.0042544711388098205,0.737
0.004292709080515838,0.738
0.004330870883742132,0.739
0.0043689191868367915,0.74
0.004406813978943798,0.741
0.004444513496804586,0.742
0.004481975130654213,0.743
0.004519155934327045,0.744
0.004556012615052661,0.745
0.004592500963077956,0.746
0.004628574850392804,0.747
0.004664185356223316,0.748
0.004699280769772267,0.749
0.004733807540475617,0.75
0.0047677113825087426,0.751
0.004800937698724033,0.752
0.004833430981479434,0.753
0.00486513363856466,0.754
0.0048959856155991075,0.755
0.0049259257380128785,0.756
0.004954893992562793,0.757
0.004982833402723731,0.758
0.005009690869957376,0.759
0.005035416876250092,0.76
0.005059964110050693,0.761
0.00508328536928988,0.762
0.0051053318361007115,0.763
0.005126053235599881,0.764
0.0051454002453290145,0.765
0.005163327913801371,0.766
0.005179798616018134,0.767
0.005194783650170752,0.768
0.005208262917759073,0.769
0.005220222430712435,0.77
0.005230650514310128,0.771
0.005239535351328631,0.772
0.005246865951748693,0.773
0.005252635323164754,0.774
0.005256843125922838,0.775
0.0052594965313873965,0.776
0.005260609390888916,0.777
0.005260200251961065,0.778
0.005258289823848023,0.779
0.005254898412984814,0.78
0.0052500437665913575,0.781
0.0052437397216865255,0.782
0.005235995792818496,0.783
0.005226817384852131,0.784
0.005216206252629016,0.785
0.005204161169280955,0.786
0.005190678975541454,0.787
0.005175756128491419,0.788
0.005159390720718507,0.789
0.005141584761983582,0.79
0.005122346324494336,0.791
0.0051016910200406065,0.792
0.005079642286520219,0.793
0.00505623014166936,0.794
0.005031488398768989,0.795
0.0050054513701011175,0.796
0.0049781524871556964,0.797
0.004949626291609509,0.798
0.004919912221398089,0.799
0.004889057757426817,0.8
0.004857119842539385,0.801
0.004824164367234836,0.802
0.0047902638660442245,0.803
0.004755494023695314,0.804
0.004719930307395865,0.805
0.004683646403451197,0.806
0.004646714808419333,0.807
0.004609208082638637,0.808
0.00457119939274132,0.809
0.004532762224291724,0.81
0.004493969685398841,0.811
0.004454893777862601,0.812
0.004415604855153946,0.813
0.004376171284262982,0.814
0.004336659162797212,0.815
0.004297131907018489,0.816
0.0042576497873076154,0.817
0.004218269894569128,0.818
0.004179046864429647,0.819
0.004140034008579124,0.82
0.004101284251941999,0.821
0.004062850526540272,0.822
0.004024785497857543,0.823
0.003987140684666587,0.824
0.003949965405194579,0.825
0.00391330630115605,0.826
0.003877207725522169,0.827
0.0038417123990452996,0.828
0.0038068616778601664,0.829
0.0037726953329157943,0.83
0.0037392510504071453,0.831
0.0037065638885472427,0.832
0.003674665864138558,0.833
0.003643585741092971,0.834
0.0036133490036537796,0.835
0.003583977946115147,0.836
0.003555491795762549,0.837
0.0035279067920759833,0.838
0.0035012361647239055,0.839
0.0034754900290675794,0.84
0.0034506753463207454,0.841
0.0034267960723441977,0.842
0.003403853410785017,0.843
0.003381845984801219,0.844
0.0033607698121829446,0.845
0.0033406181377987963,0.846
0.0033213814212139413,0.847
0.003303047732300545,0.848
0.0032856033976406524,0.849
0.0032690335304882126,0.85
0.0032533222021862997,0.851
0.003238452162935102,0.852
0.0032244042677219875,0.853
0.0032111571434194613,0.854
0.003198687520833171,0.855
0.0031869709529857345,0.856
0.0031759822850400913,0.857
0.00316569549266995,0.858
0.0031560830897801105,0.859
0.0031471160259168296,0.86
0.003138764791756056,0.861
0.003131001251631427,0.862
0.0031238001957647962,0.863
0.0031171400218949876,0.864
0.0031110023556272966,0.865
0.003105370654513194,0.866
0.0031002283663301195,0.867
0.003095557927814097,0.868
0.003091341426385541,0.869
0.0030875622041714834,0.87
0.0030842062523074405,0.871
0.0030812629975326914,0.872
0.0030787255416714564,0.873
0.003076590448034381,0.874
0.0030748571482880093,0.875
0.003073527041436486,0.876
0.003072602389905322,0.877
0.0030720851597344848,0.878
0.0030719759654246016,0.879
0.0030722732567719426,0.88
0.0030729728271858808,0.881
0.003074067609796418,0.882
0.0030755476204561527,0.883
0.003077399928611372,0.884
0.003079608646277152,0.885
0.003082154988168173,0.886
0.0030850174546217897,0.887
0.003088172161825292,0.888
0.003091593305703785,0.889
0.0030952537057519726,0.89
0.0030991253454310465,0.891
0.0031031798210469784,0.892
0.0031073886401119795,0.893
0.0031117233674304054,0.894
0.0031161556840722205,0.895
0.003120657476542086,0.896
0.0031252010822396554,0.897
0.003129759755882446,0.898
0.0031343082927987476,0.899
0.0031388236064184586,0.9
0.0031432849960404464,0.901
0.003147673908156403,0.902
0.0031519731620338353,0.903
0.0031561657906378055,0.904
0.0031602337780136957,0.905
0.0031641570493902284,0.906
0.0031679129847656143,0.907
0.0031714763919474037,0.908
0.0031748196284780103,0.909
0.0031779126891765476,0.91
0.0031807232604183808,0.911
0.0031832167319449903,0.912
0.0031853561250543014,0.913
0.003187101987587657,0.914
0.003188412481377437,0.915
0.0031892440100804286,0.916
0.003189552653225186,0.917
0.003189296357982906,0.918
0.0031884374611086076,0.919
0.0031869449139566002,0.92
0.0031847956716256447,0.921
0.0031819749872582866,0.922
0.0031784756484600756,0.923
0.003174296385635639,0.924
0.0031694397417502303,0.925
0.003163909729893378,0.926
0.003157709903715171,0.927
0.003150842729420237,0.928
0.0031433104507305196,0.929
0.0031351165362086203,0.93
0.0031262667737866822,0.931
0.0031167697633581117,0.932
0.0031066369192994177,0.933
0.0030958821654304847,0.934
0.003084521516064477,0.935
0.0030725727049372847,0.936
0.003060054970037337,0.937
0.0030469890366804763,0.938
0.0030333972687778665,0.939
0.0030193038948034146,0.94
0.0030047351854295256,0.941
0.0029897194759981004,0.942
0.0029742869731215773,0.943
0.0029584693317491312,0.944
0.0029422990194739973,0.945
0.00292580850063907,0.946
0.0029090293129647345,0.947
0.0028919912816539684,0.948
0.0028747222885447156,0.949
0.0028572487506825397,0.95
0.002839596462880861,0.951
0.0028217913920708963,0.952
0.0028038602577389465,0.953
0.0027858308542609055,0.954
0.002767732096602288,0.955
0.002749593804517335,0.956
0.0027314462747115137,0.957
0.002713319718055724,0.958
0.0026952436510671606,0.959
0.002677246321280799,0.96
0.0026593542181318455,0.961
0.0026415917011929,0.962
0.0026239807913236908,0.963
0.0026065411662202064,0.964
0.0025892903283925386,0.965
0.002572243845651585,0.966
0.0025554155629145332,0.967
0.0025388176998114766,0.968
0.0025224607622092734,0.969
0.002506353317305598,0.97
0.0024905018989414746,0.971
0.0024749112561476055,0.972
0.002459584811893649,0.973
0.0024445250812018147,0.974
0.002429733961311695,0.975
0.0024152129140320084,0.976
0.0024009630640743564,0.977
0.0023869852128666036,0.978
0.0023732797400536614,0.979
0.0023598463520757887,0.98
0.0023466836722250955,0.981
0.0023337888487593005,0.982
0.002321157569519538,0.983
0.002308784691227662,0.984
0.002296665234183037,0.985
0.002284795353237459,0.986
0.0022731730549244325,0.987
0.002261798545452945,0.988
0.002250674155579544,0.989
0.0022398038531549597,0.99
0.0022291924066426346,0.991
0.0022188443724837216,0.992
0.002208763304448283,0.993
0.002198951592292143,0.994
0.002189410844281048,0.995
0.0021801422890303725,0.996
0.0021711468140894843,0.997
0.002162424622613715,0.998
0.0021539747044601984,0.999
0.0021457943960436396,1.0
0.0021378791742468904,1.001
0.0021302226152694875,1.002
0.0021228164726475062,1.003
0.002115650902214764,1.004
0.002108714717329248,1.005
0.0021019954560004593,1.006
0.0020954792308699797,1.007
0.0020891506703339495,1.008
0.0020829932594830123,1.009
0.002076989947958984,1.01
0.002071123627302554,1.011
0.002065377212601003,1.012
0.0020597332836559284,1.013
0.0020541735681837963,1.014
0.0020486788731878393,1.015
0.00204322978533754,1.016
0.002037807759293248,1.017
0.002032396027537037,1.018
0.0020269800676771545,1.019
0.002021547584485243,1.02
0.00201608805806252,1.021
0.00201059196752037,1.022
0.00200504983798531,1.023
0.001999451396367821,1.024
0.001993785271130367,1.025
0.001988039408436504,1.026
0.0019822018776328035,1.027
0.0019762616764101887,1.028
0.0019702093980065944,1.029
0.001964037731776656,1.03
0.001957741768766981,1.031
0.0019513190936292087,1.032
0.001944769658591513,1.033
0.0019380954464911534,1.034
0.001931299937516831,1.035
0.0019243874059844306,1.036
0.0019173620917573033,1.037
0.0019102274141015543,1.038
0.001902985605392001,1.039
0.0018956379953832948,1.04
0.001888185701034568,1.041
0.0018806303572146063,1.042
0.0018729747471472778,1.043
0.0018652232982471135,1.044
0.0018573824064132517,1.045
0.0018494605617969612,1.046
0.001841468266061004,1.047
0.0018334177458700425,1.048
0.0018253224808126324,1.049
0.0018171965804128815,1.05
0.0018090540620554606,1.051
0.0018009081580749,1.052
0.0017927709094952675,1.053
0.0017846532080711313,1.054
0.001776565122217537,1.055
0.0017685162421258165,1.056
0.0017605159517700881,1.057
0.0017525736501620146,1.058
0.0017446989438937848,1.059
0.001736901811777457,1.06
0.0017291927307947965,1.061
0.0017215827559943263,1.062
0.001714083556717367,1.063
0.0017067074091268073,1.064
0.001699467123693359,1.065
0.0016923758633713534,1.066
0.0016854468085735388,1.067
0.0016786926780469412,1.068
0.001672125264488984,1.069
0.0016657552545728887,1.07
0.001659592389750819,1.071
0.0016536456871065796,1.072
0.0016479234533916037,1.073
0.0016424330740298647,1.074
0.0016371807210559862,1.075
0.0016321711600196425,1.076
0.001627407711018329,1.077
0.0016228922524816457,1.078
0.0016186251897833935,1.079
0.001614605433985958,1.08
0.001610830431125005,1.081
0.0016072962259308296,1.082
0.001603997556849938,1.083
0.0016009280120461741,1.084
0.0015980802640865497,1.085
0.001595446364070947,1.086
0.001593018051315121,1.087
0.0015907870343188327,1.088
0.001588745212264434,1.089
0.0015868848125471394,1.09
0.0015851984102257632,1.091
0.00158367878525156,1.092
0.0015823185864483782,1.093
0.0015811098710612197,1.094
0.0015800437805505894,1.095
0.0015791106190972612,1.096
0.0015783002887795727,1.097
0.0015776028121477362,1.098
0.0015770087670014228,1.099
0.0015765096061309237,1.1
0.0015760978726969597,1.101
0.001575767307340092,1.102
0.0015755128282876993,1.103
0.0015753303679536842,1.104
0.0015752165667020936,1.105
0.0015751683399137643,1.106
0.0015751823436606156,1.107
0.0015752544658666416,1.108
0.0015753796539924735,1.109
0.0015755522814980946,1.11
0.001575766856498825,1.111
0.0015760187391582674,1.112
0.0015763046854859837,1.113
0.0015766231358430988,1.114
0.0015769742069940715,1.115
0.0015773593937018749,1.116
0.0015777810213372936,1.117
0.0015782415289999463,1.118
0.0015787428088783848,1.119
0.001579285997494124,1.12
0.0015798718949690334,1.121
0.0015805017166936066,1.122
0.0015811777938157083,1.123
0.0015819040573468565,1.124
0.0015826862472062167,1.125
0.0015835318050376444,1.126
0.0015844494535850928,1.127
0.0015854485325609573,1.128
0.0015865382293029854,1.129
0.0015877269185082487,1.13
0.001589021844870514,1.131
0.0015904291909877642,1.132
0.001591954335852088,1.133
0.0015936021382084967,1.134
0.001595377219613649,1.135
0.0015972842269029758,1.136
0.0015993279992182463,1.137
0.00160151355930282,1.138
0.0016038459000076429,1.139
0.0016063296154359462,1.14
0.001608968485546421,1.141
0.0016117651312331572,1.142
0.0016147208161569587,1.143
0.0016178354114467091,1.144
0.0016211074908787102,1.145
0.0016245345018109667,1.146
0.0016281129592240142,1.147
0.0016318386254530897,1.148
0.001635706652003843,1.149
0.0016397116621966424,1.15
0.0016438477451089205,1.151
0.0016481083227641838,1.152
0.0016524859044764625,1.153
0.0016569719070703803,1.154
0.0016615568020474608,1.155
0.0016662306417585884,1.156
0.0016709837591952711,1.157
0.001675807412265895,1.158
0.0016806942346467644,1.159
0.0016856384115018098,1.16
0.001690635536542272,1.161
0.0016956821470476549,1.162
0.0017007749941704152,1.163
0.001705910296211476,1.164
0.0017110834249156994,1.165
0.0017162892040749167,1.166
0.0017215224413986735,1.167
0.0017267782456788835,1.168
0.0017320520076654097,1.169
0.0017373391130263572,1.17
0.0017426344890107098,1.171
0.0017479321222662904,1.172
0.0017532247586015464,1.173
0.001758503936501755,1.174
0.0017637602570998966,1.175
0.0017689836551994013,1.176
0.0017741635295872326,1.177
0.0017792887206115984,1.178
0.0017843473970922403,1.179
0.0017893269549167548,1.18
0.0017942140283100695,1.181
0.0017989946629094085,1.182
0.0018036546163463598,1.183
0.001808179673564076,1.184
0.0018125558266346344,1.185
0.001816769191555658,1.186
0.0018208056113643404,1.187
0.0018246501108444906,1.188
0.00182828666339917,1.189
0.0018316985923549768,1.19
0.001834869393585764,1.191
0.0018377836060456544,1.192
0.0018404275761693986,1.193
0.001842790059271843,1.194
0.00184486257631097,1.195
0.0018466394400463943,1.196
0.0018481173919208964,1.197
0.001849294839522974,1.198
0.0018501708077042992,1.199
0.0018507440312310359,1.2
0.0018510128143467417,1.201
0.0018509758071204405,1.202
0.0018506331586637653,1.203
0.0018499874774138075,1.204
0.0018490443966430045,1.205
0.001847812734450702,1.206
0.001846304283877173,1.207
0.0018445332910988076,1.208
0.0018425156819834143,1.209
0.001840268093681628,1.21
0.0018378068888683526,1.211
0.001835147582640601,1.212
0.0018323049837321648,1.213
0.0018292937698472691,1.214
0.0018261289808783902,1.215
0.0018228261902997623,1.216
0.0018194013651077685,1.217
0.001815870506968759,1.218
0.0018122491985170807,1.219
0.001808552182253236,1.22
0.0018047930699971874,1.221
0.001800984224747998,1.222
0.0017971367968278673,1.223
0.0017932608578991004,1.224
0.0017893655692955907,1.225
0.0017854593368229164,1.226
0.0017815499288157098,1.227
0.0017776445541458899,1.228
0.001773749900530359,1.229
0.0017698721200057365,1.23
0.0017660167337213105,1.231
0.0017621884334907709,1.232
0.0017583908053982172,1.233
0.0017546260968530846,1.234
0.001750895190316977,1.235
0.0017471978240909706,1.236
0.0017435329531435963,1.237
0.0017398991478880506,1.238
0.0017362949946073906,1.239
0.0017327194694589656,1.24
0.001729172235821997,1.241
0.0017256537985332193,1.242
0.0017221654482386512,1.243
0.0017187089568374036,1.244
0.0017152860436160076,1.245
0.0017118977490549248,1.246
0.0017085439784080576,1.247
0.0017052233546864285,1.248
0.0017019332190038958,1.249
0.0016986696487104234,1.25
0.0016954276440943026,1.251
0.001692201572990258,1.252
0.0016889856566738967,1.253
0.0016857742089743534,1.254
0.0016825614880910773,1.255
0.001679341258895297,1.256
0.0016761064859287865,1.257
0.0016728495876384309,1.258
0.0016695631991531688,1.259
0.0016662410380951212,1.26
0.0016628785606502387,1.261
0.0016594732732358544,1.262
0.0016560246514455883,1.263
0.0016525336895566688,1.264
0.0016490021763745817,1.265
0.0016454318568410583,1.266
0.0016418237376729906,1.267
0.0016381778415285365,1.268
0.0016344934838670756,1.269
0.0016307698370145215,1.27
0.0016270065514148765,1.271
0.0016232043618036125,1.272
0.0016193656275909462,1.273
0.001615494710132171,1.274
0.0016115980783823168,1.275
0.0016076840661618525,1.276
0.0016037622702507971,1.277
0.0015998426888678818,1.278
0.0015959349137454574,1.279
0.0015920478256289858,1.28
0.0015881899071111644,1.281
0.0015843697745117657,1.282
0.0015805965160712162,1.283
0.0015768797272723233,1.284
0.0015732292944133565,1.285
0.0015696550217243032,1.286
0.001566166222875667,1.287
0.001562771395841741,1.288
0.0015594780708025667,1.289
0.0015562928697147942,1.29
0.001553221753417196,1.291
0.0015502703741110287,1.292
0.0015474444169090273,1.293
0.001544749816449021,1.294
0.0015421927726041334,1.295
0.0015397795482353447,1.296
0.00153751608820392,1.297
0.0015354075756873473,1.298
0.0015334581421777562,1.299
0.0015316708932507615,1.3
0.0015300481671339523,1.301
0.0015285918150037923,1.302
0.0015273033802609217,1.303
0.0015261841530864143,1.304
0.0015252351121580372,1.305
0.0015244567859390734,1.306
0.0015238490820018043,1.307
0.0015234111384809287,1.308
0.0015231412496407753,1.309
0.001523036908832536,1.31
0.0015230949909352607,1.311
0.0015233120606248877,1.312
0.001523684752892293,1.313
0.0015242101440671872,1.314
0.0015248860239723471,1.315
0.0015257109905999124,1.316
0.0015266843130812345,1.317
0.0015278055474298056,1.318
0.0015290739799304971,1.319
0.0015304881395244848,1.32
0.0015320456587118124,1.321
0.0015337434721310376,1.322
0.0015355780499435809,1.323
0.0015375454340602849,1.324
0.0015396410681457213,1.325
0.0015418595175902376,1.326
0.0015441941907942793,1.327
0.0015466371587528943,1.328
0.0015491791387798285,1.329
0.0015518096691235358,1.33
0.001554517454214973,1.331
0.0015572908067517676,1.332
0.001560118066670768,1.333
0.0015629878612157127,1.334
0.0015658890979409297,1.335
0.0015688106439810078,1.336
0.001571740822303747,1.337
0.0015746671306033663,1.338
0.0015775764975890698,1.339
0.0015804558783186653,1.34
0.001583292758758138,1.341
0.0015860753325385873,1.342
0.0015887922949742327,1.343
0.0015914323205977654,1.344
0.0015939835259112859,1.345
0.0015964333860877123,1.346
0.0015987692709895536,1.347
0.0016009792666020323,1.348
0.0016030528766167351,1.349
0.0016049814108572036,1.35
0.0016067579711268457,1.351
0.001608376979090428,1.352
0.001609833351560538,1.353
0.0016111217958367863,1.354
0.001612236819654235,1.355
0.0016131734793660456,1.356
0.0016139282818911928,1.357
0.001614499733987675,1.358
0.001614888409524143,1.359
0.0016150965965953553,1.36
0.0016151276426255353,1.361
0.0016149851344026008,1.362
0.0016146721157981334,1.363
0.0016141906623371512,1.364
0.0016135419842281268,1.365
0.0016127268347653828,1.366
0.001611745876909695,1.367
0.0016105998276340287,1.368
0.0016092893142727461,1.369
0.001607814491289173,1.37
0.0016061747100340681,1.371
0.0016043686025866493,1.372
0.0016023945770304356,1.373
0.0016002513622521309,1.374
0.0015979382949178208,1.375
0.0015954552632979025,1.376
0.0015928023448132714,1.377
0.0015899792611830305,1.378
0.0015869849227558063,1.379
0.0015838173735651798,1.38
0.0015804741715847274,1.381
0.0015769529337250061,1.382
0.0015732518044159326,1.383
0.0015693697809863816,1.384
0.0015653068883792354,1.385
0.001561064176822951,1.386
0.001556643499351092,1.387
0.0015520470397267121,1.388
0.001547276691710398,1.389
0.0015423336386747566,1.39
0.0015372184687888902,1.391
0.0015319317393149676,1.392
0.0015264746283683067,1.393
0.0015208494371610687,1.394
0.0015150598739249019,1.395
0.001509111093102888,1.396
0.0015030094707923656,1.397
0.0014967621167843751,1.398
0.0014903762034410297,1.399
0.001483858394896237,1.4
0.00147721475342387,1.401
0.0014704511531122824,1.402
0.0014635737910311042,1.403
0.0014565893932770846,1.404
0.0014495049836548257,1.405
0.001442327358541692,1.406
0.0014350626999077695,1.407
0.0014277166891433135,1.408
0.0014202949714745773,1.409
0.0014128035523554906,1.41
0.0014052488978532035,1.411
0.001397637713341107,1.412
0.0013899765008743561,1.413
0.0013822712179927237,1.414
0.0013745274287201045,1.415
0.001366750971721902,1.416
0.0013589487812413336,1.417
0.001351129504566829,1.418
0.0013433037461145336,1.419
0.001335483889325575,1.42
0.001327683534620195,1.421
0.0013199167029536933,1.422
0.001312197133145073,1.423
0.0013045380724648593,1.424
0.0012969526273457872,1.425
0.0012894543089938372,1.426
0.0012820574063294502,1.427
0.0012747770665188986,1.428
0.0012676291071031386,1.429
0.0012606296476658282,1.43
0.0012537946875353758,1.431
0.0012471397480916227,1.432
0.0012406796502941017,1.433
0.0012344284348276863,1.434
0.0012283993792436081,1.435
0.0012226050384458623,1.436
0.0012170572349930104,1.437
0.00121176696903292,1.438
0.0012067443150138532,1.439
0.001201998420647994,1.44
0.0011975376090203331,1.441
0.0011933694453633182,1.442
0.0011895006849271096,1.443
0.0011859372113826154,1.444
0.0011826841329340334,1.445
0.0011797460316935824,1.446
0.0011771272037213003,1.447
0.0011748317546287437,1.448
0.001172863521585541,1.449
0.001171225872557206,1.45
0.001169921476620262,1.451
0.0011689521358554374,1.452
0.001168318721616634,1.453
0.0011680211970067924,1.454
0.0011680586694365822,1.455
0.0011684294167615267,1.456
0.0011691308544744938,1.457
0.0011701594592152227,1.458
0.0011715107353653387,1.459
0.001173179320105374,1.46
0.0011751592231071817,1.461
0.0011774441107594937,1.462
0.0011800275438933303,1.463
0.0011829031113489573,1.464
0.0011860644427390975,1.465
0.0011895051313937624,1.466
0.0011932186329241367,1.467
0.0011971982056554577,1.468
0.0012014369239179183,1.469
0.0012059277439875546,1.47
0.0012106635643877655,1.471
0.0012156372140881117,1.472
0.0012208413200949038,1.473
0.0012262680550094505,1.474
0.001231908885625329,1.475
0.0012377545497282794,1.476
0.0012437953598594942,1.477
0.0012500216788246194,1.478
0.001256424365545337,1.479
0.001262995109212846,1.48
0.0012697266477854283,1.481
0.0012766128899500831,1.482
0.0012836489526539064,1.483
0.001290831094112915,1.484
0.0012981564994480233,1.485
0.0013056228948873489,1.486
0.001313228024151726,1.487
0.0013209691041737256,1.488
0.0013288424335896982,1.489
0.0013368432287248551,1.49
0.0013449655764417889,1.491
0.0013532023849414567,1.492
0.001361545337961695,1.493
0.001369984905376163,1.494
0.0013785104744255894,1.495
0.0013871106604904004,1.496
0.0013957737715889736,1.497
0.0014044883277801784,1.498
0.0014132435424733015,1.499
0.0014220297062035718,1.5
0.0014308384469175974,1.501
0.0014396628676717025,1.502
0.0014484975700098678,1.503
0.0014573385587191578,1.504
0.001466183002492681,1.505
0.0014750288104907361,1.506
0.0014838740294587116,1.507
0.0014927162833071963,1.508
0.0015015526928266393,1.509
0.0015103804505853268,1.51
0.001519197697150302,1.511
0.0015280042537476192,1.512
0.0015368020297919416,1.513
0.0015455950996019537,1.514
0.0015543895096241885,1.515
0.0015631929084639977,1.516
0.00157201408489826,1.517
0.0015808624676845288,1.518
0.0015897476046968326,1.519
0.0015986786232835147,1.52
0.001607663759449559,1.521
0.0016167101904827638,1.522
0.00162582430625966,1.523
0.0016350122420740276,1.524
0.001644280404556356,1.525
0.0016536358378677163,1.526
0.0016630863359889212,1.527
0.0016726402366389636,1.528
0.0016823059064861188,1.529
0.0016920910931124964,1.53
0.0017020025124670033,1.531
0.0017120458957157138,1.532
0.0017222262913174722,1.533
0.0017325483051223642,1.534
0.0017430161759985948,1.535
0.001753633709880612,1.536
0.001764404089232843,1.537
0.001775329580466554,1.538
0.0017864112717211863,1.539
0.0017976490828481746,1.54
0.001809042123003581,1.541
0.0018205891530992972,1.542
0.0018322888399754033,1.543
0.0018441396403108417,1.544
0.0018561393837365006,1.545
0.0018682849451583875,1.546
0.001880572430952882,1.547
0.0018929978307175332,1.548
0.0019055577028144913,1.549
0.0019182495493658871,1.55
0.0019310717677184404,1.551
0.0019440232122866924,1.552
0.001957102496612839,1.553
0.0019703072666661697,1.554
0.0019836337447136456,1.555
0.0019970766600872596,1.556
0.002010629357995174,1.557
0.0020242838573398692,1.558
0.002038030857700484,1.559
0.0020518598173212567,1.56
0.0020657592011235565,1.561
0.0020797169256132706,1.562
0.0020937209489315187,1.563
0.0021077598995879964,1.564
0.0021218236189126717,1.565
0.0021359035039662296,1.566
0.002149992566288051,1.567
0.0021640851581052637,1.568
0.0021781763596242674,1.569
0.002192261119581464,1.57
0.0022063334947610832,1.571
0.0022203865092058606,1.572
0.0022344127928169413,1.573
0.002248405599375557,1.574
0.00226235975333716,1.575
0.002276272337753417,1.576
0.002290143055157979,1.577
0.0023039742120737412,1.578
0.0023177703097534944,1.579
0.0023315372743349235,1.58
0.0023452814242538684,1.581
0.002359008396849846,1.582
0.002372722409972881,1.583
0.0023864260941994964,1.584
0.002400120681201672,1.585
0.0024138061538757907,1.586
0.0024274811951864894,1.587
0.0024411429851322487,1.588
0.0024547869359698663,1.589
0.0024684064370209505,1.59
0.00248199266006333,1.591
0.0024955344656634754,1.592
0.0025090184306835813,1.593
0.0025224289871626573,1.594
0.0025357486523027127,1.595
0.002548958318150511,1.596
0.0025620375313120305,1.597
0.0025749646555377373,1.598
0.0025877168013665837,1.599
0.0026002695364823925,1.6
0.0026125967240792805,1.601
0.0026246709525484884,1.602
0.00263646460606033,1.603
0.0026479512167506053,1.604
0.002659106748600083,1.605
0.0026699106155587435,1.606
0.0026803463131875377,1.607
0.0026904015784761605,1.608
0.0027000680216065723,1.609
0.00270934021374181,1.61
0.0027182142760489745,1.611
0.002726686299435119,1.612
0.0027347514349287103,1.613
0.002742404308064757,1.614
0.0027496403582183953,1.615
0.0027564572024797195,1.616
0.0027628555234029003,1.617
0.0027688393703504586,1.618
0.0027744159026921226,1.619
0.0027795946856868543,1.62
0.0027843867079600177,1.621
0.0027888033091911318,1.622
0.0027928551859620707,1.623
0.0027965515948519593,1.624
0.002799899816223024,1.625
0.002802904898306386,1.626
0.002805569674124548,1.627
0.0028078950270012605,1.628
0.002809880365305832,1.629
0.0028115242466552294,1.63
0.0028128250635941236,1.631
0.0028137816769468757,1.632
0.00281439388156602,1.633
0.0028146626247084455,1.634
0.002814589952109393,1.635
0.0028141786948696714,1.636
0.0028134319140418803,1.637
0.0028123521082147763,1.638
0.002810940362868589,1.639
0.0028091959874142138,1.64
0.002807117036850272,1.641
0.002804701402003971,1.642
0.0028019479103636256,1.643
0.0027988571840281214,1.644
0.0027954321950629177,1.645
0.0027916785085984005,1.646
0.002787604255564419,1.647
0.0027832199114023477,1.648
0.0027785379607408126,1.649
0.002773572504150947,1.65
0.00276833882862944,1.651
0.002762852941275731,1.652
0.002757131070593247,1.653
0.002751189163139649,1.654
0.0027450424193750616,1.655
0.0027387049070828275,1.656
0.0027321892707848987,1.657
0.002725506532651963,1.658
0.002718665956513312,1.659
0.0027116749187120056,1.66
0.002704538741853445,1.661
0.002697260592816654,1.662
0.0026898417105369575,1.663
0.002682282117602136,1.664
0.002674581676865648,1.665
0.002666741237476148,1.666
0.002658763667150038,1.667
0.002650654615903638,1.668
0.002642422898775704,1.669
0.0026340804513139628,1.67
0.0026256418907400895,1.671
0.002617123789561538,1.672
0.0026085438133591717,1.673
0.0025999198715460185,1.674
0.002591269378974979,1.675
0.00258260865130341,1.676
0.0025739524035060823,1.677
0.0025653133809389627,1.678
0.0025567022953339505,1.679
0.002548128181252932,1.68
0.002539599030263007,1.681
0.002531122466628465,1.682
0.0025227063186831484,1.683
0.002514359002156366,1.684
0.002506089665925282,1.685
0.0024979081002336184,1.686
0.002489824451635174,1.687
0.0024818488074722037,1.688
0.0024739906995339864,1.689
0.0024662585457799887,1.69
0.0024586591222676433,1.691
0.0024511973516562263,1.692
0.002443876609470343,1.693
0.0024366993472387543,1.694
0.002429667694633817,1.695
0.002422783880040131,1.696
0.002416050429741832,1.697
0.0024094701412692553,1.698
0.0024030458524743415,1.699
0.002396780040867604,1.7
0.0023906742880911306,1.701
0.0023847287268631842,1.702
0.0023789417781755265,1.703
0.002373310430850273,1.704
0.002367830937801775,1.705
0.002362499623325138,1.706
0.0023573136123907685,1.707
0.002352271371090207,1.708
0.002347372941542918,1.709
0.0023426197644194316,1.71
0.0023380140312130736,1.711
0.002333557724778005,1.712
0.002329251921796875,1.713
0.0023250969317155827,1.714
0.002321093120702606,1.715
0.0023172417294459098,1.716
0.0023135451890701248,1.717
0.002310006815955339,1.718
0.002306630001948542,1.719
0.0023034173203160596,1.72
0.0023003701645124526,1.721
0.002297489073678403,1.722
0.0022947741828158287,1.723
0.0022922252199065736,1.724
0.002289841048238574,1.725
0.0022876192840776757,1.726
0.002285556500871127,1.727
0.0022836489218962743,1.728
0.002281893109760411,1.729
0.0022802863511227228,1.73
0.002278826709578068,1.731
0.002277512819239688,1.732
0.0022763435092186023,1.733
0.0022753173382971817,1.734
0.0022744320904506785,1.735
0.0022736842723283888,1.736
0.002273068726404123,1.737
0.0022725785439942376,1.738
0.0022722053222090726,1.739
0.0022719395785369633,1.74
0.0022717711218466215,1.741
0.002271689309794569,1.742
0.002271683203696132,1.743
0.002271741666586038,1.744
0.002271853465381496,1.745
0.002272007424156832,1.746
0.002272192642011074,1.747
0.00227239875417225,1.748
0.002272616190215216,1.749
0.0022728363676986787,1.75
0.002273051749870183,1.751
0.0022732556964571967,1.752
0.002273442053774655,1.753
0.002273604467798929,1.754
0.0022737356136206047,1.755
0.0022738268925878084,1.756
0.00227386899202454,1.757
0.0022738530179557143,1.758
0.0022737716701308882,1.759
0.0022736201825772346,1.76
0.002273396900323997,1.761
0.0022731034040600856,1.762
0.002272744176533137,1.763
0.0022723258969213423,1.764
0.002271856512802961,1.765
0.0022713442534103216,1.766
0.0022707967154219997,1.767
0.002270220136350668,1.768
0.002269619007437669,1.769
0.002268996110072247,1.77
0.0022683528522945574,1.771
0.0022676896960113,1.772
0.0022670065453840203,1.773
0.002266303028882038,1.774
0.0022655786312902352,1.775
0.002264832673434128,1.776
0.0022640641849918895,1.777
0.002263271738020622,1.778
0.0022624532946703985,1.779
0.002261606088550588,1.78
0.0022607265321555295,1.781
0.0022598101356306292,1.782
0.0022588514264398275,1.783
0.002257843858787142,1.784
0.002256779691198347,1.785
0.0022556498019388332,1.786
0.0022544434467970972,1.787
0.002253148075898591,1.788
0.0022517493919215264,1.789
0.0022502317059298334,1.79
0.0022485784849961567,1.791
0.002246772983674513,1.792
0.002244798909713843,1.793
0.002242641073872422,1.794
0.0022402859530993276,1.795
0.0022377220983741497,1.796
0.0022349403366978666,1.797
0.0022319337313680197,1.798
0.0022286972656681624,1.799
0.0022252272133614697,1.8
0.002221520205051263,1.801
0.0022175722842389754,1.802
0.002213378630623697,1.803
0.0022089343264019047,1.804
0.0022042357049986724,1.805
0.002199281611776342,1.806
0.0021940742876196636,1.807
0.0021886198192627715,1.808
0.0021829281553470596,1.809
0.002177012722377084,1.81
0.0021708896998691154,1.811
0.0021645770433510662,1.812
0.0021580933762786986,1.813
0.002151456912004279,1.814
0.0021446846358565003,1.815
0.002137791955560447,1.816
0.0021307927599492496,1.817
0.002123699576237458,1.818
0.0021165236072147346,1.819
0.0021092746434403374,1.82
0.0021019609211211992,1.821
0.0020945889963798633,1.822
0.002087163701254874,1.823
0.002079688230644271,1.824
0.002072164382292113,1.825
0.0020645929394405766,1.826
0.0020569741574020264,1.827
0.00204930829850944,1.828
0.0020415961541333807,1.829
0.002033839493742756,1.83
0.0020260413910607312,1.831
0.002018206399125194,1.832
0.002010340571949423,1.833
0.0020024513463523766,1.834
0.001994547297982376,1.835
0.001986637779474832,1.836
0.00197873245165358,1.837
0.0019708407406728327,1.838
0.001962971288427019,1.839
0.0019551314881168565,1.84
0.001947327190757785,1.841
0.001939562628487572,1.842
0.0019318405382409136,1.843
0.0019241624003561576,1.844
0.001916528651631413,1.845
0.0019089387180101479,1.846
0.0019013908502585918,1.847
0.0018938820595508906,1.848
0.0018864085168701584,1.849
0.0018789664006089518,1.85
0.0018715528856840583,1.851
0.0018641670265135467,1.852
0.001856810405380684,1.853
0.001849487471970879,1.854
0.0018422055396690217,1.855
0.0018349744370950174,1.856
0.0018278058391105257,1.857
0.0018207123298910363,1.858
0.001813706389047403,1.859
0.0018067997467924276,1.86
0.001800003458045882,1.861
0.0017933284792662348,1.862
0.0017867862325691955,1.863
0.0017803888628995506,1.864
0.0017741491482055234,1.865
0.0017680801151456077,1.866
0.001762194456732482,1.867
0.0017565039563168185,1.868
0.001751019232506861,1.869
0.0017457499133587567,1.87
0.001740704952023871,1.871
0.0017358927453293678,1.872
0.0017313209630667398,1.873
0.0017269962572375118,1.874
0.0017229242071632115,1.875
0.001719109682905889,1.876
0.0017155573891247155,1.877
0.0017122722559863917,1.878
0.0017092595560834522,1.879
0.0017065247811511018,1.88
0.0017040733637744517,1.881
0.0017019103331676084,1.882
0.0017000399601092189,1.883
0.001698465428348309,1.884
0.0016971886227813723,1.885
0.0016962101477994344,1.886
0.0016955295504030821,1.887
0.0016951455633637755,1.888
0.0016950561922292023,1.889
0.0016952585797269442,1.89
0.001695748741392335,1.891
0.0016965214382930627,1.892
0.0016975703558479221,1.893
0.001698888442010452,1.894
0.0017004681903047087,1.895
0.0017023018217426145,1.896
0.0017043814036493475,1.897
0.0017066989213426742,1.898
0.0017092462795406738,1.899
0.0017120151896328484,1.9
0.0017149969141248703,1.901
0.0017181818965865247,1.902
0.0017215594149391025,1.903
0.0017251174562024588,1.904
0.0017288428559089997,1.905
0.001732721533717891,1.906
0.0017367386757071931,1.907
0.0017408788540962015,1.908
0.001745126123446296,1.909
0.0017494641127243132,1.91
0.001753876115474397,1.911
0.0017583451801911631,1.912
0.0017628542107987703,1.913
0.0017673860860654884,1.914
0.0017719237939994815,1.915
0.0017764505629602565,1.916
0.0017809499635399152,1.917
0.0017854059555820856,1.918
0.0017898028628632878,1.919
0.0017941252733256776,1.92
0.0017983578796118298,1.921
0.0018024852814836907,1.922
0.0018064917596368562,1.923
0.001810361004038053,1.924
0.0018140757854482575,1.925
0.0018176176854162076,1.926
0.0018209671504247065,1.927
0.0018241040153162136,1.928
0.0018270083472677401,1.929
0.0018296613882847225,1.93
0.0018320464842220584,1.931
0.001834149937596338,1.932
0.0018359617011490497,1.933
0.0018374758045302233,1.934
0.0018386904091977506,1.935
0.0018396074330619243,1.936
0.0018402317634857788,1.937
0.001840570155741938,1.938
0.0018406299818766317,1.939
0.001840418134893047,1.94
0.0018399405098976692,1.941
0.0018392021681020972,1.942
0.0018382077740339425,1.943
0.0018369619037446512,1.944
0.001835469172717569,1.945
0.001833734290580549,1.946
0.0018317621428851699,1.947
0.0018295579612721657,1.948
0.0018271275885812371,1.949
0.001824477798266677,1.95
0.0018216166024055958,1.951
0.0018185534788397928,1.952
0.0018152994587482619,1.953
0.001811867035647927,1.954
0.0018082698801263988,1.955
0.0018045223691584918,1.956
0.0018006389669816723,1.957
0.0017966335556229504,1.958
0.001792518923674558,1.959
0.001788306618480345,1.96
0.00178400711081241,1.961
0.0017796299927678133,1.962
0.0017751839996905062,1.963
0.0017706768342726927,1.964
0.0017661149180562632,1.965
0.00176150329037814,1.966
0.001756845755489986,1.967
0.0017521451227008734,1.968
0.0017474033326183832,1.969
0.001742621388444141,1.97
0.001737799149097567,1.971
0.0017329352051445397,1.972
0.0017280270735841835,1.973
0.0017230717136915397,1.974
0.0017180662010678031,1.975
0.001713008446248569,1.976
0.0017078979072919075,1.977
0.0017027362310577973,1.978
0.0016975277206192816,1.979
0.0016922795130572097,1.98
0.0016870013832999773,1.981
0.0016817051573420217,1.982
0.0016764037944596644,1.983
0.0016711103546170679,1.984
0.0016658373114410534,1.985
0.0016605965746456176,1.986
0.001655400032315343,1.987
0.0016502601228220203,1.988
0.0016451901654231436,1.989
0.0016402044332896664,1.99
0.0016353180279139786,1.991
0.0016305466223113744,1.992
0.0016259061387522886,1.993
0.0016214124167499777,1.994
0.0016170809082595738,1.995
0.0016129264147434332,1.996
0.0016089628655721186,1.997
0.001605203138034099,1.998
0.0016016589337811227,1.999
0.0015983407371610316,2.0
0.0015952578664154271,2.001
0.0015924185871366953,2.002
0.0015898302137287825,2.003
0.0015874991109738142,2.004
0.0015854305746308575,2.005
0.0015836287292273332,2.006
0.001582096642032335,2.007
0.0015808366661325605,2.008
0.0015798508285032146,2.009
0.0015791410913795973,2.01
0.0015787094217190986,2.011
0.0015785576783800292,2.012
0.001578687373411901,2.013
0.001579099386598044,2.014
0.00157979370080379,2.015
0.0015807691829997873,2.016
0.0015820234193841438,2.017
0.0015835526734183894,2.018
0.0015853520517645759,2.019
0.0015874158425344248,2.02
0.0015897378830884677,2.021
0.0015923118163233775,2.022
0.0015951311384661303,2.023
0.001598188997082318,2.024
0.0016014778202662959,2.025
0.0016049890469176124,2.026
0.001608713224616306,2.027
0.0016126404352731843,2.028
0.001616760789231094,2.029
0.0016210648019741552,2.03
0.0016255435971473016,2.031
0.001630188933351562,2.032
0.0016349930770969,2.033
0.0016399485557100396,2.034
0.001645047813376338,2.035
0.0016502827795553182,2.036
0.0016556444489878132,2.037
0.0016611227490397364,2.038
0.0016667068784610528,2.039
0.001672385943812483,2.04
0.0016781495950287657,2.041
0.0016839884914217349,2.042
0.0016898945132101048,2.043
0.001695860674001228,2.044
0.0017018807555165122,2.045
0.0017079487532568887,2.046
0.0017140582602454206,2.047
0.0017202019153041371,2.048
0.0017263710196894378,2.049
0.0017325553719922061,2.05
0.0017387432742555172,2.051
0.0017449216109380866,2.052
0.0017510759587015495,2.053
0.001757190754863903,2.054
0.0017632495611612671,2.055
0.0017692354323780412,2.056
0.001775131359841123,2.057
0.001780920719926214,2.058
0.00178658763865528,2.059
0.0017921171943670773,2.06
0.0017974954064171361,2.061
0.0018027089746397718,2.062
0.0018077447379499483,2.063
0.0018125889974649099,2.064
0.0018172272262394395,2.065
0.0018216445708214453,2.066
0.0018258268278238522,2.067
0.0018297612567879666,2.068
0.0018334368572964113,2.069
0.001836844001156249,2.07
0.0018399735626000613,2.071
0.001842816102445491,2.072
0.0018453617812426893,2.073
0.0018476010680422593,2.074
0.0018495256764846947,2.075
0.0018511292531090057,2.076
0.0018524077189537836,2.077
0.0018533592944888063,2.078
0.0018539842171227856,2.079
0.001854284144153851,2.08
0.001854261263809728,2.081
0.0018539173638385373,2.082
0.0018532534289915218,2.083
0.0018522700807185083,2.084
0.00185096845303573,2.085
0.0018493509461020919,2.086
0.0018474216684719932,2.087
0.0018451865888010341,2.088
0.0018426534548206853,2.089
0.001839831561746554,2.09
0.0018367314650677689,2.091
0.0018333647218478914,2.092
0.0018297436972167086,2.093
0.0018258814004742379,2.094
0.001821791260098514,2.095
0.0018174867506176732,2.096
0.0018129808612326384,2.097
0.001808285564441384,2.098
0.0018034115821049135,2.099
0.001798368573553367,2.1
0.001793165545142538,2.101
0.0017878112629867195,2.102
0.0017823146273953812,2.103
0.0017766850154770427,2.104
0.0017709325595447816,2.105
0.001765068312185825,2.106
0.0017591042660936786,2.107
0.0017530532348823888,2.108
0.0017469286365258967,2.109
0.0017407442380137361,2.11
0.0017345139159221051,2.111
0.0017282514690596085,2.112
0.001721970494767597,2.113
0.0017156843167263427,2.114
0.0017094059345689888,2.115
0.0017031479616431847,2.116
0.0016969225329857233,2.117
0.0016907411932507162,2.118
0.0016846147913495636,2.119
0.0016785533980624566,2.12
0.0016725662307916966,2.121
0.0016666615375714997,2.122
0.0016608464271603827,2.123
0.0016551267769422616,2.124
0.0016495074166056017,2.125
0.0016439926077402107,2.126
0.001638586646093513,2.127
0.0016332944142627914,2.128
0.0016281217922527941,2.129
0.0016230758792613964,2.13
0.0016181650034095547,2.131
0.0016133985125488014,2.132
0.0016087863586353875,2.133
0.0016043385220807303,2.134
0.001600064392579843,2.135
0.0015959723041274287,2.136
0.001592069353822484,2.137
0.0015883613969471368,2.138
0.0015848530245892748,2.139
0.0015815475228266429,2.14
0.001578446950177665,2.141
0.0015755523541895753,2.142
0.0015728640000804033,2.143
0.0015703814842244438,2.144
0.0015681036753945592,2.145
0.0015660285110254747,2.146
0.001564152799202445,2.147
0.0015624722158586615,2.148
0.0015609815159640362,2.149
0.00155967480075622,2.15
0.00155854571540533,2.151
0.0015575875707543425,2.152
0.0015567934367344432,2.153
0.0015561562559777088,2.154
0.0015556690091831275,2.155
0.001555324944520347,2.156
0.001555117870668346,2.157
0.0015550424978028,2.158
0.0015550947778143886,2.159
0.0015552721466622625,2.16
0.0015555735370858749,2.161
0.0015559990472460692,2.162
0.0015565492569066806,2.163
0.0015572244603140409,2.164
0.0015580243469568295,2.165
0.0015589483632607534,2.166
0.0015599963720240879,2.167
0.0015611691549285416,2.168
0.0015624686454296661,2.169
0.00156389795090848,2.17
0.001565461232056094,2.171
0.0015671634919844023,2.172
0.0015690102992048623,2.173
0.0015710074437545064,2.174
0.0015731605180390271,2.175
0.0015754744590747469,2.176
0.0015779532116069837,2.177
0.0015805997118209277,2.178
0.0015834161870076895,2.179
0.0015864045466927235,2.18
0.001589566663554068,2.181
0.0015929044740573884,2.182
0.0015964199017769048,2.183
0.001600114638464762,2.184
0.0016039898340866417,2.185
0.0016080457509730505,2.186
0.0016122814734096773,2.187
0.0016166948144381678,2.188
0.0016212824840491004,2.189
0.001626040416451878,2.19
0.0016309641132576944,2.191
0.0016360489195606223,2.192
0.0016412901788764973,2.193
0.0016466832278145124,2.194
0.001652223222685293,2.195
0.0016579048221993197,2.196
0.0016637218004581992,2.197
0.00166966675189105,2.198
0.0016757310508326668,2.199
0.0016819050520902883,2.2
0.0016881783804407976,2.201
0.0016945402218054427,2.202
0.0017009796366614352,2.203
0.0017074859307786463,2.204
0.0017140490747804315,2.205
0.0017206601067327888,2.206
0.0017273114048364131,2.207
0.001733996706680594,2.208
0.0017407107876667347,2.209
0.0017474487881296657,2.21
0.0017542054167099949,2.211
0.001760974577941256,2.212
0.001767749734550752,2.213
0.001774524609024936,2.214
0.0017812936552971208,2.215
0.0017880520877564356,2.216
0.0017947954890065114,2.217
0.0018015191514996153,2.218
0.0018082175164571529,2.219
0.0018148840747087035,2.22
0.0018215116736784026,2.221
0.0018280928041149755,2.222
0.001834619536941928,2.223
0.0018410831593891495,2.224
0.0018474739446091928,2.225
0.0018537814713849566,2.226
0.001859995405620826,2.227
0.001866106338405041,2.228
0.0018721064032069855,2.229
0.0018779895692218225,2.23
0.0018837515817822378,2.231
0.0018893895721697291,2.232
0.0018949013999840115,2.233
0.0019002848368388388,2.234
0.0019055368496405571,2.235
0.0019106533865418309,2.236
0.0019156298121112967,2.237
0.0019204616667630563,2.238
0.0019251453643888412,2.239
0.001929678681923834,2.24
0.001934061019461622,2.241
0.0019382934368136978,2.242
0.001942378499558981,2.243
0.0019463199930273543,2.244
0.001950122582193657,2.245
0.0019537915015658837,2.246
0.001957332342539973,2.247
0.0019607509629529308,2.248
0.0019640534848836284,2.249
0.0019672462941190735,2.25
0.001970335931570875,2.251
0.001973328785613073,2.252
0.001976230597115658,2.253
0.0019790460228007157,2.254
0.0019817786335653543,2.255
0.0019844314385410234,2.256
0.001987007641510288,2.257
0.0019895113408624075,2.258
0.0019919480950901943,2.259
0.0019943253685321734,2.26
0.00199665286236407,2.261
0.0019989426958557962,2.262
0.0020012093630209704,2.263
0.0020034693869639014,2.264
0.002005740639617938,2.265
0.0020080413791927093,2.266
0.0020103892821724313,2.267
0.0020128010040888944,2.268
0.0020152925104959425,2.269
0.002017879745315452,2.27
0.0020205790934165802,2.271
0.0020234074679578037,2.272
0.002026382073226015,2.273
0.0020295199507787045,2.274
0.002032837451710402,2.275
0.0020363497873089956,2.276
0.0020400707874743966,2.277
0.002044012939224029,2.278
0.0020481876988156546,2.279
0.002052605990799357,2.28
0.0020572787451127775,2.281
0.002062217299068506,2.282
0.002067433519999531,2.283
0.0020729395799377504,2.284
0.0020787474060290742,2.285
0.002084867997890341,2.286
0.0020913110129492755,2.287
0.0020980848660660423,2.288
0.0021051970919334427,2.289
0.0021126545555767142,2.29
0.0021204633381450167,2.291
0.0021286283799946118,2.292
0.0021371531724915477,2.293
0.0021460397794899853,2.294
0.0021552891143055927,2.295
0.0021649011304570947,2.296
0.002174874708561054,2.297
0.0021852073847185424,2.298
0.002195895364638671,2.299
0.002206934091460628,2.3
0.0022183191314867523,2.301
0.0022300469778617784,2.302
0.0022421155535202277,2.303
0.0022545243302962456,2.304
0.002267274039137485,2.305
0.0022803659980023274,2.306
0.002293801207278901,2.307
0.0023075796281988082,2.308
0.0023217001140421094,2.309
0.0023361609691574152,2.31
0.0023509606159341327,2.311
0.002366097924032246,2.312
0.0023815720706551998,2.313
0.002397381976329704,2.314
0.002413525539239927,2.315
0.002429999119919453,2.316
0.0024467975621407915,2.317
0.002463914473381876,2.318
0.0024813422803056442,2.319
0.002499071950548274,2.32
0.002517092742135306,2.321
0.0025353923555247594,2.322
0.0025539573880966186,2.323
0.0025727736965898977,2.324
0.0025918264504250273,2.325
0.002611099916086768,2.326
0.0026305771278197494,2.327
0.0026502396164489045,2.328
0.002670067327834692,2.329
0.0026900387951550456,2.33
0.002710131556365716,2.331
0.0027303227381360443,2.332
0.0027505896700669667,2.333
0.002770910364435757,2.334
0.002791263708811268,2.335
0.0028116292703371033,2.336
0.0028319866897198037,2.337
0.002852314794624467,2.338
0.0028725908335647263,2.339
0.0028927903146281505,2.34
0.0029128874989902136,2.341
0.0029328561411870154,2.342
0.0029526701570288154,2.343
0.0029723041993960607,2.344
0.002991734208578639,2.345
0.0030109379452551623,2.346
0.0030298954401140835,2.347
0.0030485892504085016,2.348
0.0030670044269800606,2.349
0.0030851281587637364,2.35
0.0031029491416519144,2.351
0.003120456772001751,2.352
0.0031376402645137197,2.353
0.0031544877457620802,2.354
0.003170985441756792,2.355
0.0031871173270114433,2.356
0.0032028655434238823,2.357
0.0032182113997098745,2.358
0.003233136525562356,2.359
0.0032476239277983965,2.36
0.003261658844364219,2.361
0.003275229342384585,2.362
0.0032883266428653914,2.363
0.0033009451718538523,2.364
0.0033130823358744517,2.365
0.003324738011152822,2.366
0.00333591373618421,2.367
0.0033466116120705104,2.368
0.003356833037386945,2.369
0.0033665777497795396,2.37
0.003375843810356304,2.371
0.0033846286197682794,2.372
0.0033929303756242606,2.373
0.0034007493738908872,2.374
0.0034080888864185957,2.375
0.003414955510295961,2.376
0.0034213589519554704,2.377
0.0034273112864204873,2.378
0.0034328258093328486,2.379
0.003437915661131316,2.38
0.0034425925034351325,2.381
0.003446865669309889,2.382
0.0034507420686700004,2.383
0.0034542266617626507,2.384
0.0034573231034549057,2.385
0.003460034365007107,2.386
0.0034623633130656506,2.387
0.003464313214531734,2.388
0.003465888080905596,2.389
0.0034670927453837887,2.39
0.003467932601259994,2.391
0.0034684130154068256,2.392
0.003468538528127825,2.393
0.003468312011842235,2.394
0.003467733958879487,2.395
0.0034668020151664702,2.396
0.003465510810466646,2.397
0.003463852088903893,2.398
0.003461815119092327,2.399
0.0034593873455516467,2.4
0.003456555215172048,2.401
0.00345330506168848,2.402
0.0034496238581033394,2.403
0.0034454995813351687,2.404
0.003440920926013166,2.405
0.003435876370518445,2.406
0.0034303533406591677,2.407
0.003424338640182918,2.408
0.0034178204203816863,2.409
0.0034107907332247608,2.41
0.0034032476060857297,2.411
0.0033951961351099923,2.412
0.0033866484784834507,2.413
0.003377622857944622,2.414
0.003368141850986191,2.415
0.0033582303378510803,2.416
0.003347913451224358,2.417
0.0033372148891774455,2.418
0.0033261559941128037,2.419
0.003314755661543912,2.42
0.0033030305860064684,2.421
0.003290995360494123,2.422
0.0032786623794663007,2.423
0.003266041721627092,2.424
0.0032531411901181575,2.425
0.0032399666319560755,2.426
0.0032265225782046637,2.427
0.003212813156312693,2.428
0.0031988431403662493,2.429
0.003184618949905176,2.43
0.003170149412845109,2.431
0.0031554461765461333,2.432
0.0031405237501942952,2.433
0.003125399245762521,2.434
0.00311009192604122,2.435
0.0030946226669930172,2.436
0.0030790134162048243,2.437
0.003063286695670381,2.438
0.003047465159568014,2.439
0.003031571177262246,2.44
0.003015626378563835,2.441
0.002999651088323069,2.442
0.002983663724374982,2.443
0.002967680539507088,2.444
0.002951716023500793,2.445
0.002935783763303202,2.446
0.0029198973490408464,2.447
0.002904071132522455,2.448
0.0028883208037930584,2.449
0.002872663769257599,2.45
0.002857119308713568,2.451
0.0028417084960599796,2.452
0.00282645390469206,2.453
0.0028113791664926492,2.454
0.002796508479834585,2.455
0.0027818661483372037,2.456
0.002767476190089635,2.457
0.002753362016196406,2.458
0.0027395461546647405,2.459
0.0027260499837641165,2.46
0.0027128934285443715,2.461
0.002700094607580525,2.462
0.0026876695578295293,2.463
0.0026756322635626164,2.464
0.0026639950304224364,2.465
0.002652768975326981,2.466
0.002641964396907533,2.467
0.002631590948145827,2.468
0.0026216576305296024,2.469
0.002612172666956373,2.47
0.002603143328212074,2.471
0.0025945757878353894,2.472
0.0025864750632437535,2.473
0.002578845067961717,2.474
0.002571688761107383,2.475
0.0025650083524172067,2.476
0.0025588055122153113,2.477
0.002553081542366254,2.478
0.0025478374802318337,2.479
0.002543074128180692,2.48
0.002538792018110847,2.481
0.002534991323567446,2.482
0.00253167172089936,2.483
0.002528832189375552,2.484
0.0025264707428502777,2.485
0.0025245841009639953,2.486
0.0025231673198274677,2.487
0.002522213454886006,2.488
0.0025217134355457276,2.489
0.002521656287343664,2.49
0.002522029619674798,2.491
0.0025228202095494315,2.492
0.002524014577346318,2.493
0.0025255994809802087,2.494
0.0025275622541623107,2.495
0.002529890930385864,2.496
0.002532574119497322,2.497
0.0025356006333379574,2.498
0.002538958892271559,2.499
0.0025426362136643644,2.5
0.0025466182124764102,2.501
0.0025508885634265557,2.502
0.0025554290835253764,2.503
0.002560219793146395,2.504
0.0025652388009206398,2.505
0.002570462329265707,2.506
0.002575865197596542,2.507
0.0025814215881952082,2.508
0.0025871056881322445,2.509
0.002592891962703607,2.51
0.0025987549709898107,2.511
0.0026046687614510846,2.512
0.0026106062121743303,2.513
0.0026165389841199564,2.514
0.0026224383851518123,2.515
0.002628276690369251,2.516
0.002634028312717923,2.517
0.002639670560021935,2.518
0.0026451839410291307,2.519
0.002650552069565107,2.52
0.002655761270048344,2.521
0.0026608000039351674,2.522
0.0026656582224456804,2.523
0.0026703267159281117,2.524
0.002674796480341501,2.525
0.0026790580647768217,2.526
0.0026831008923115527,2.527
0.00268691279296118,2.528
0.0026904801907775503,2.529
0.002693789090866597,2.53
0.0026968265164294286,2.531
0.0026995819474259493,2.532
0.0027020484773369914,2.533
0.0027042235077351174,2.534
0.0027061088687281064,2.535
0.0027077103482313603,2.536
0.0027090367148936987,2.537
0.002710098401574873,2.538
0.0027109060561166017,2.539
0.002711469248734175,2.54
0.002711795735926088,2.541
0.0027118914403968337,2.542
0.0027117608114566923,2.543
0.002711407167352019,2.544
0.002710832934987845,2.545
0.002710039864007543,2.546
0.00270902926735993,2.547
0.002707802280512308,2.548
0.0027063600788011753,2.549
0.002704703971129848,2.55
0.002702835310920078,2.551
0.002700755222213077,2.552
0.002698464204328299,2.553
0.0026959617305059354,2.554
0.0026932459809687792,2.555
0.0026903138344074123,2.556
0.002687161177237826,2.557
0.0026837834959267132,2.558
0.0026801766274457853,2.559
0.0026763374783529826,2.56
0.0026722644959056734,2.561
0.0026679576996969006,2.562
0.002663418164631972,2.563
0.00265864703854508,2.564
0.0026536445942727713,2.565
0.002648410092181293,2.566
0.0026429426869049133,2.567
0.0026372427656613565,2.568
0.0026313130345108583,2.569
0.0026251591120634117,2.57
0.00261878965384864,2.571
0.002612216125913173,2.572
0.002605452393207472,2.573
0.0025985142708078368,2.574
0.0025914191166675434,2.575
0.0025841854604609304,2.576
0.002576832602521672,2.577
0.002569380097835742,2.578
0.0025618470597260335,2.579
0.002554251396795558,2.58
0.0025466094325912987,2.581
0.0025389362805606835,2.582
0.002531246753457022,2.583
0.0025235563086251924,2.584
0.0025158817498901085,2.585
0.002508241607204636,2.586
0.002500656186351345,2.587
0.0024931473255202594,2.588
0.0024857379237797892,2.589
0.0024784513223883196,2.59
0.0024713106281362748,2.591
0.0024643380659908638,2.592
0.0024575544312651866,2.593
0.0024509786829189605,2.594
0.002444627694546385,2.595
0.002438516171327486,2.596
0.0024326567442415725,2.597
0.0024270602455747953,2.598
0.0024217361365629153,2.599
0.0024166930060221625,2.6
0.002411939013612733,2.601
0.0024074821399611467,2.602
0.002403330140022943,2.603
0.002399490164043297,2.604
0.002395968183587978,2.605
0.002392768633986218,2.606
0.0023898946295801936,2.607
0.002387348611605187,2.608
0.002385133007922587,2.609
0.002383250647454469,2.61
0.0023817048682637345,2.611
0.0023804993278352914,2.612
0.0023796375495005982,2.613
0.0023791222776211682,2.614
0.002378954858909056,2.615
0.0023791350088828373,2.616
0.0023796610820866417,2.617
0.0023805305170336373,2.618
0.0023817400765948162,2.619
0.002383285757533354,2.62
0.0023851624230900826,2.621
0.0023873634013219405,2.622
0.0023898804482195553,2.623
0.0023927042627001085,2.624
0.0023958253409429664,2.625
0.00239923487408303,2.626
0.002402925531216093,2.627
0.002406892020713727,2.628
0.0024111313236396185,2.629
0.0024156425275842015,2.63
0.002420426249759444,2.631
0.0024254837014167203,2.632
0.0024308156202478832,2.633
0.0024364216319792222,2.634
0.0024423005597721324,2.635
0.002448451547597206,2.636
0.0024548754152525273,2.637
0.00246157579792259,2.638
0.002468559850510231,2.639
0.002475838398725337,2.64
0.0024834255030766047,2.641
0.0024913374972224765,2.642
0.002499591649467149,2.643
0.002508204779039153,2.644
0.0025171924016767996,2.645
0.002526568729272152,2.646
0.0025363471371290585,2.647
0.0025465404883571255,2.648
0.0025571610722820637,2.649
0.0025682202089901554,2.65
0.002579727695470486,2.651
0.0025916913649362866,2.652
0.0026041169394867927,2.653
0.0026170080556580204,2.654
0.0026303662293942777,2.655
0.0026441907560760445,2.656
0.002658478704888824,2.657
0.0026732250007923467,2.658
0.0026884224378452993,2.659
0.00270406167929277,2.66
0.002720131515979212,2.661
0.0027366194410271168,2.662
0.00275351226062948,2.663
0.002770796422709949,2.664
0.002788457909125994,2.665
0.0028064817147785545,2.666
0.002824851198125749,2.667
0.0028435478156423662,2.668
0.002862551475646524,2.669
0.0028818411743389187,2.67
0.00290139548511751,2.671
0.00292119276104532,2.672
0.002941211063810792,2.673
0.0029614278592443384,2.674
0.002981819551308729,2.675
0.0030023609738658,2.676
0.003023025007584346,2.677
0.0030437824987426987,2.678
0.0030646025897327245,2.679
0.003085453428495988,2.68
0.0031063030622438996,2.681
0.0031271202209715914,2.682
0.0031478747035091977,2.683
0.003168537173890942,2.684
0.0031890783176117894,2.685
0.0032094677154815504,2.686
0.00322967339421187,2.687
0.0032496627111346975,2.688
0.0032694040519582294,2.689
0.003288868416677391,2.69
0.003308030443185663,2.691
0.0033268687541132976,2.692
0.0033453656464077124,2.693
0.003363506268866009,2.694
0.003381277508256437,2.695
0.0033986668166819745,2.696
0.0034156611771882046,2.697
0.0034322463410092065,2.698
0.0034484063885361006,2.699
0.003464123576869552,2.7
0.0034793783598406863,2.701
0.0034941494263755766,2.702
0.0035084136084467363,2.703
0.0035221455764436085,2.704
0.0035353174893995778,2.705
0.0035478991046557604,2.706
0.0035598587296672237,2.707
0.0035711648458603335,2.708
0.00358178798017065,2.709
0.003591702506407982,2.71
0.0036008881330757856,2.711
0.003609330864154331,2.712
0.003617023285354652,2.713
0.0036239641154678227,2.714
0.0036301570572724495,2.715
0.0036356090678518645,2.716
0.003640328240019006,2.717
0.0036443218122239242,2.718
0.003647595326182557,2.719
0.003650153503972154,2.72
0.003652002175070343,2.721
0.0036531502896030715,2.722
0.0036536116080022846,2.723
0.0036534059128299737,2.724
0.003652559604003885,2.725
0.003651105607158984,2.726
0.0036490826072243282,2.727
0.0036465336831938457,2.728
0.0036435044681474398,2.729
0.003640041075534258,2.73
0.0036361883759725325,2.731
0.0036319894174333743,2.732
0.0036274861284325754,2.733
0.003622720530485454,2.734
0.0036177357064059493,2.735
0.003612576308470582,2.736
0.003607288612035433,2.737
0.0036019201382461088,2.738
0.0035965189084241093,2.739
0.0035911324455770114,2.74
0.003585806694294477,2.741
0.0035805851263518984,2.742
0.003575508332070542,2.743
0.003570614109304909,2.744
0.0035659376936189673,2.745
0.0035615118143535103,2.746
0.0035573665222612657,2.747
0.003553528909403357,2.748
0.003550022975033787,2.749
0.0035468698003650323,2.75
0.003544087872548028,2.751
0.00354169327540717,2.752
0.0035396996009322288,2.753
0.0035381176752983493,2.754
0.0035369554516497597,2.755
0.0035362182843009437,2.756
0.0035359093051853187,2.757
0.003536029490638069,2.758
0.00353657736369207,2.759
0.0035375486607159743,2.76
0.0035389362645210525,2.761
0.0035407302676231604,2.762
0.003542917930159559,2.763
0.0035454837902713214,2.764
0.003548410298018154,2.765
0.0035516787827741198,2.766
0.00355527024402975,2.767
0.003559165628322071,2.768
0.003563345475040626,2.769
0.003567789074124704,2.77
0.003572473705985151,2.771
0.003577374654700357,2.772
0.003582466065065317,2.773
0.00358772205696282,2.774
0.003593117561887257,2.775
0.0035986286946342243,2.776
0.0036042326296321556,2.777
0.0036099069910550865,2.778
0.0036156288166008144,2.779
0.0036213734497890456,2.78
0.0036271141865427104,2.781
0.0036328232238930264,2.782
0.003638473475572712,2.783
0.0036440404753208897,2.784
0.0036495039142161556,2.785
0.003654848530088009,2.786
0.0036600641024321645,2.787
0.003665144417797063,2.788
0.0036700853017522434,2.789
0.0036748824904944003,2.79
0.003679530875611885,2.791
0.003684025886072466,2.792
0.003688365940844593,2.793
0.003692554504528713,2.794
0.003696601130259098,2.795
0.003700521388023401,2.796
0.0037043357527989404,2.797
0.0037080677130761686,2.798
0.0037117415095740307,2.799
0.0037153800758487057,2.8
0.003719003814957923,2.801
0.003722630331047388,2.802
0.0037262744988700264,2.803
0.0037299483256716236,2.804
0.0037336606685866034,2.805
0.003737417053193979,2.806
0.0037412196452425678,2.807
0.0037450674752739113,2.808
0.0037489571935587916,2.809
0.00375288443995335,2.81
0.003756845576491612,2.811
0.0037608394111531616,2.812
0.0037648685505646358,2.813
0.0037689401025623862,2.814
0.003773065620391014,2.815
0.003777260360865761,2.816
0.0037815420278702427,2.817
0.003785929159710078,2.818
0.003790439463412345,2.819
0.0037950888776270603,2.82
0.0037998921091085304,2.821
0.0038048643924802877,2.822
0.003810023517099165,2.823
0.0038153913770633363,2.824
0.0038209946888011557,2.825
0.003826864744170976,2.826
0.003833036272374942,2.827
0.0038395456752665542,2.828
0.0038464290460128304,2.829
0.0038537205370477224,2.83
0.0038614516184129095,2.831
0.0038696512275784734,2.832
0.003878346263928409,2.833
0.003887562033387764,2.834
0.00389732265447413,2.835
0.003907651506178166,2.836
0.003918571687311352,2.837
0.003930106391122506,2.838
0.003942279109817766,2.839
0.003955113646118846,2.84
0.003968633962493485,2.841
0.003982863899545487,2.842
0.003997826753234089,2.843
0.0040135446656258435,2.844
0.004030037822921621,2.845
0.004047323679987933,2.846
0.004065416675879846,2.847
0.004084328637968382,2.848
0.004104069495656728,2.849
0.00412464784541389,2.85
0.0041460712308332,2.851
0.004168346197461468,2.852
0.00419147823959786,2.853
0.004215471762318637,2.854
0.0042403301199642595,2.855
0.004266055686680702,2.856
0.004292649822400398,2.857
0.004320112571728684,2.858
0.004348441996746102,2.859
0.004377633341164198,2.86
0.004407678646237561,2.861
0.004438567210289048,2.862
0.004470286469118058,2.863
0.004502822641153814,2.864
0.004536160858398198,2.865
0.004570284745503749,2.866
0.004605175588585477,2.867
0.0046408116157285375,2.868
0.004677167999923314,2.869
0.004714217535877392,2.87
0.004751931282158308,2.871
0.004790278569715766,2.872
0.004829226343959937,2.873
0.004868738412983671,2.874
0.004908775351215283,2.875
0.004949295118148869,2.876
0.0049902536859732175,2.877
0.0050316050639012365,2.878
0.005073300663389858,2.879
0.005115288460202426,2.88
0.0051575126817919896,2.881
0.005199914290857221,2.882
0.005242431738214554,2.883
0.005285001357424843,2.884
0.0053275571803483015,2.885
0.005370030256732815,2.886
0.005412347934814196,2.887
0.005454433854398296,2.888
0.005496208943500437,2.889
0.005537592895693573,2.89
0.005578505460722836,2.891
0.005618867245366691,2.892
0.005658599974536125,2.893
0.005697626279962482,2.894
0.005735869141858668,2.895
0.005773251080971463,2.896
0.005809693117671587,2.897
0.005845113524396257,2.898
0.005879426742361546,2.899
0.00591254322220591,2.9
0.005944370537490091,2.901
0.005974815253933797,2.902
0.006003784900016207,2.903
0.006031189788607693,2.904
0.006056944616584638,2.905
0.006080969728001389,2.906
0.0061031918518961795,2.907
0.0061235440689758405,2.908
0.006141964776282271,2.909
0.006158395523803665,2.91
0.00617277811140158,2.911
0.0061850524694526815,2.912
0.006195157117942454,2.913
0.006203032232207937,2.914
0.006208623687773373,2.915
0.006211886723345309,2.916
0.006212788701371385,2.917
0.00621131068156209,2.918
0.006207447505239582,2.919
0.006201206186285147,2.92
0.0061926026489448616,2.921
0.006181657239917345,2.922
0.006168390420041779,2.923
0.006152821088304269,2.924
0.00613496866573231,2.925
0.006114857199435573,2.926
0.0060925192372416745,2.927
0.006067998588926254,2.928
0.006041351742289971,2.929
0.0060126477845775465,2.93
0.00598196685652455,2.931
0.005949397388819705,2.932
0.005915032543312876,2.933
0.005878966447379978,2.934
0.005841291227772627,2.935
0.005802096054327403,2.936
0.005761468357115499,2.937
0.005719496007855177,2.938
0.005676269308795773,2.939
0.005631882411964339,2.94
0.005586434048629207,2.941
0.005540027414680737,2.942
0.005492769121928977,2.943
0.005444767301445688,2.944
0.005396129251081957,2.945
0.0053469594347034235,2.946
0.005297358627218089,2.947
0.005247424080564255,2.948
0.005197249760332056,2.949
0.005146926076676966,2.95
0.005096539428972443,2.951
0.005046172147728405,2.952
0.004995902896253195,2.953
0.004945807042838807,2.954
0.004895956596545392,2.955
0.004846419873104005,2.956
0.004797261536060393,2.957
0.004748543389331454,2.958
0.004700325528634571,2.959
0.004652667223039083,2.96
0.0046056272134642395,2.961
0.004559263369989953,2.962
0.0045136318051992525,2.963
0.004468785859622018,2.964
0.004424775710222228,2.965
0.004381648975206544,2.966
0.004339451826623865,2.967
0.00429822994109709,2.968
0.004258029012708782,2.969
0.004218894769691714,2.97
0.004180872509259579,2.971
0.004144006264385747,2.972
0.004108337816197581,2.973
0.004073905865727335,2.974
0.004040745658340742,2.975
0.004008889051423794,2.976
0.003978364734848407,2.977
0.003949198432407474,2.978
0.003921413155176274,2.979
0.0038950296000902678,2.98
0.003870066676909579,2.981
0.0038465420468500283,2.982
0.0038244725062135964,2.983
0.003803874064552746,2.984
0.0037847616496149324,2.985
0.003767148493278762,2.986
0.0037510453936165596,2.987
0.0037364601723269032,2.988
0.003723397573959131,2.989
0.003711859537897029,2.99
0.003701845565999551,2.991
0.003693352992791792,2.992
0.003686377103862639,2.993
0.003680911095060763,2.994
0.0036769458819075457,2.995
0.0036744697953736,2.996
0.003673468229079392,2.997
0.0036739233267770455,2.998
0.003675813795124717,2.999
0.003679114858882102,3.0
0.0036837983086610523,3.001
0.0036898326199133564,3.002
0.0036971831668351205,3.003
0.0037058125104954694,3.004
0.003715680646070977,3.005
0.003726745029726574,3.006
0.0037389603662430384,3.007
0.0037522785779044603,3.008
0.0037666494430414438,3.009
0.003782021786523231,3.01
0.0037983446390408545,3.011
0.0038155678464479093,3.012
0.003833641819533399,3.013
0.0038525164976754307,3.014
0.0038721403451258915,3.015
0.0038924604927895847,3.016
0.003913424166214241,3.017
0.003934980436405778,3.018
0.003957081397452096,3.019
0.003979682491699059,3.02
0.004002742029466823,3.021
0.004026220054866371,3.022
0.004050076760014635,3.023
0.004074270836848922,3.024
0.004098758489698579,3.025
0.004123493590410871,3.026
0.004148428594386796,3.027
0.004173515527723336,3.028
0.004198706783367625,3.029
0.00422395580288705,3.03
0.004249217766664226,3.031
0.004274450340330577,3.032
0.0042996143938149895,3.033
0.004324674489968547,3.034
0.004349598903203209,3.035
0.004374358997501126,3.036
0.004398927927794421,3.037
0.0044232788281024235,3.038
0.0044473831134993124,3.039
0.004471209943948062,3.04
0.0044947272571164276,3.041
0.004517903557579118,3.042
0.004540709477687494,3.043
0.004563118746694231,3.044
0.004585108553158158,3.045
0.004606659384749049,3.046
0.004627754503064412,3.047
0.004648379235314779,3.048
0.0046685202301634515,3.049
0.004688164742398231,3.05
0.004707299911443861,3.051
0.004725911925470099,3.052
0.004743984985648436,3.053
0.004761500288672001,3.054
0.0047784356480617025,3.055
0.004794766072834564,3.056
0.004810464815739223,3.057
0.004825504283355673,3.058
0.004839856674347165,3.059
0.0048534944748783075,3.06
0.004866390958711846,3.061
0.0048785207973467805,3.062
0.004889860795928242,3.063
0.0049003906358663476,3.064
0.004910093356885617,3.065
0.0049189552300703265,3.066
0.00492696473084067,3.067
0.0049341106715893295,3.068
0.004940380422400362,3.069
0.004945759738709232,3.07
0.00495023464686286,3.071
0.00495379415978712,3.072
0.00495643242973413,3.073
0.004958149757975699,3.074
0.004958952338087422,3.075
0.004958850792151289,3.076
0.0049578577525920195,3.077
0.004955985175754266,3.078
0.004953242685554843,3.079
0.004949637829962898,3.08
0.004945177649058261,3.081
0.00493987037893895,3.082
0.004933726734920601,3.083
0.004926760658733508,3.084
0.004918989433823469,3.085
0.004910433072674459,3.086
0.004901112954430997,3.087
0.004891049941641529,3.088
0.0048802627926414115,3.089
0.004868767985678815,3.09
0.004856581172189615,3.091
0.004843719291735205,3.092
0.004830202349743718,3.093
0.004816054458361445,3.094
0.004801304049001157,3.095
0.004785983269958657,3.096
0.004770126659021236,3.097
0.0047537692188432115,3.098
0.0047369443757520275,3.099
0.00471968296430595,3.1
0.00470201396552315,3.101
0.004683966233737278,3.102
0.004665570028540246,3.103
0.004646857951749102,3.104
0.004627865407104841,3.105
0.004608630750472547,3.106
0.004589195196284222,3.107
0.004569602408389106,3.108
0.004549897654518661,3.109
0.00453012648734699,3.11
0.004510333146530216,3.111
0.0044905592427757855,3.112
0.00447084336551463,3.113
0.004451221642443532,3.114
0.004431728656656146,3.115
0.004412398248906351,3.116
0.0043932641039078355,3.117
0.0043743600881249334,3.118
0.004355720238465188,3.119
0.004337378290851728,3.12
0.00431936671671231,3.121
0.004301715574541475,3.122
0.004284451911208452,3.123
0.004267600048557532,3.124
0.004251182085641295,3.125
0.004235217842981723,3.126
0.004219724365860763,3.127
0.004204715774908922,3.128
0.004190203901057175,3.129
0.004176199304013387,3.13
0.0041627121354951575,3.131
0.004149752713541682,3.132
0.004137331827661974,3.133
0.004125460713260463,3.134
0.0041141505689423945,3.135
0.004103411586537711,3.136
0.004093251931550985,3.137
0.004083677570063688,3.138
0.004074693313912388,3.139
0.004066304386181775,3.14
0.0040585176317102295,3.141
0.004051342039033542,3.142
0.004044788600102301,3.143
0.004038869678173618,3.144
0.004033598130038918,3.145
0.004028986422104591,3.146
0.004025045918032046,3.147
0.0040217864319054475,3.148
0.004019216042289784,3.149
0.004017341046770325,3.15
0.004016165830858907,3.151
0.004015692492411229,3.152
0.004015920500423096,3.153
0.004016847041469679,3.154
0.00401846827609084,3.155
0.004020780943541588,3.156
0.004023783600186756,3.157
0.004027477109478494,3.158
0.004031864287892543,3.159
0.004036948822098114,3.16
0.00404273374954205,3.161
0.00404921996335308,3.162
0.004056405277193682,3.163
0.004064284202033166,3.164
0.004072848030886775,3.165
0.00408208489231655,3.166
0.004091979888043731,3.167
0.004102515588045432,3.168
0.004113673020173289,3.169
0.004125433080230854,3.17
0.004137778080761676,3.171
0.004150693016489355,3.172
0.0041641661163104105,3.173
0.004178188391467018,3.174
0.0041927521240079585,3.175
0.004207848918841674,3.176
0.0042234689435761,3.177
0.004239602436458571,3.178
0.004256242481367797,3.179
0.0042733872540006235,3.18
0.004291040713436844,3.181
0.004309211409260008,3.182
0.004327909891699026,3.183
0.004347146463447571,3.184
0.004366930975722294,3.185
0.004387274268308781,3.186
0.004408189349257111,3.187
0.004429691151580706,3.188
0.004451794994629261,3.189
0.004474514668859056,3.19
0.004497861449010246,3.191
0.004521844577889559,3.192
0.004546472377252746,3.193
0.004571752982764016,3.194
0.004597694462308528,3.195
0.004624304462228017,3.196
0.0046515895692248585,3.197
0.004679554590735419,3.198
0.004708201941368969,3.199
0.004737531268696802,3.2
0.004767539363638742,3.201
0.004798220299831745,3.202
0.004829565653035984,3.203
0.004861564581510702,3.204
0.004894203532820916,3.205
0.004927465680245798,3.206
0.004961330898548912,3.207
0.004995777040039976,3.208
0.0050307822178817735,3.209
0.005066327240695572,3.21
0.0051023976069442985,3.211
0.005138984733293523,3.212
0.005176086238673493,3.213
0.005213705263700332,3.214
0.005251848921934076,3.215
0.0052905260533036656,3.216
0.005329744710387202,3.217
0.005369510334648174,3.218
0.005409825454825986,3.219
0.00545069053626876,3.22
0.00549210484239182,3.221
0.005534066691474283,3.222
0.0055765732414223826,3.223
0.005619620191408171,3.224
0.005663201744893703,3.225
0.005707311015734988,3.226
0.005751940842287388,3.227
0.005797084780478394,3.228
0.005842737946687387,3.229
0.005888897406540858,3.23
0.0059355619243138605,3.231
0.005982731031363769,3.232
0.006030403490339371,3.233
0.006078575486602452,3.234
0.006127239355343405,3.235
0.006176383590669869,3.236
0.006225993870096182,3.237
0.006276054082376993,3.238
0.0063265466354093,3.239
0.0063774518993946925,3.24
0.006428747000747901,3.241
0.0064804044934347015,3.242
0.0065323915263987686,3.243
0.006584669614564558,3.244
0.006637194745080879,3.245
0.006689918014678747,3.246
0.006742787168370261,3.247
0.006795748743963657,3.248
0.0068487501093697075,3.249
0.0069017408345590035,3.25
0.006954673109191045,3.251
0.0070075011767629335,3.252
0.0070601799797973385,3.253
0.007112663330586114,3.254
0.007164901933416071,3.255
0.007216841648363535,3.256
0.0072684225552449465,3.257
0.007319579156173393,3.258
0.007370241451122851,3.259
0.007420336457531666,3.26
0.007469790009693506,3.261
0.007518528738029837,3.262
0.007566481986795627,3.263
0.007613583326717897,3.264
0.007659771328120671,3.265
0.007704989371775682,3.266
0.00774918444486579,3.267
0.007792305053580427,3.268
0.00783429854762096,3.269
0.007875108436613095,3.27
0.007914672615106415,3.271
0.007952922949941923,3.272
0.007989785473508992,3.273
0.008025180228551377,3.274
0.00805902099406449,3.275
0.008091215692454835,3.276
0.008121667312679293,3.277
0.008150274268247689,3.278
0.008176930031057003,3.279
0.008201523990847674,3.28
0.008223945582711131,3.281
0.008244091226354635,3.282
0.00826187193048809,3.283
0.008277219495438852,3.284
0.008290089598182702,3.285
0.008300460586355547,3.286
0.008308327788505931,3.287
0.008313695192837908,3.288
0.008316569420899098,3.289
0.00831696048519174,3.29
0.008314888097438161,3.291
0.008310388466373062,3.292
0.008303518221322276,3.293
0.008294354780269873,3.294
0.008282993600289395,3.295
0.008269543206823325,3.296
0.008254119151514163,3.297
0.008236838076383386,3.298
0.0082178130766354,3.299
0.008197151331805312,3.3
0.008174953775690167,3.301
0.008151315395162196,3.302
0.0081263252482032,3.303
0.008100066454413708,3.304
0.008072616707849657,3.305
0.008044049563201913,3.306
0.008014436387278407,3.307
0.007983848615362084,3.308
0.007952359896408924,3.309
0.007920047810163863,3.31
0.007886994969990778,3.311
0.007853289389585247,3.312
0.007819023988913229,3.313
0.007784295122919616,3.314
0.007749200110931574,3.315
0.007713834262015802,3.316
0.007678288868076271,3.317
0.007642651524925933,3.318
0.0076070083146035,3.319
0.007571446192689304,3.32
0.0075360545294671484,3.321
0.007500925631772168,3.322
0.007466154383858927,3.323
0.007431837199793384,3.324
0.007398070481704394,3.325
0.007364948780466672,3.326
0.0073325628870560215,3.327
0.007300998194021494,3.328
0.007270333716970089,3.329
0.0072406418009624465,3.33
0.007211988167927862,3.331
0.00718443219928316,3.332
0.007158027520558127,3.333
0.007132822615966987,3.334
0.007108861021124786,3.335
0.007086181012621707,3.336
0.007064815450216561,3.337
0.007044792689478841,3.338
0.0070261387075903695,3.339
0.007008879764075039,3.34
0.006993044840935592,3.341
0.006978667278374933,3.342
0.006965785095121888,3.343
0.006954439628718663,3.344
0.006944672767642513,3.345
0.006936524388760413,3.346
0.006930032064768099,3.347
0.006925233090877922,3.348
0.006922166719190633,3.349
0.006920874838199885,3.35
0.00692140084025934,3.351
0.006923787256844708,3.352
0.006928073143796708,3.353
0.006934292306013355,3.354
0.006942472665724266,3.355
0.006952636215144706,3.356
0.006964799322221673,3.357
0.006978973491766742,3.358
0.00699516610890194,3.359
0.007013380460294932,3.36
0.007033615044986698,3.361
0.0070558631307400125,3.362
0.0070801134159257815,3.363
0.007106351429921705,3.364
0.0071345606569175775,3.365
0.007164722783161692,3.366
0.007196816960688237,3.367
0.007230818416717711,3.368
0.007266697304051988,3.369
0.0073044186026415365,3.37
0.00734394280185856,3.371
0.007385226345136265,3.372
0.0074282212286685195,3.373
0.007472874081893528,3.374
0.007519125679365027,3.375
0.007566911334844258,3.376
0.007616161541980941,3.377
0.007666802140161249,3.378
0.007718754023691039,3.379
0.007771932852869747,3.38
0.007826249231992679,3.381
0.007881609605628644,3.382
0.007937917803384298,3.383
0.0079950768757166,3.384
0.008052990692478203,3.385
0.008111564738112522,3.386
0.008170705623016873,3.387
0.008230319163218884,3.388
0.008290308051081323,3.389
0.008350571549768872,3.39
0.008411008649774081,3.391
0.008471523264783723,3.392
0.00853202912719582,3.393
0.00859245308345853,3.394
0.008652736266877936,3.395
0.008712833046461295,3.396
0.008772708055372861,3.397
0.008832331820770109,3.398
0.008891675805816394,3.399
0.008950708572433973,3.4
0.009009395182374171,3.401
0.009067700075080235,3.402
0.009125591293327953,3.403
0.009183043896417923,3.404
0.009240041614770043,3.405
0.00929657646164505,3.406
0.009352646386639482,3.407
0.009408251495040742,3.408
0.009463389759090989,3.409
0.009518053398082163,3.41
0.009572226790359536,3.411
0.009625885911831373,3.412
0.009678999000304025,3.413
0.009731528352817142,3.414
0.009783432689449496,3.415
0.009834668964361866,3.416
0.009885192715288857,3.417
0.009934956656069754,3.418
0.009983908487150833,3.419
0.010031990338644308,3.42
0.01007914128723591,3.421
0.01012530152315958,3.422
0.010170415836641522,3.423
0.010214435180822608,3.424
0.010257315852182612,3.425
0.010299016213778236,3.426
0.01033949224231067,3.427
0.010378695325567728,3.428
0.010416574659441277,3.429
0.010453082245050314,3.43
0.01048817695530717,3.431
0.010521825913121167,3.432
0.010554002678493855,3.433
0.010584682850571049,3.434
0.01061384009269802,3.435
0.010641446431538668,3.436
0.010667477040749706,3.437
0.010691915738180189,3.438
0.010714757809502078,3.439
0.010736009211365475,3.44
0.010755682650056069,3.441
0.01077379189144767,3.442
0.010790346677732194,3.443
0.010805350610257971,3.444
0.010818801955231891,3.445
0.010830694971035707,3.446
0.010841019923686492,3.447
0.010849761701577136,3.448
0.010856897836255527,3.449
0.010862397078095718,3.45
0.01086621898768949,3.451
0.010868313998015428,3.452
0.010868624292421617,3.453
0.01086708690260971,3.454
0.010863639197968239,3.455
0.010858225384031292,3.456
0.010850802324037696,3.457
0.010841343108506558,3.458
0.010829837086952138,3.459
0.010816285738895455,3.46
0.010800695710177992,3.461
0.010783073752866397,3.462
0.010763428346050175,3.463
0.010741777090824528,3.464
0.010718154771919485,3.465
0.010692618389229365,3.466
0.010665248114233928,3.467
0.010636144364815211,3.468
0.010605421873271962,3.469
0.010573202128058626,3.47
0.010539606083624744,3.471
0.01050474948926609,3.472
0.010468742033379016,3.473
0.010431688967214097,3.474
0.010393693141877061,3.475
0.01035485677407873,3.476
0.010315283178490644,3.477
0.010275078534608503,3.478
0.010234353330820565,3.479
0.010193222906757086,3.48
0.010151806627301734,3.481
0.010110225590624349,3.482
0.010068599215383459,3.483
0.010027041809340958,3.484
0.009985660953799443,3.485
0.009944558423436485,3.486
0.009903832086954433,3.487
0.009863576962921153,3.488
0.00982388498246444,3.489
0.009784843810016186,3.49
0.009746535184042173,3.491
0.009709033351658264,3.492
0.009672404417786749,3.493
0.009636707092576193,3.494
0.009601994386663941,3.495
0.00956831547334488,3.496
0.00953571722826919,3.497
0.00950424512452704,3.498
0.009473943271716734,3.499
0.009444853611711315,3.5
0.00941701449799143,3.501
0.009390458972626579,3.502
0.00936521316704399,3.503
0.009341295526282956,3.504
0.009318717406653113,3.505
0.009297484862152912,3.506
0.009277601058512474,3.507
0.009259068901771706,3.508
0.009241893488489344,3.509
0.009226083842523963,3.51
0.009211653389783034,3.511
0.009198618817929955,3.512
0.00918699731232521,3.513
0.009176803052702935,3.514
0.00916804514080815,3.515
0.009160728449786734,3.516
0.009154856153713007,3.517
0.009150431639267133,3.518
0.009147458677815665,3.519
0.009145939725288394,3.52
0.0091458732422705,3.521
0.009147252455358633,3.522
0.009150067206365341,3.523
0.009154307390173979,3.524
0.009159965354383381,3.525
0.009167035963262715,3.526
0.00917551430191241,3.527
0.009185392548263775,3.528
0.009196658965094893,3.529
0.009209300330471208,3.53
0.009223305714861888,3.531
0.009238668965040194,3.532
0.009255389100201088,3.533
0.009273469037516363,3.534
0.009292913407875036,3.535
0.009313726199079726,3.536
0.009335908674285786,3.537
0.009359457730258577,3.538
0.009384364770689822,3.539
0.009410615185174246,3.54
0.009438188397484835,3.541
0.009467058097198793,3.542
0.00949719202844877,3.543
0.009528551416558508,3.544
0.009561091540550341,3.545
0.009594764796932062,3.546
0.009629525648781332,3.547
0.009665335906599268,3.548
0.009702169189321309,3.549
0.00974001361016405,3.55
0.00977887175472477,3.551
0.009818757424410851,3.552
0.009859689761124741,3.553
0.0099016876052426,3.554
0.009944768088103476,3.555
0.009988950308600215,3.556
0.010034260685154887,3.557
0.010080736605544607,3.558
0.010128427463614642,3.559
0.010177393437006521,3.56
0.010227702683176946,3.561
0.010279427765715882,3.562
0.010332642008692742,3.563
0.010387416134945007,3.564
0.010443815384815152,3.565
0.010501897785704758,3.566
0.010561714488031058,3.567
0.0106233120708769,3.568
0.010686735633599743,3.569
0.01075203160806264,3.57
0.010819249761771515,3.571
0.010888444012534589,3.572
0.010959671699654436,3.573
0.011032991173650425,3.574
0.011108458152418808,3.575
0.011186122315733665,3.576
0.011266025959091343,3.577
0.011348204869556868,3.578
0.01143268969105422,3.579
0.011519506360994951,3.58
0.011608675527876406,3.581
0.011700211380446796,3.582
0.011794120282382916,3.583
0.011890399536297095,3.584
0.011989036570448822,3.585
0.012090008806890776,3.586
0.012193284337236196,3.587
0.012298823301103821,3.588
0.012406579644264122,3.589
0.012516502823831393,3.59
0.01262853901085194,3.591
0.012742631349704353,3.592
0.012858718869373474,3.593
0.012976734236609031,3.594
0.013096602057874347,3.595
0.013218239913573062,3.596
0.013341562138655937,3.597
0.013466484176752985,3.598
0.013592925470433215,3.599
0.013720809944542214,3.6
0.01385006391529409,3.601
0.013980611900314186,3.602
0.014112371780831972,3.603
0.014245251712738565,3.604
0.014379150082745125,3.605
0.014513957169874287,3.606
0.01464955655675082,3.607
0.014785825655702925,3.608
0.014922635421378871,3.609
0.01505984925743129,3.61
0.015197321157627843,3.611
0.01533489378526256,3.612
0.01547239805047691,3.613
0.01560965507866234,3.614
0.015746479653922518,3.615
0.015882683604386997,3.616
0.016018078003610464,3.617
0.016152473139423806,3.618
0.016285675802657974,3.619
0.016417486247501306,3.62
0.016547699813293196,3.621
0.01667611551661648,3.622
0.01680254824063412,3.623
0.016926839322296675,3.624
0.0170488618194903,3.625
0.017168518119146783,3.626
0.017285729673294937,3.627
0.01740042430407684,3.628
0.017512531924233406,3.629
0.017621993564747633,3.63
0.01772877591717849,3.631
0.017832881406429198,3.632
0.017934350174806872,3.633
0.01803325420298589,3.634
0.018129685034070663,3.635
0.018223739294593044,3.636
0.01831551006934008,3.637
0.018405089281964417,3.638
0.01849257659559811,3.639
0.01857808685410264,3.64
0.018661752279305124,3.641
0.018743719010200676,3.642
0.01882413888044007,3.643
0.018903159854084597,3.644
0.018980921251569933,3.645
0.01905755642568424,3.646
0.019133198082275333,3.647
0.019207980461485814,3.648
0.019282037055330332,3.649
0.01935549531432139,3.65
0.019428470927391233,3.651
0.01950106446323431,3.652
0.019573360756345488,3.653
0.019645428831356924,3.654
0.019717321324689816,3.655
0.01978907436311675,3.656
0.01986070795048528,3.657
0.01993222653936674,3.658
0.020003621692879017,3.659
0.020074878699098273,3.66
0.02014598534579948,3.661
0.020216938846731005,3.662
0.020287747772001204,3.663
0.020358427662180743,3.664
0.020428992476613585,3.665
0.020499448856973804,3.666
0.020569798967802665,3.667
0.02064004927252709,3.668
0.020710218418441863,3.669
0.020780340606814513,3.67
0.020850464222868386,3.671
0.02092064667800842,3.672
0.02099094671857806,3.673
0.021061416151840994,3.674
0.021132094492299334,3.675
0.021203009200551026,3.676
0.021274179767079793,3.677
0.021345621297611504,3.678
0.021417344898898967,3.679
0.021489354551727895,3.68
0.02156164209832513,3.681
0.021634183681713676,3.682
0.021706939565917068,3.683
0.02177985522138572,3.684
0.021852860932941996,3.685
0.02192587095005045,3.686
0.02199878543906997,3.687
0.022071496185219,3.688
0.022143893744465643,3.689
0.022215873103440267,3.69
0.0222873357379027,3.691
0.022358186736319317,3.692
0.022428327861506923,3.693
0.022497651702656916,3.694
0.022566042715155853,3.695
0.02263338439899974,3.696
0.022699566253833084,3.697
0.02276448551296085,3.698
0.02282804229900085,3.699
0.022890131041593303,3.7
0.02295063624544522,3.701
0.023009438180482882,3.702
0.023066423519326775,3.703
0.02312149204843826,3.704
0.023174555120966826,3.705
0.023225527211948215,3.706
0.023274318417624507,3.707
0.023320836875435187,3.708
0.023365000467283698,3.709
0.023406748395594527,3.71
0.023446044693190855,3.711
0.023482871227038616,3.712
0.023517214226768706,3.713
0.023549055961793713,3.714
0.023578379940875107,3.715
0.023605183360291857,3.716
0.023629484796172887,3.717
0.023651321722033616,3.718
0.023670739838330974,3.719
0.02368778283699602,3.72
0.02370249299788738,3.721
0.023714923870193885,3.722
0.023725156519302498,3.723
0.023733311464652518,3.724
0.02373955363757229,3.725
0.023744090379476418,3.726
0.02374716360987704,3.727
0.023749037956730817,3.728
