VaMe,time
-0.003942982918206198,0.001
-0.003511569140884835,0.002
-0.0030798682328613213,0.003
-0.002648216205580104,0.004
-0.0022169227347501744,0.005
-0.0017862673637607845,0.006
-0.0013565024051623439,0.007
-0.0009278606558388499,0.008
-0.0005005620382819119,0.009
-7.481389296961266e-05,0.01
0.0003491935202391882,0.011
0.0007712906087316134,0.012
0.0011913279314124696,0.013
0.0016091718760087887,0.014
0.0020246983944630912,0.015
0.002437787291357472,0.016
0.002848318824369819,0.017
0.003256172590851868,0.018
0.00366122817428971,0.019
0.004063367228560707,0.02
0.0044624756428054075,0.021
0.004858443765064355,0.022
0.005251164380154013,0.023
0.005640531233933345,0.024
0.00602644128810966,0.025
0.00640880017259512,0.026
0.006787527536843146,0.027
0.007162559818792648,0.028
0.0075338496677186,0.029
0.007901362397127458,0.03
0.008265070608731932,0.031
0.008624948445732947,0.032
0.00898096674682601,0.033
0.009333089808513701,0.034
0.009681273742577474,0.035
0.010025465869647704,0.036
0.010365604490308256,0.037
0.01070161879921012,0.038
0.011033429301095367,0.039
0.011360949083045607,0.04
0.011684085707756725,0.041
0.012002743158713688,0.042
0.012316823388689621,0.043
0.012626227244218111,0.044
0.012930854720803199,0.045
0.013230604617249156,0.046
0.013525373714076831,0.047
0.013815055683731939,0.048
0.014099540052860992,0.049
0.01437871154007003,0.05
0.014652449882054691,0.051
0.014920629967056074,0.052
0.015183121986537925,0.053
0.015439791497935703,0.054
0.015690499571746654,0.055
0.015935103266957556,0.056
0.01617345637149111,0.057
0.016405409744651465,0.058
0.016630810024045626,0.059
0.01684949664576853,0.06
0.017061300789722275,0.061
0.01726605050274718,0.062
0.017463581125241028,0.063
0.017653746365664778,0.064
0.017836426415704463,0.065
0.01801153154736427,0.066
0.018179000941103703,0.067
0.018338797483199522,0.068
0.0184908998317451,0.069
0.018635293056446286,0.07
0.018771959383864553,0.071
0.018900871899531282,0.072
0.019021994150846495,0.073
0.019135285210379913,0.074
0.01924070674342232,0.075
0.019338229489352553,0.076
0.019427838647223406,0.077
0.019509538362571667,0.078
0.019583355346042178,0.079
0.019649341342875177,0.08
0.019707573957602864,0.081
0.019758155300746316,0.082
0.019801208008390088,0.083
0.019836868381843068,0.084
0.019865276949244646,0.085
0.01988656914209751,0.086
0.019900871837530514,0.087
0.019908308660702385,0.088
0.019909009695436707,0.089
0.019903119755126812,0.09
0.019890803104244743,0.091
0.019872244839882446,0.092
0.019847649735846226,0.093
0.019817239549450888,0.094
0.019781249599129587,0.095
0.01973992499245076,0.096
0.019693516479355654,0.097
0.019642275762610652,0.098
0.019586450235762897,0.099
0.019526277640519465,0.1
0.019461982208328416,0.101
0.01939377415536325,0.102
0.019321852474780372,0.103
0.019246408903006208,0.104
0.019167631208424026,0.105
0.01908570525422715,0.106
0.01900081593780226,0.107
0.018913147324889065,0.108
0.018822882396141088,0.109
0.01873020278748571,0.11
0.018635288760556402,0.111
0.018538319418653203,0.112
0.018439472934518055,0.113
0.018338926352501474,0.114
0.018236854439613488,0.115
0.018133427129329336,0.116
0.018028805783758976,0.117
0.017923140193634817,0.118
0.017816568936598325,0.119
0.017709223306426533,0.12
0.01760123231013486,0.121
0.01749272643612167,0.122
0.017383839360329688,0.123
0.017274707395283324,0.124
0.017165466641655715,0.125
0.01705624836836561,0.126
0.016947174842039652,0.127
0.016838358983338655,0.128
0.016729908735528792,0.129
0.016621933167100023,0.13
0.016514546818140005,0.131
0.01640787053273382,0.132
0.016302028176581523,0.133
0.016197140690121226,0.134
0.01609332246659285,0.135
0.01599068430739777,0.136
0.015889340842326974,0.137
0.015789416848681615,0.138
0.015691049118356004,0.139
0.015594383335253597,0.14
0.015499567215985515,0.141
0.015406743106021937,0.142
0.015316043949230994,0.143
0.01522759335069916,0.144
0.015141506476870747,0.145
0.015057889225641243,0.146
0.014976836150493734,0.147
0.014898428658468577,0.148
0.014822734379898709,0.149
0.014749807915535084,0.15
0.014679692777566528,0.151
0.01461242397579372,0.152
0.014548030444815622,0.153
0.014486536582641218,0.154
0.014427962399300866,0.155
0.014372322065899416,0.156
0.014319621388416982,0.157
0.014269855931676947,0.158
0.014223011448035654,0.159
0.014179066208734851,0.16
0.014137993431937525,0.161
0.014099762587458058,0.162
0.014064339251818806,0.163
0.014031683449715126,0.164
0.014001747126116402,0.165
0.013974473072826454,0.166
0.013949797598100406,0.167
0.013927656330448504,0.168
0.013907990458330903,0.169
0.013890750958842568,0.17
0.01387589910408136,0.171
0.013863402332534793,0.172
0.01385322736963852,0.173
0.01384533658296294,0.174
0.01383969156047717,0.175
0.01383626007982503,0.176
0.0138350202462161,0.177
0.013835959469365302,0.178
0.013839068989362213,0.179
0.013844336716948763,0.18
0.013851742844413617,0.181
0.013861260057942049,0.182
0.013872855051342323,0.183
0.013886487948821805,0.184
0.013902110628203268,0.185
0.013919667142150302,0.186
0.013939097191552344,0.187
0.013960340375512166,0.188
0.013983338571228781,0.189
0.014008035317203758,0.19
0.014034372389355836,0.191
0.014062285604934055,0.192
0.014091703435080498,0.193
0.01412254973660393,0.194
0.014154747707989246,0.195
0.014188221804106407,0.196
0.014222896940636793,0.197
0.014258695882112588,0.198
0.014295535928720047,0.199
0.014333325737861844,0.2
0.014371962809268179,0.201
0.014411332096029758,0.202
0.014451305789971478,0.203
0.014491743494811955,0.204
0.014532492179849888,0.205
0.014573386773333903,0.206
0.014614252711881716,0.207
0.014654910358563207,0.208
0.014695180006850512,0.209
0.014734886100181444,0.21
0.014773859552359844,0.211
0.014811937450156137,0.212
0.014848959938796058,0.213
0.014884765115148862,0.214
0.01491918490827429,0.215
0.014952045910659737,0.216
0.014983176153076896,0.217
0.015012415151940179,0.218
0.01503962421999648,0.219
0.01506469505211041,0.22
0.01508755470254982,0.221
0.015108165113982408,0.222
0.01512651611768615,0.223
0.015142613249385673,0.224
0.01515646670262373,0.225
0.01516808967056857,0.226
0.015177506768162275,0.227
0.015184764507564646,0.228
0.015189936697009966,0.229
0.01519312321100512,0.23
0.015194443496067866,0.231
0.015194027019436842,0.232
0.015192003343999574,0.233
0.015188494822217687,0.234
0.01518361382290331,0.235
0.015177463415847837,0.236
0.015170138650057117,0.237
0.015161726824545328,0.238
0.01515230686003535,0.239
0.015141948200285055,0.24
0.015130709405236956,0.241
0.015118636835439642,0.242
0.01510576463696717,0.243
0.015092117009092788,0.244
0.015077712095681433,0.245
0.01506256581536764,0.246
0.01504669403293325,0.247
0.015030111784464645,0.248
0.015012829872377172,0.249
0.014994852516895387,0.25
0.014976180229676322,0.251
0.01495681733318148,0.252
0.014936779845507786,0.253
0.014916100350732526,0.254
0.0148948285228619,0.255
0.014873027184664213,0.256
0.014850764786300793,0.257
0.014828107196787368,0.258
0.01480511381578227,0.259
0.014781840286847052,0.26
0.014758344084987293,0.261
0.014734688198481533,0.262
0.014710941323562278,0.263
0.014687174911437274,0.264
0.014663458100798785,0.265
0.014639852662921797,0.266
0.014616410619945118,0.267
0.014593174920491172,0.268
0.014570180359962574,0.269
0.014547452807676022,0.27
0.014525008849387946,0.271
0.014502858832186995,0.272
0.014481012708762661,0.273
0.014459485413530718,0.274
0.014438299112829536,0.275
0.014417481225133423,0.276
0.014397059098303558,0.277
0.01437705507838803,0.278
0.0143574860259657,0.279
0.01433836691245626,0.28
0.01431971434751787,0.281
0.014301547073973315,0.282
0.014283883305547066,0.283
0.014266736301249583,0.284
0.01425011033516447,0.285
0.014233998850716766,0.286
0.014218384419939764,0.287
0.014203238712329001,0.288
0.01418852224322526,0.289
0.014174185421486098,0.29
0.014160171523687757,0.291
0.014146420634480919,0.292
0.01413287348264414,0.293
0.014119474617141857,0.294
0.014106174482171253,0.295
0.014092929885253356,0.296
0.014079702431369441,0.297
0.01406645476877708,0.298
0.014053145603981758,0.299
0.014039726465258046,0.3
0.01402614295045615,0.301
0.014012339538847573,0.302
0.013998264775327587,0.303
0.013983874850474644,0.304
0.013969135289897797,0.305
0.013954021165461543,0.306
0.013938516481531948,0.307
0.013922613373680634,0.308
0.01390631144961439,0.309
0.013889617064354567,0.31
0.013872541774048158,0.311
0.013855098978523278,0.312
0.013837299132604083,0.313
0.013819147053225544,0.314
0.013800644907818918,0.315
0.01378179962709239,0.316
0.01376263039547663,0.317
0.013743173245592212,0.318
0.013723481741537024,0.319
0.013703623787931047,0.32
0.01368367544441625,0.321
0.013663713378059224,0.322
0.01364380838329313,0.323
0.01362402240037954,0.324
0.013604409143242749,0.325
0.013585015894866295,0.326
0.013565884527826604,0.327
0.01354705169569186,0.328
0.013528548777683003,0.329
0.0135104019552762,0.33
0.013492632528801994,0.331
0.013475257348475458,0.332
0.013458289093686815,0.333
0.013441736099170928,0.334
0.013425601506269171,0.335
0.013409881704461508,0.336
0.013394564310766735,0.337
0.013379626408092865,0.338
0.013365034106395156,0.339
0.013350743881651226,0.34
0.013336705029648151,0.341
0.013322862196557773,0.342
0.013309157057683195,0.343
0.013295528171652908,0.344
0.013281908936457393,0.345
0.013268226130614432,0.346
0.013254402336281267,0.347
0.013240362039711703,0.348
0.013226037694882235,0.349
0.013211372226312825,0.35
0.013196316345490176,0.351
0.01318082226432536,0.352
0.013164839929584561,0.353
0.013148320918621644,0.354
0.01313122749504391,0.355
0.013113540626106672,0.356
0.013095263578412815,0.357
0.013076420528488076,0.358
0.01305705077870203,0.359
0.013037200145572773,0.36
0.013016912775088032,0.361
0.01299622763209047,0.362
0.012975180697174314,0.363
0.012953809193854509,0.364
0.012932154198770312,0.365
0.012910260936948614,0.366
0.01288817744463345,0.367
0.01286595238557771,0.368
0.012843632712721608,0.369
0.01282126164039519,0.37
0.012798877114752406,0.371
0.012776510707295822,0.372
0.012754186658638162,0.373
0.01273192071225139,0.374
0.01270971879007595,0.375
0.01268757652059066,0.376
0.012665480587012256,0.377
0.012643411368419094,0.378
0.012621345462726452,0.379
0.012599256993873235,0.38
0.012577116995791789,0.381
0.012554891151202811,0.382
0.012532538294097836,0.383
0.012510012407888415,0.384
0.012487267676428193,0.385
0.012464263586389692,0.386
0.012440967763246082,0.387
0.012417355885963407,0.388
0.012393409029496408,0.389
0.012369109269652775,0.39
0.012344434818605643,0.391
0.01231935666933252,0.392
0.0122938385288366,0.393
0.012267839908321117,0.394
0.012241320799657163,0.395
0.012214246793525577,0.396
0.01218659413427143,0.397
0.012158354037261244,0.398
0.012129535243723446,0.399
0.012100163778215276,0.4
0.012070279330578861,0.401
0.012039928525682447,0.402
0.012009157237697285,0.403
0.011978006308058741,0.404
0.0119465129348369,0.405
0.011914714681283797,0.406
0.011882652089953238,0.407
0.011850368822293676,0.408
0.011817909866267467,0.409
0.011785318599486352,0.41
0.011752633638595562,0.411
0.011719886443173,0.412
0.011687100492930343,0.413
0.01165429247823344,0.414
0.011621475369895806,0.415
0.011588662581798371,0.416
0.011555871907265331,0.417
0.011523127733230634,0.418
0.011490460372878203,0.419
0.011457902342438498,0.42
0.011425483626965523,0.421
0.011393230054858285,0.422
0.011361166706725868,0.423
0.011329323484557492,0.424
0.011297739061345726,0.425
0.011266461812635775,0.426
0.011235547855224034,0.427
0.01120505685950525,0.428
0.011175046921964289,0.429
0.011145570658010168,0.43
0.011116674502258986,0.431
0.011088400972720033,0.432
0.011060791743488476,0.433
0.011033889769389385,0.434
0.011007739812340288,0.435
0.01098238717364563,0.436
0.010957874822802973,0.437
0.010934240187991112,0.438
0.01091151385121935,0.439
0.010889721039591134,0.44
0.010868884176295331,0.441
0.010849024412281973,0.442
0.010830161466058107,0.443
0.010812311901845048,0.444
0.010795486582849902,0.445
0.01077968896863067,0.446
0.01076491552680086,0.447
0.010751157533707026,0.448
0.010738402611718118,0.449
0.010726635228579733,0.45
0.010715836280585662,0.451
0.01070598213616756,0.452
0.010697043474058901,0.453
0.010688984091103521,0.454
0.010681759739849668,0.455
0.01067531724105005,0.456
0.010669594423092928,0.457
0.01066452113886009,0.458
0.010660020866340004,0.459
0.010656012187471321,0.46
0.010652409731982828,0.461
0.010649124412179457,0.462
0.01064606294114237,0.463
0.010643126799618636,0.464
0.010640210957818166,0.465
0.010637202752953961,0.466
0.010633981358933812,0.467
0.010630418233299018,0.468
0.010626378753388394,0.469
0.010621724952106362,0.47
0.01061631888938633,0.471
0.010610025859742914,0.472
0.010602716458691057,0.473
0.01059426658795963,0.474
0.010584554776409648,0.475
0.010573457902564537,0.476
0.010560849520642157,0.477
0.01054660433920506,0.478
0.01053060718747685,0.479
0.010512762388879214,0.48
0.01049300100792228,0.481
0.010471284514762955,0.482
0.010447603692545977,0.483
0.010421972296601247,0.484
0.010394416972153299,0.485
0.010364968639796416,0.486
0.010333661286531121,0.487
0.010300537907479533,0.488
0.010265657371658908,0.489
0.010229097230284692,0.49
0.010190951533606126,0.491
0.010151324709750581,0.492
0.01011032387960625,0.493
0.01006805347834437,0.494
0.010024614528463222,0.495
0.009980106407856662,0.496
0.009934627242208548,0.497
0.009888272004153726,0.498
0.009841131087309827,0.499
0.009793292191460835,0.5
0.009744844799061275,0.501
0.009695884308182984,0.502
0.009646513844858842,0.503
0.009596843218461527,0.504
0.009546985294703263,0.505
0.00949705127395268,0.506
0.00944714784717784,0.507
0.009397378052738143,0.508
0.009347844180100177,0.509
0.00929865007973987,0.51
0.009249901998487072,0.511
0.009201708256017243,0.512
0.009154178246272656,0.513
0.00910742115689819,0.514
0.009061544626185669,0.515
0.009016653398767373,0.516
0.008972847956077308,0.517
0.008930223092936543,0.518
0.008888866656187636,0.519
0.008848859084376699,0.52
0.008810274148977134,0.521
0.008773180428781602,0.522
0.008737642778463197,0.523
0.008703723399794052,0.524
0.008671482331100386,0.525
0.008640977261897971,0.526
0.008612262731863026,0.527
0.008585388921434376,0.528
0.008560400318277327,0.529
0.008537334541791449,0.53
0.008516221557633274,0.531
0.008497083377980856,0.532
0.00847993414273868,0.533
0.00846478042692907,0.534
0.008451621761013498,0.535
0.008440451429750313,0.536
0.008431257528748714,0.537
0.00842402412866925,0.538
0.008418732315140596,0.539
0.008415360860338263,0.54
0.008413886344515075,0.541
0.008414282670323535,0.542
0.008416520066630922,0.543
0.008420563812872558,0.544
0.008426372980645688,0.545
0.008433899454186107,0.546
0.00844308735522146,0.547
0.008453872803924761,0.548
0.008466183871273686,0.549
0.008479940775416712,0.55
0.008495056562665311,0.551
0.00851143837953422,0.552
0.008528989223339297,0.553
0.008547609980896992,0.554
0.008567201502032105,0.555
0.008587666303437422,0.556
0.00860890930678749,0.557
0.008630836952002924,0.558
0.008653354736166428,0.559
0.008676365031188734,0.56
0.008699767640041524,0.561
0.00872346303743984,0.562
0.008747355732702472,0.563
0.008771355731393716,0.564
0.008795377867349607,0.565
0.008819339703405479,0.566
0.008843158789561637,0.567
0.008866749819723362,0.568
0.008890022420221296,0.569
0.008912880980431479,0.57
0.00893522737012013,0.571
0.008956965585234922,0.572
0.008978006672196419,0.573
0.00899827279420457,0.574
0.009017699624465057,0.575
0.009036236377845789,0.576
0.009053843076452092,0.577
0.009070485371650496,0.578
0.009086129209789332,0.579
0.009100739298119475,0.58
0.009114282752704336,0.581
0.009126734651185913,0.582
0.00913808170140017,0.583
0.009148322827292698,0.584
0.0091574670885928,0.585
0.009165529936071764,0.586
0.009172529108800096,0.587
0.009178481420269629,0.588
0.009183401256327663,0.589
0.009187300918361707,0.59
0.009190192184536556,0.591
0.009192087892795379,0.592
0.009193002220510739,0.593
0.009192948955843121,0.594
0.00919193896585477,0.595
0.009189979957023434,0.596
0.00918708013346205,0.597
0.00918325375062299,0.598
0.009178525735103108,0.599
0.009172934134868655,0.6
0.009166530200029051,0.601
0.009159376289127216,0.602
0.009151542142709324,0.603
0.009143100287181702,0.604
0.00913412147513832,0.605
0.009124671315627993,0.606
0.009114809084805239,0.607
0.009104588480351901,0.608
0.009094058992641605,0.609
0.009083266936510537,0.61
0.009072256043535025,0.611
0.00906106777790953,0.612
0.009049741481186653,0.613
0.009038314389084584,0.614
0.009026821513346571,0.615
0.009015295360837627,0.616
0.009003765490260829,0.617
0.008992257985037722,0.618
0.008980795010704683,0.619
0.008969394657570712,0.62
0.008958071184002558,0.621
0.00894683556675158,0.622
0.008935696007680148,0.623
0.008924657883335449,0.624
0.008913722729330326,0.625
0.008902886676638891,0.626
0.008892139948662102,0.627
0.008881468520725003,0.628
0.008870856989919936,0.629
0.008860291032405739,0.63
0.008849758663036349,0.631
0.008839250065346214,0.632
0.00882875593989603,0.633
0.00881826479510471,0.634
0.00880776059982234,0.635
0.008797222493039502,0.636
0.008786626568081164,0.637
0.008775948008339373,0.638
0.008765162136375123,0.639
0.008754244079173547,0.64
0.008743167297689754,0.641
0.008731901442895732,0.642
0.008720410398627244,0.643
0.008708651551876634,0.644
0.008696576423722596,0.645
0.00868413158439342,0.646
0.008671258815782412,0.647
0.008657894375098387,0.648
0.008643968004214202,0.649
0.008629402609831827,0.65
0.008614114777039054,0.651
0.008598015216281377,0.652
0.00858100851418409,0.653
0.00856299297400357,0.654
0.008543861873954901,0.655
0.008523506341003443,0.656
0.008501818910628655,0.657
0.008478696884260084,0.658
0.008454045047870425,0.659
0.008427777524877686,0.66
0.008399818541407752,0.661
0.008370101771489072,0.662
0.008338567834776765,0.663
0.008305160185944236,0.664
0.008269821781188864,0.665
0.008232496064742939,0.666
0.008193132931194377,0.667
0.008151696589187466,0.668
0.008108172074349324,0.669
0.008062568871819963,0.67
0.008014921119767357,0.671
0.007965284426609019,0.672
0.007913729874529282,0.673
0.007860336450186032,0.674
0.007805184530162845,0.675
0.007748353792461386,0.676
0.007689926178411473,0.677
0.0076299907228335705,0.678
0.007568647046910873,0.679
0.007506006499058825,0.68
0.007442191001531975,0.681
0.007377329940302975,0.682
0.007311555725783523,0.683
0.007244999368885449,0.684
0.007177788169957584,0.685
0.007110046247428361,0.686
0.007041896011751009,0.687
0.006973458539940542,0.688
0.006904852526243146,0.689
0.006836192612332901,0.69
0.006767588354398169,0.691
0.006699144452091173,0.692
0.006630961488247704,0.693
0.006563136203144692,0.694
0.006495761131632268,0.695
0.0064289239076977854,0.696
0.006362706590766046,0.697
0.006297185272587149,0.698
0.0062324299910347805,0.699
0.006168504801773331,0.7
0.006105467929307973,0.701
0.0060433720462124835,0.702
0.005982264709437393,0.703
0.005922188891478452,0.704
0.005863183479473739,0.705
0.005805283595814413,0.706
0.005748520624647002,0.707
0.005692921903163744,0.708
0.005638510220741976,0.709
0.0055853035272033615,0.71
0.005533315162972104,0.711
0.005482554455737037,0.712
0.005433027335231568,0.713
0.005384736818306498,0.714
0.005337683370678479,0.715
0.005291865157995287,0.716
0.005247278175574661,0.717
0.005203916244633292,0.718
0.005161770890154998,0.719
0.005120831148431469,0.72
0.005081083364642662,0.721
0.005042511028845749,0.722
0.005005094673198152,0.723
0.0049688118185673355,0.724
0.0049336369154849655,0.725
0.004899541188510122,0.726
0.004866492308795789,0.727
0.004834454010412436,0.728
0.0048033860508177,0.729
0.004773244806233926,0.73
0.004743984333800409,0.731
0.004715557607425347,0.732
0.004687917851083009,0.733
0.004661020007862763,0.734
0.004634822346214657,0.735
0.004609288099891052,0.736
0.004584386891133698,0.737
0.004560095554686341,0.738
0.004536397938143218,0.739
0.004513283361370458,0.74
0.004490743916352878,0.741
0.004468771993267281,0.742
0.00444736013881021,0.743
0.004426503761817755,0.744
0.004406204910137945,0.745
0.004386475181217294,0.746
0.004367336958057903,0.747
0.0043488228295734295,0.748
0.0043309733972146935,0.749
0.004313834007532489,0.75
0.004297451256272833,0.751
0.0042818703530971254,0.752
0.004267134115276075,0.753
0.004253283267843165,0.754
0.004240357033859008,0.755
0.004228393431046379,0.756
0.00421742929838489,0.757
0.004207500185004882,0.758
0.004198640155673942,0.759
0.0041908815440006835,0.76
0.004184254704966088,0.761
0.004178787846768329,0.762
0.0041745070261574955,0.763
0.004171436355743479,0.764
0.004169598397379728,0.765
0.00416901462383911,0.766
0.004169705764572512,0.767
0.004171691854310452,0.768
0.004174991883664617,0.769
0.004179623068053119,0.77
0.004185599970914893,0.771
0.004192934008541318,0.772
0.004201633708634612,0.773
0.004211705474471798,0.774
0.004223154355946882,0.775
0.004235984566053776,0.776
0.004250199665397398,0.777
0.004265802375867823,0.778
0.004282793999978534,0.779
0.004301173576565972,0.78
0.004320937293475458,0.781
0.0043420787361858155,0.782
0.004364589879997409,0.783
0.0043884621519469785,0.784
0.004413687014161292,0.785
0.004440255887026198,0.786
0.0044681594557045195,0.787
0.004497386560239237,0.788
0.004527923083050446,0.789
0.004559751350967851,0.79
0.004592850141397549,0.791
0.004627194795230478,0.792
0.004662757034167093,0.793
0.004699504593760094,0.794
0.004737400961779836,0.795
0.004776405402921997,0.796
0.004816473449030182,0.797
0.0048575580171644,0.798
0.004899611052651226,0.799
0.004942585345736952,0.8
0.004986436132258619,0.801
0.005031122125849706,0.802
0.005076605689579167,0.803
0.005122851969643154,0.804
0.005169826996201678,0.805
0.005217495402661153,0.806
0.005265819359426499,0.807
0.00531475970683525,0.808
0.005364278266032869,0.809
0.005414339761655037,0.81
0.005464912749210362,0.811
0.005515969548557336,0.812
0.00556748534091263,0.813
0.005619436688192898,0.814
0.005671799773537382,0.815
0.005724548639456983,0.816
0.005777653679182484,0.817
0.005831080670478966,0.818
0.005884790529961677,0.819
0.005938739623885982,0.82
0.005992880295283875,0.821
0.006047161427075032,0.822
0.0061015290231105496,0.823
0.0061559267917278586,0.824
0.006210296669206397,0.825
0.0062645791938767655,0.826
0.006318713646478431,0.827
0.006372637906949877,0.828
0.006426288028759016,0.829
0.006479597585082616,0.83
0.006532496886753145,0.831
0.0065849121994337526,0.832
0.006636765084383223,0.833
0.006687971944700236,0.834
0.006738443777048834,0.835
0.006788086016394499,0.836
0.006836798362268083,0.837
0.006884474830538777,0.838
0.006931004699097769,0.839
0.006976274852147965,0.84
0.0070201733992750195,0.841
0.007062593933458198,0.842
0.0071034394419181674,0.843
0.007142624639383218,0.844
0.007180075597467226,0.845
0.007215726127249326,0.846
0.007249512421535374,0.847
0.007281370430511635,0.848
0.007311238996062704,0.849
0.007339066156632075,0.85
0.007364814344205873,0.851
0.007388462772129865,0.852
0.007410006964440093,0.853
0.007429455758371559,0.854
0.007446826377399335,0.855
0.007462138754515489,0.856
0.007475411358533624,0.857
0.007486660499392108,0.858
0.007495902485218775,0.859
0.007503156178303701,0.86
0.007508444392129877,0.861
0.007511794028157741,0.862
0.0075132353521764365,0.863
0.007512800838162698,0.864
0.007510523939905423,0.865
0.007506438012664351,0.866
0.007500575445693071,0.867
0.007492966942185119,0.868
0.007483640840092748,0.869
0.007472622405921207,0.87
0.007459933113656789,0.871
0.00744558998738453,0.872
0.007429605100227485,0.873
0.007411985280923706,0.874
0.0073927320056682315,0.875
0.007371841365828478,0.876
0.007349303908042928,0.877
0.007325104305617375,0.878
0.007299221452068996,0.879
0.007271629836146625,0.88
0.007242302333525253,0.881
0.007211213806479093,0.882
0.007178344801524461,0.883
0.007143684728016796,0.884
0.00710723396827994,0.885
0.0070690044994443585,0.886
0.007029018795495877,0.887
0.006987306998770286,0.888
0.006943902736461153,0.889
0.006898839058421434,0.89
0.0068521470095017885,0.891
0.0068038577811645904,0.892
0.0067540064193709354,0.893
0.006702634749189278,0.894
0.006649792832750187,0.895
0.006595539159460098,0.896
0.0065399398944572225,0.897
0.006483067499857722,0.898
0.0064249989565068845,0.899
0.006365813733657977,0.9
0.006305591618081766,0.901
0.006244410516432138,0.902
0.006182344589240192,0.903
0.006119463485940166,0.904
0.006055833074017901,0.905
0.005991517026546066,0.906
0.005926578425463328,0.907
0.005861081051933441,0.908
0.0057950902712285675,0.909
0.005728673410938835,0.91
0.005661899547392584,0.911
0.005594838677301832,0.912
0.005527560357733219,0.913
0.005460132058998636,0.914
0.005392617763623358,0.915
0.005325077471892604,0.916
0.005257567708854634,0.917
0.005190142400020636,0.918
0.005122853548327892,0.919
0.005055751622085929,0.92
0.0049888857454893736,0.921
0.004922303752617523,0.922
0.004856052118729239,0.923
0.004790175750059996,0.924
0.004724717612254054,0.925
0.004659718202949564,0.926
0.004595214914703115,0.927
0.004531241453104348,0.928
0.004467827621920042,0.929
0.004404999628276238,0.93
0.0043427806841675855,0.931
0.004281191620745946,0.932
0.0042202514324265385,0.933
0.004159977764655989,0.934
0.004100387359626212,0.935
0.004041496459783881,0.936
0.003983321136740348,0.937
0.003925877477223203,0.938
0.0038691815408698257,0.939
0.003813249018868473,0.94
0.0037580945627458963,0.941
0.0037037309253053915,0.942
0.0036501684054524,0.943
0.003597415102452091,0.944
0.003545477880026295,0.945
0.0034943634722124075,0.946
0.0034440792971114987,0.947
0.003394633834997407,0.948
0.003346036583288382,0.949
0.0032982976922621325,0.95
0.0032514274370298007,0.951
0.003205435674873226,0.952
0.0031603313824302252,0.953
0.0031161222972204113,0.954
0.0030728146398448274,0.955
0.0030304128831884092,0.956
0.002988919544993085,0.957
0.0029483349752723012,0.958
0.0029086571500874393,0.959
0.0028698816507368996,0.96
0.002832002079845418,0.961
0.0027950109382393075,0.962
0.0027589007340132303,0.963
0.0027236650487691932,0.964
0.002689299333617265,0.965
0.0026558012723556703,0.966
0.002623170640120497,0.967
0.002591408679819,0.968
0.0025605170961040227,0.969
0.002530496925564997,0.97
0.002501347771024576,0.971
0.0024730677147839298,0.972
0.0024456536073550455,0.973
0.0024191011830800363,0.974
0.0023934048216325103,0.975
0.0023685571959941665,0.976
0.0023445491300743537,0.977
0.0023213696840661885,0.978
0.0022990062043236137,0.979
0.002277444265216019,0.98
0.0022566677647155742,0.981
0.00223665933347216,0.982
0.002217400865579372,0.983
0.0021988739064009717,0.984
0.0021810598061710873,0.985
0.002163939684286676,0.986
0.0021474943055910314,0.987
0.0021317039784839744,0.988
0.002116548551966375,0.989
0.0021020075374626316,0.99
0.0020880603327981554,0.991
0.00207468649139989,0.992
0.0020618659638491246,0.993
0.002049579241381935,0.994
0.0020378073469126184,0.995
0.0020265316385619805,0.996
0.002015733403719396,0.997
0.0020053933004296086,0.998
0.001995490938595929,0.999
0.0019860050082742575,1.0
0.0019769140156615924,1.001
0.0019681972670317484,1.002
0.0019598357437410592,1.003
0.001951812723860212,1.004
0.001944114122475684,1.005
0.001936728568625028,1.006
0.0019296472631054014,1.007
0.0019228636652014156,1.008
0.001916373043385317,1.009
0.0019101719045712506,1.01
0.001904257299605225,1.011
0.0018986260478635404,1.012
0.0018932741230573043,1.013
0.0018881965876084146,1.014
0.0018833881680530022,1.015
0.0018788441106610762,1.016
0.001874560915335031,1.017
0.0018705367617473847,1.018
0.0018667715619209925,1.019
0.0018632666297475839,1.02
0.001860024019307914,1.021
0.0018570456783688532,1.022
0.0018543327356944613,1.023
0.0018518852630643177,1.024
0.00184970246269594,1.025
0.0018477828362918759,1.026
0.0018461240485605761,1.027
0.0018447226972868461,1.028
0.0018435744171903167,1.029
0.0018426744257777838,1.03
0.001842018222271875,1.031
0.0018416021430477303,1.032
0.0018414236570472038,1.033
0.0018414813621086175,1.034
0.0018417746594999364,1.035
0.0018423031170276252,1.036
0.0018430657125576174,1.037
0.0018440604453964925,1.038
0.001845284641031702,1.039
0.0018467356604295459,1.04
0.0018484115300426548,1.041
0.0018503112940831022,1.042
0.0018524350932632144,1.043
0.0018547840361336435,1.044
0.001857359962221855,1.045
0.0018601651929781905,1.046
0.0018632023257266787,1.047
0.0018664740619706247,1.048
0.0018699830020361618,1.049
0.0018737313141824123,1.05
0.0018777202934491817,1.051
0.0018819500744853108,1.052
0.0018864197812371675,1.053
0.0018911280217633287,1.054
0.0018960733795156837,1.055
0.0019012546668896939,1.056
0.0019066708834765277,1.057
0.0019123208969226723,1.058
0.0019182029326681438,1.059
0.001924314110794771,1.06
0.0019306503382963294,1.061
0.0019372065828131913,1.062
0.0019439771858165886,1.063
0.0019509558761221487,1.064
0.0019581354748893238,1.065
0.0019655076720906084,1.066
0.0019730632851982094,1.067
0.0019807929356845137,1.068
0.001988687714615732,1.069
0.001996739508091697,1.07
0.002004940877234153,1.071
0.002013284524069172,1.072
0.002021762549963525,1.073
0.0020303659529861484,1.074
0.0020390847213445306,1.075
0.0020479083868057382,1.076
0.0020568266496164586,1.077
0.0020658298678987506,1.078
0.0020749093816233907,1.079
0.0020840576593943233,1.08
0.002093268228765639,1.081
0.0021025353346152153,1.082
0.002111853282581387,1.083
0.002121215646522736,1.084
0.0021306149288384964,1.085
0.0021400431004147693,1.086
0.0021494926706435136,1.087
0.0021589576531349675,1.088
0.002168434093287164,1.089
0.0021779200278818646,1.09
0.002187414824680164,1.091
0.0021969181061117157,1.092
0.002206428930587387,1.093
0.002215945893540615,1.094
0.0022254679671804586,1.095
0.0022349952798732292,1.096
0.0022445292924835438,1.097
0.002254072312943537,1.098
0.0022636265758887307,1.099
0.0022731933486148637,1.1
0.002282772571826211,1.101
0.0022923630988921947,1.102
0.0023019630930393464,1.103
0.002311570194804392,1.104
0.0023211813903613247,1.105
0.0023307926414102296,1.106
0.0023403984216469817,1.107
0.002349991465184899,1.108
0.002359562950481354,1.109
0.002369102979964773,1.11
0.002378601059161602,1.111
0.002388046408753281,1.112
0.002397428042726155,1.113
0.0024067345701354833,1.114
0.002415953727872129,1.115
0.002425071842646213,1.116
0.002434073658632102,1.117
0.002442942780966165,1.118
0.0024516624720330037,1.119
0.0024602164028383793,1.12
0.0024685891887719835,1.121
0.0024767666863049855,1.122
0.002484736075469007,1.123
0.002492485781758702,1.124
0.0025000052853072267,1.125
0.002507284828916226,1.126
0.0025143149931198968,1.127
0.0025210860861499536,1.128
0.0025275874147062255,1.129
0.002533806793988341,1.13
0.0025397306787860617,1.131
0.0025453448067776314,1.132
0.0025506348760243923,1.133
0.0025555869273833297,1.134
0.002560187382544953,1.135
0.002564422827519826,1.136
0.0025682796802280585,1.137
0.0025717438842678244,1.138
0.0025748007435388693,1.139
0.00257743497256532,1.14
0.0025796309946071786,1.141
0.0025813734733903908,1.142
0.002582648013887272,1.143
0.0025834419206514814,1.144
0.0025837448711584993,1.145
0.002583549355007147,1.146
0.002582850748713069,1.147
0.0025816469357557536,1.148
0.002579937437088168,1.149
0.00257772217655706,1.15
0.002575000417322411,1.151
0.0025717706593472284,1.152
0.0025680316969120937,1.153
0.0025637841869324226,1.154
0.0025590320336049133,1.155
0.002553783319093392,1.156
0.002548050723522789,1.157
0.002541851440087758,1.158
0.0025352066526263552,1.159
0.0025281406940244164,1.16
0.0025206800323875804,1.161
0.0025128522305638773,1.162
0.002504684993347867,1.163
0.0024962053627459613,1.164
0.0024874390614461153,1.165
0.0024784099954933557,1.166
0.002469140028690914,1.167
0.0024596491046006367,1.168
0.0024499555707084434,1.169
0.0024400764802349926,1.17
0.0024300277680638573,1.171
0.0024198243061534105,1.172
0.0024094798974374342,1.173
0.0023990072994037235,1.174
0.0023884183731349346,1.175
0.0023777244218519595,1.176
0.002366936712192012,1.177
0.002356067079068355,1.178
0.0023451284416498345,1.179
0.002334135044040365,1.18
0.0023231022892695446,1.181
0.0023120461319790495,1.182
0.002300982190609917,1.183
0.002289925069902778,1.184
0.0022788884119922933,1.185
0.0022678856128149913,1.186
0.0022569306308434177,1.187
0.002246038427133129,1.188
0.0022352249073283054,1.189
0.0022245064204415533,1.19
0.002213898969833091,1.191
0.0022034174428801024,1.192
0.002193075279913832,1.193
0.0021828847315539346,1.194
0.002172857390099346,1.195
0.0021630046399072054,1.196
0.00215333792679696,1.197
0.002143868869270502,1.198
0.0021346092488410745,1.199
0.002125570920608072,1.2
0.0021167656735080454,1.201
0.002108205049429453,1.202
0.00209990011464992,1.203
0.0020918611760494215,1.204
0.0020840974492936453,1.205
0.002076616716872738,1.206
0.002069425065056144,1.207
0.0020625268008389267,1.208
0.0020559245422190737,1.209
0.002049619356484622,1.21
0.0020436108507307866,1.211
0.002037897225126015,1.212
0.0020324753568883394,1.213
0.0020273409872210144,1.214
0.0020224890536704675,1.215
0.002017914153966899,1.216
0.0020136110636012443,1.217
0.0020095751857394,1.218
0.002005802814147362,1.219
0.0020022911422540807,1.22
0.001999038030438984,1.221
0.001996041614340984,1.222
0.0019932998773997982,1.223
0.001990810314343973,1.224
0.00198856977607372,1.225
0.0019865745125509588,1.226
0.0019848203415807706,1.227
0.001983302810079564,1.228
0.001982017213001066,1.229
0.0019809583887676102,1.23
0.001980120319178089,1.231
0.001979495749403442,1.232
0.0019790761415243575,1.233
0.00197885203424232,1.234
0.001978813548237798,1.235
0.0019789507648936685,1.236
0.0019792538867043933,1.237
0.0019797131982031294,1.238
0.001980318899978404,1.239
0.00198106092205614,1.24
0.0019819288149536614,1.241
0.0019829117672489076,1.242
0.0019839987342524807,1.243
0.001985178616962882,1.244
0.0019864404217390663,1.245
0.0019877733543244187,1.246
0.0019891668381334555,1.247
0.0019906104768093896,1.248
0.001992093994639125,1.249
0.0019936071856342845,1.25
0.0019951398912195703,1.251
0.0019966820165355286,1.252
0.001998223585006786,1.253
0.0019997548091718435,1.254
0.002001266121249744,1.255
0.0020027480789436025,1.256
0.002004191064721797,1.257
0.0020055847952022868,1.258
0.0020069179106472724,1.259
0.002008178055564312,1.26
0.002009352553834695,1.261
0.0020104293748063416,1.262
0.00201139807564894,1.263
0.002012250593730186,1.264
0.002012981838714289,1.265
0.002013590032023624,1.266
0.002014076739402486,1.267
0.0020144465588559277,1.268
0.0020147064733471577,1.269
0.0020148649491847407,1.27
0.0020149309280427033,1.271
0.0020149128841278237,1.272
0.0020148180914502916,1.273
0.0020146521903554684,1.274
0.0020144190485636014,1.275
0.002014120817819703,1.276
0.002013758095595116,1.277
0.002013330180737779,1.278
0.002012835433781893,1.279
0.002012271705038187,1.28
0.0020116367462017027,1.281
0.002010928511310098,1.282
0.0020101452818116626,1.283
0.00200928560268631,1.284
0.002008348070798593,1.285
0.002007331057855195,1.286
0.002006232471412414,1.287
0.0020050496503448228,1.288
0.0020037794462535257,1.289
0.002002418464713525,1.29
0.002000963360804096,1.291
0.0019994110403866476,1.292
0.0019977586299621225,1.293
0.001996003134204039,1.294
0.001994140873975614,1.295
0.0019921670986615195,1.296
0.001990076166361872,1.297
0.001987862196925184,1.298
0.0019855197582747623,1.299
0.0019830442703993663,1.3
0.0019804320188711233,1.301
0.0019776797544734464,1.302
0.0019747839989025994,1.303
0.001971740495879237,1.304
0.00196854431530761,1.305
0.0019651905762547643,1.306
0.0019616752306594507,1.307
0.0019579954270413833,1.308
0.001954149297064082,1.309
0.0019501352520268369,1.31
0.0019459512117255067,1.311
0.001941594442419467,1.312
0.001937062268353987,1.313
0.0019323531939420147,1.314
0.0019274678645229439,1.315
0.001922409631217154,1.316
0.0019171846743911596,1.317
0.001911801697960003,1.318
0.0019062712563804583,1.319
0.0019006048093256687,1.32
0.0018948136998955646,1.321
0.0018889084619818537,1.322
0.0018828988206070236,1.323
0.0018767942752068714,1.324
0.0018706048310854174,1.325
0.0018643415885704674,1.326
0.0018580171160274602,1.327
0.001851645593675607,1.328
0.001845242726062868,1.329
0.0018388254423001027,1.33
0.0018324114238700995,1.331
0.0018260185094095937,1.332
0.001819664044093422,1.333
0.0018133643387089292,1.334
0.001807134494891726,1.335
0.0018009886651389488,1.336
0.0017949404883621273,1.337
0.0017890034030729456,1.338
0.001783190712972307,1.339
0.001777515385345184,1.34
0.001771989654823873,1.341
0.0017666246788151574,1.342
0.0017614305441297701,1.343
0.001756416655122472,1.344
0.0017515922375565063,1.345
0.001746966703565644,1.346
0.001742549773378134,1.347
0.0017383513288462917,1.348
0.0017343810131689441,1.349
0.0017306477126473804,1.35
0.0017271592602790189,1.351
0.0017239226251823956,1.352
0.0017209444317872443,1.353
0.0017182314474092255,1.354
0.0017157908288317556,1.355
0.0017136300804024241,1.356
0.0017117567537307094,1.357
0.0017101779750540074,1.358
0.001708899940458208,1.359
0.001707927556562986,1.36
0.0017072643162345479,1.361
0.0017069122992489768,1.362
0.0017068721482237387,1.363
0.0017071430575552834,1.364
0.0017077228991943692,1.365
0.001708608470414267,1.366
0.0017097957481840196,1.367
0.00171128007631585,1.368
0.001713056263679131,1.369
0.0017151185884356972,1.37
0.0017174607169959373,1.371
0.0017200755653782685,1.372
0.0017229551431272672,1.373
0.0017260904116905627,1.374
0.0017294711589068783,1.375
0.0017330858693167923,1.376
0.0017369216275156172,1.377
0.001740964201498397,1.378
0.0017451984226578964,1.379
0.0017496088010121918,1.38
0.0017541802145059008,1.381
0.0017588985302743243,1.382
0.001763751054583122,1.383
0.0017687267567582626,1.384
0.0017738162658979323,1.385
0.0017790116660038897,1.386
0.0017843061101643091,1.387
0.001789693258060839,1.388
0.001795166582078279,1.389
0.001800718780310988,1.39
0.0018063416797947443,1.391
0.001812026725499664,1.392
0.001817765707229407,1.393
0.0018235513583394229,1.394
0.001829377708201758,1.395
0.0018352402038326093,1.396
0.0018411356550104227,1.397
0.0018470620802747404,1.398
0.0018530185293834085,1.399
0.001859004928075914,1.4
0.0018650219455976457,1.401
0.0018710708442004535,1.402
0.0018771532468906942,1.403
0.001883270761172426,1.404
0.0018894244587515604,1.405
0.0018956144059054452,1.406
0.0019018395975641928,1.407
0.001908098415935985,1.408
0.0019143893304559637,1.409
0.001920711511061272,1.41
0.0019270652275740995,1.411
0.0019334520140358526,1.412
0.0019398746006909794,1.413
0.0019463366344613265,1.414
0.0019528422240679645,1.415
0.0019593953604701065,1.416
0.0019659992876737567,1.417
0.0019726559686822904,1.418
0.0019793658307948126,1.419
0.0019861277936917086,1.42
0.0019929393304672005,1.421
0.0019997963947986108,1.422
0.00200669338412547,1.423
0.002013623371328669,1.424
0.002020578547183545,1.425
0.0020275506345640267,1.426
0.0020345311157899354,1.427
0.002041511226706547,1.428
0.002048481727803939,1.429
0.0020554324964080725,1.43
0.002062352079047294,1.431
0.002069227501229679,1.432
0.002076044534740065,1.433
0.002082788267348851,1.434
0.002089443692931108,1.435
0.0020959961637165747,1.436
0.0021024316204464872,1.437
0.002108736548069389,1.438
0.0021148976709597545,1.439
0.002120901484130886,1.44
0.0021267337853056985,1.441
0.0021323793963698083,1.442
0.0021378222203129885,1.443
0.0021430456706997003,1.444
0.0021480333666956813,1.445
0.002152769866197068,1.446
0.0021572411672233687,1.447
0.002161434759187317,1.448
0.0021653391214922625,1.449
0.002168942816899051,1.45
0.0021722337596911433,1.451
0.0021751993276240443,1.452
0.0021778273278985384,1.453
0.0021801072119929216,1.454
0.0021820310429925957,1.455
0.002183594074288494,1.456
0.002184794948221617,1.457
0.0021856355547244287,1.458
0.0021861206052055625,1.459
0.0021862569874335257,1.46
0.002186052974294121,1.461
0.002185517354954274,1.462
0.0021846585436719823,1.463
0.0021834838114984227,1.464
0.002181998964343251,1.465
0.0021802086393833916,1.466
0.0021781169491167725,1.467
0.002175728105973924,1.468
0.0021730468891425843,1.469
0.002170078944620936,1.47
0.0021668309359304614,1.471
0.0021633105783212506,1.472
0.0021595265882840054,1.473
0.002155488571314148,1.474
0.002151206863378435,1.475
0.0021466923339585,1.476
0.0021419561484749094,1.477
0.0021370094826695355,1.478
0.0021318631881132697,1.479
0.002126527418586616,1.48
0.0021210112269650595,1.481
0.00211532218639752,1.482
0.002109466206196426,1.483
0.0021034476883265625,1.484
0.002097269940667709,1.485
0.0020909356504161905,1.486
0.0020844473149557226,1.487
0.002077807617894109,1.488
0.00207101976040837,1.489
0.0020640877532922025,1.49
0.002057016659886966,1.491
0.002049812765468477,1.492
0.0020424836396005087,1.493
0.002035038055228905,1.494
0.002027485733345999,1.495
0.0020198368953020887,1.496
0.0020121016230388775,1.497
0.00200428916695919,1.498
0.0019964076126523303,1.499
0.001988464224648379,1.5
0.0019804662480484457,1.501
0.001972421706332617,1.502
0.0019643399282195623,1.503
0.001956231711991197,1.504
0.0019481091113542457,1.505
0.0019399848938976441,1.506
0.0019318717814304377,1.507
0.0019237816721557445,1.508
0.0019157251295819073,1.509
0.0019077112508316554,1.51
0.001899747683070818,1.511
0.0018918405784030291,1.512
0.001883994624783736,1.513
0.0018762133310898533,1.514
0.0018684994477321433,1.515
0.0018608552759263473,1.516
0.0018532827243070646,1.517
0.001845783076276651,1.518
0.0018383565886462155,1.519
0.0018310022682666018,1.52
0.0018237180740495382,1.521
0.0018165013669127204,1.522
0.0018093492850235302,1.523
0.0018022589106314554,1.524
0.0017952272218761376,1.525
0.0017882508441843894,1.526
0.0017813256530830265,1.527
0.001774446396069136,1.528
0.001767606580221057,1.529
0.0017607986744375569,1.53
0.001754014377560178,1.531
0.0017472446976595163,1.532
0.0017404797843982628,1.533
0.0017337086590123543,1.534
0.0017269191525870892,1.535
0.0017200982480336164,1.536
0.0017132326801148163,1.537
0.0017063095394262292,1.538
0.001699316749346469,1.539
0.001692243357713987,1.54
0.0016850795963468256,1.541
0.0016778166688942188,1.542
0.0016704462339903591,1.543
0.001662959715895355,1.544
0.001655347943868152,1.545
0.0016476015849957993,1.546
0.0016397121787235952,1.547
0.0016316731702627745,1.548
0.0016234805050471953,1.549
0.0016151325994457977,1.55
0.0016066296758524203,1.551
0.0015979726926429786,1.552
0.0015891624334092372,1.553
0.0015801993198015592,1.554
0.0015710838979915772,1.555
0.0015618174348612651,1.556
0.0015524022289569958,1.557
0.0015428416101614581,1.558
0.0015331397188907815,1.559
0.0015233011222011753,1.56
0.0015133302915501653,1.561
0.0015032310818837184,1.562
0.0014930065734121976,1.563
0.0014826595023818528,1.564
0.0014721930410047106,1.565
0.0014616115426763835,1.566
0.0014509210590747193,1.567
0.001440129557195846,1.568
0.0014292468100081503,1.569
0.0014182839900525857,1.57
0.0014072530406167264,1.571
0.00139616594687564,1.572
0.0013850341367566252,1.573
0.0013738682839760012,1.574
0.001362678522732633,1.575
0.0013514747567249525,1.576
0.0013402667843342804,1.577
0.0013290642086108153,1.578
0.0013178762351856832,1.579
0.001306711484760045,1.58
0.0012955779220510907,1.581
0.0012844829475109796,1.582
0.0012734336383675472,1.583
0.0012624370825753144,1.584
0.0012515007323739699,1.585
0.001240632709043236,1.586
0.0012298420038891296,1.587
0.0012191385321447257,1.588
0.0012085330062800428,1.589
0.0011980366098148473,1.59
0.001187660516221387,1.591
0.0011774154627297465,1.592
0.0011673116703057893,1.593
0.0011573591381128367,1.594
0.0011475680119615594,1.595
0.0011379487537884648,1.596
0.001128512053140852,1.597
0.0011192685309373528,1.598
0.0011102283571525786,1.599
0.001101400995867125,1.6
0.0010927952063358446,1.601
0.0010844191704949876,1.602
0.00107628053293491,1.603
0.0010683862955138748,1.604
0.0010607426682147604,1.605
0.0010533550051547173,1.606
0.001046227841075898,1.607
0.001039364935350674,1.608
0.001032769264925542,1.609
0.0010264429930615957,1.61
0.0010203874639668912,1.611
0.0010146032517252047,1.612
0.0010090902637764439,1.613
0.0010038478770202388,1.614
0.0009988750709005916,1.615
0.0009941705167096253,1.616
0.000989732590612071,1.617
0.0009855593043778055,1.618
0.000981648186879284,1.619
0.0009779961805310836,1.62
0.0009745996156860838,1.621
0.0009714542859466011,1.622
0.0009685555890155759,1.623
0.0009658986545833779,1.624
0.0009634783768719288,1.625
0.0009612893078154449,1.626
0.0009593254552074628,1.627
0.000957580126443047,1.628
0.0009560459114037076,1.629
0.000954714731377067,1.63
0.0009535778468879375,1.631
0.0009526258384306731,1.632
0.0009518486599621656,1.633
0.0009512358534288562,1.634
0.0009507769429821007,1.635
0.000950461944192946,1.636
0.0009502818685250639,1.637
0.0009502290956042262,1.638
0.0009502975188640802,1.639
0.0009504824253383238,1.64
0.0009507801256297752,1.641
0.0009511873960157447,1.642
0.0009517009152089243,1.643
0.0009523170370252335,1.644
0.0009530320750439766,1.645
0.0009538428581384447,1.646
0.0009547472223153691,1.647
0.0009557443096120529,1.648
0.0009568346701129514,1.649
0.0009580201962752974,1.65
0.0009593039361251112,1.651
0.0009606898315662133,1.652
0.0009621824202892356,1.653
0.0009637865348709439,1.654
0.0009655070291068264,1.655
0.0009673485512883219,1.656
0.0009693153677688128,1.657
0.0009714112293045959,1.658
0.0009736392746933302,1.659
0.0009760019749127739,1.66
0.0009785011239029668,1.661
0.0009811378717271306,1.662
0.0009839127722829908,1.663
0.000986825789959635,1.664
0.0009898762409726004,1.665
0.0009930627811137154,1.666
0.0009963836124665484,1.667
0.0009998369202396439,1.668
0.0010034213856432005,1.669
0.0010071366334898871,1.67
0.0010109835541757706,1.671
0.0010149644871894588,1.672
0.001019083270519198,1.673
0.0010233451633224883,1.674
0.0010277566498865995,1.675
0.0010323251382117695,1.676
0.0010370585773248845,1.677
0.0010419650295852478,1.678
0.0010470522501691171,1.679
0.001052327368969404,1.68
0.0010577967973008035,1.681
0.001063466382359741,1.682
0.001069341686646476,1.683
0.0010754282621113684,1.684
0.0010817318660345015,1.685
0.0010882585985113689,1.686
0.0010950149377990568,1.687
0.0011020076450534689,1.688
0.0011092435201456195,1.689
0.0011167290483836607,1.69
0.0011244700900997805,1.691
0.0011324717853118003,1.692
0.0011407386533954197,1.693
0.0011492746847327627,1.694
0.0011580832767167691,1.695
0.001167167064596525,1.696
0.0011765278442579874,1.697
0.00118616670002659,1.698
0.0011960842152600756,1.699
0.0012062805829991213,1.7
0.001216755551365241,1.701
0.001227508231988241,1.702
0.001238536868115944,1.703
0.0012498386951852016,1.704
0.0012614099232409952,1.705
0.0012732457363559106,1.706
0.0012853402661104209,1.707
0.0012976866391899132,1.708
0.0013102771728480255,1.709
0.0013231036631166308,1.71
0.0013361576585347844,1.711
0.0013494306319560229,1.712
0.0013629139947959148,1.713
0.0013765989441331882,1.714
0.0013904761862933964,1.715
0.001404535616224549,1.716
0.001418766052516472,1.717
0.0014331551170988675,1.718
0.0014476892602396916,1.719
0.0014623538340929202,1.72
0.0014771331261413253,1.721
0.0014920103247714092,1.722
0.001506967429381942,1.723
0.0015219851692651705,1.724
0.0015370430183938941,1.725
0.0015521193032349196,1.726
0.0015671912817401348,1.727
0.0015822351086404297,1.728
0.0015972258214586334,1.729
0.0016121376083382507,1.73
0.001626944430441201,1.731
0.001641620815795975,1.732
0.001656142601732308,1.733
0.001670487486339795,1.734
0.001684635313054233,1.735
0.0016985680489022797,1.736
0.001712269441159092,1.737
0.001725724360563122,1.738
0.001738917932760542,1.739
0.0017518348201620995,1.74
0.0017644591695629161,1.741
0.0017767753457339883,1.742
0.00178876901390393,1.743
0.0018004280891541471,1.744
0.0018117433287890893,1.745
0.0018227084897452716,1.746
0.0018333200523072567,1.747
0.0018435766057350624,1.748
0.001853478064118484,1.749
0.0018630248918700685,1.75
0.001872217458454863,1.751
0.0018810555454280768,1.752
0.0018895379463138098,1.753
0.0018976621385132532,1.754
0.0019054241950781498,1.755
0.0019128191376019852,1.756
0.0019198416816405758,1.757
0.0019264871559005394,1.758
0.001932752405257608,1.759
0.0019386365273279642,1.76
0.0019441413244944486,1.761
0.0019492714139492631,1.762
0.0019540339976319727,1.763
0.001958438333176402,1.764
0.0019624949694723964,1.765
0.0019662148204402144,1.766
0.0019696082543335116,1.767
0.001972684596545467,1.768
0.001975452343466756,1.769
0.001977919870539018,1.77
0.0019800961685377976,1.771
0.0019819913281979586,1.772
0.0019836166802477337,1.773
0.001984984582617582,1.774
0.0019861079276773555,1.775
0.0019869995158293846,1.776
0.001987671472869385,1.777
0.0019881348646771223,1.778
0.0019883995995301712,1.779
0.0019884746291468497,1.78
0.001988368382002132,1.781
0.0019880893011915493,1.782
0.001987646328055862,1.783
0.00198704917841182,1.784
0.001986308295591937,1.785
0.0019854344227330013,1.786
0.001984437916761372,1.787
0.0019833282678377332,1.788
0.001982114305846471,1.789
0.001980805012808013,1.79
0.0019794104329643072,1.791
0.0019779423063277096,1.792
0.001976414311114617,1.793
0.0019748419094149303,1.794
0.001973241834103627,1.795
0.0019716312945863286,1.796
0.001970027083105672,1.797
0.0019684449345948665,1.798
0.001966899411862121,1.799
0.001965404152418066,1.8
0.0019639720662730908,1.801
0.00196261526801743,1.802
0.0019613447834253596,1.803
0.0019601702002544747,1.804
0.001959099474720004,1.805
0.0019581389599464057,1.806
0.0019572934924648364,1.807
0.0019565663768686546,1.808
0.001955959331951922,1.809
0.0019554726021979328,1.81
0.0019551053234700758,1.811
0.001954856018761815,1.812
0.001954723046694727,1.813
0.001954704899263607,1.814
0.001954800296252262,1.815
0.0019550080425904766,1.816
0.0019553266354344783,1.817
0.001955753728531806,1.818
0.0019562858002746433,1.819
0.001956918339883346,1.82
0.001957646435548431,1.821
0.001958465395100276,1.822
0.0019593711739693083,1.823
0.001960360562998579,1.824
0.0019614311485297658,1.825
0.001962581072448798,1.826
0.0019638086271586987,1.827
0.001965111733764477,1.828
0.00196648737813858,1.829
0.0019679311166046686,1.83
0.0019694367751968453,1.831
0.0019709964124453912,1.832
0.0019726005429548713,1.833
0.0019742385672787397,1.834
0.001975899286613297,1.835
0.0019775713311343925,1.836
0.0019792433452408406,1.837
0.001980903823342837,1.838
0.001982540654027025,1.839
0.001984140772600107,1.84
0.001985690420633761,1.841
0.001987176043571117,1.842
0.0019885854055922553,1.843
0.001989908551299984,1.844
0.001991138469804023,1.845
0.001992271422947879,1.846
0.0019933069365953124,1.847
0.001994247478442247,1.848
0.00199509786682351,1.849
0.001995864480119087,1.85
0.001996554362419932,1.851
0.0019971743334027525,1.852
0.0019977302288704027,1.853
0.001998226433841073,1.854
0.0019986657945253324,1.855
0.0019990497878505545,1.856
0.0019993787408013083,1.857
0.0019996520033250128,1.858
0.0019998680913118645,1.859
0.0020000248460608867,1.86
0.002000119647861436,1.861
0.002000149696797338,1.862
0.002000112343665117,1.863
0.0020000054327184713,1.864
0.0019998276133946238,1.865
0.001999578585841696,1.866
0.0019992592558734754,1.867
0.0019988717841327498,1.868
0.001998419521961232,1.869
0.0019979068343924404,1.87
0.001997338820923172,1.871
0.001996720959480089,1.872
0.0019960587160021232,1.873
0.0019953571724871666,1.874
0.0019946207224809027,1.875
0.0019938528642083706,1.876
0.0019930560906725315,1.877
0.001992231839830671,1.878
0.0019913804425335116,1.879
0.0019905010066720527,1.88
0.0019895912269290023,1.881
0.001988647230020259,1.882
0.0019876636388858307,1.883
0.0019866339164696877,1.884
0.0019855508719614032,1.885
0.001984407193597637,1.886
0.001983195938948445,1.887
0.001981910942692966,1.888
0.0019805471132787944,1.889
0.0019791006110554715,1.89
0.001977568920501774,1.891
0.001975950834267747,1.892
0.0019742463525540895,1.893
0.0019724564780472555,1.894
0.001970582874657475,1.895
0.0019686273751633398,1.896
0.0019665913664494925,1.897
0.0019644751753115806,1.898
0.001962277684225922,1.899
0.001959996295298249,1.9
0.001957627063045801,1.901
0.001955164730691953,1.902
0.001952602610716843,1.903
0.0019499324951657265,1.904
0.0019471448186677257,1.905
0.0019442290770998903,1.906
0.001941174314647359,1.907
0.0019379695063352269,1.908
0.0019346037321065542,1.909
0.0019310660726989223,1.91
0.0019273452099464183,1.911
0.0019234289264307757,1.912
0.0019193039932741635,1.913
0.0019149567711940047,1.914
0.0019103742857483187,1.915
0.0019055453561379098,1.916
0.001900461570555917,1.917
0.001895118022523285,1.918
0.0018895137354463813,1.919
0.0018836517242116781,1.92
0.0018775386777561184,1.921
0.0018711842892903388,1.922
0.0018646003010010855,1.923
0.0018577993601719433,1.924
0.0018507939061136334,1.925
0.001843595521769165,1.926
0.0018362150293714176,1.927
0.0018286630474512004,1.928
0.0018209505113711674,1.929
0.0018130889301848701,1.93
0.0018050903955666375,1.931
0.0017969674422162456,1.932
0.0017887328831187816,1.933
0.001780399722519839,1.934
0.0017719811969219576,1.935
0.0017634909386625402,1.936
0.001754943216487204,1.937
0.0017463531826462089,1.938
0.0017377370394666863,1.939
0.001729112031457788,1.94
0.0017204961849147315,1.941
0.0017119077683941063,1.942
0.0017033646057424507,1.943
0.0016948836013381502,1.944
0.0016864807351165498,1.945
0.00167817130989064,1.946
0.0016699700290494137,1.947
0.0016618907876307834,1.948
0.001653946461465034,1.949
0.001646149016081932,1.95
0.0016385098742499713,1.951
0.00163104018954346,1.952
0.0016237507681996807,1.953
0.0016166517137387768,1.954
0.0016097522328244668,1.955
0.0016030609453242084,1.956
0.0015965864764318643,1.957
0.001590337881147891,1.958
0.0015843247030602255,1.959
0.0015785567037557356,1.96
0.0015730434016066773,1.961
0.001567793596804608,1.962
0.0015628150355006245,1.963
0.001558114300694741,1.964
0.0015536969386889244,1.965
0.0015495677598078754,1.966
0.0015457312071680094,1.967
0.0015421916758787243,1.968
0.00153895368479543,1.969
0.001536021844569539,1.97
0.001533400617590254,1.971
0.0015310939255294533,1.972
0.0015291047628155584,1.973
0.0015274350522425056,1.974
0.001526085830772315,1.975
0.0015250575995081356,1.976
0.0015243506513949725,1.977
0.0015239653243144685,1.978
0.001523902179735104,1.979
0.0015241620991660353,1.98
0.001524746290012897,1.981
0.0015256562026693564,1.982
0.001526893375706502,1.983
0.001528459236466474,1.984
0.0015303548834934482,1.985
0.0015325808638246012,1.986
0.0015351369381677471,1.987
0.0015380218426955788,1.988
0.0015412331443682978,1.989
0.0015447673269453537,1.99
0.001548620115356951,1.991
0.0015527868987522421,1.992
0.0015572631052508665,1.993
0.0015620444356891222,1.994
0.0015671268995497637,1.995
0.0015725066336405636,1.996
0.0015781795341709495,1.997
0.001584140796803607,1.998
0.0015903845311531215,1.999
0.0015969035925549662,2.0
0.001603689587238796,2.001
0.0016107328717124014,2.002
0.001618022492325898,2.003
0.0016255462076328918,2.004
0.0016332907069781025,2.005
0.0016412419588223597,2.006
0.0016493855533337698,2.007
0.0016577069467662148,2.008
0.0016661915493075955,2.009
0.001674824626399439,2.01
0.0016835910250713446,2.011
0.0016924747911832426,2.012
0.0017014588417745106,2.013
0.001710524920992202,2.014
0.0017196539319177643,2.015
0.0017288265251141819,2.016
0.001738023795477543,2.017
0.0017472280070090617,2.018
0.001756423266625564,2.019
0.0017655960436422128,2.02
0.0017747354343537562,2.021
0.0017838330959778408,2.022
0.0017928828140167516,2.023
0.0018018797194955167,2.024
0.0018108192866716833,2.025
0.0018196964871746324,2.026
0.0018285055831515355,2.027
0.0018372406233591817,2.028
0.001845896190967215,2.029
0.0018544679884981638,2.03
0.0018629531598943943,2.031
0.001871350388026109,2.032
0.0018796598135983832,2.033
0.0018878828079293948,2.034
0.0018960216155379673,2.035
0.0019040788811033641,2.036
0.0019120570905023482,2.037
0.0019199579826713158,2.038
0.0019277820728276086,2.039
0.0019355285177747588,2.04
0.001943195418757256,2.041
0.0019507803761128011,2.042
0.0019582810421489667,2.043
0.0019656955234461336,2.044
0.00197302254102327,2.045
0.0019802612900494164,2.046
0.0019874110004684366,2.047
0.001994470309776341,2.048
0.002001436747506822,2.049
0.0020083066750918935,2.05
0.0020150757011919867,2.051
0.0020217392588963916,2.052
0.002028293080214841,2.053
0.0020347335096487984,2.054
0.002041057685453065,2.055
0.002047263621331869,2.056
0.002053350208960515,2.057
0.002059317146167319,2.058
0.002065164785678563,2.059
0.0020708938957522795,2.06
0.0020765053241513327,2.061
0.002081999558943493,2.062
0.0020873762106139054,2.063
0.0020926335741100403,2.064
0.0020977685620309663,2.065
0.002102777136031653,2.066
0.0021076550440545768,2.067
0.0021123986247812226,2.068
0.0021170055780496562,2.069
0.002121475639008975,2.07
0.002125811063172877,2.071
0.0021300168213950017,2.072
0.0021341004376543653,2.073
0.0021380714744439673,2.074
0.0021419407539483327,2.075
0.002145719464191935,2.076
0.002149418315089154,2.077
0.002153046877866082,2.078
0.0021566131761927712,2.079
0.002160123516740256,2.08
0.002163582473180339,2.081
0.002166992898324163,2.082
0.0021703558780574337,2.083
0.0021736706848642998,2.084
0.002176934905560169,2.085
0.002180144830527657,2.086
0.002183296022984964,2.087
0.0021863839596060297,2.088
0.002189404695367577,2.089
0.00219235552399654,2.09
0.002195235578110826,2.091
0.0021980462766487442,2.092
0.0022007915110145966,2.093
0.0022034774859733845,2.094
0.002206112191565498,2.095
0.0022087045557660843,2.096
0.002211263416525351,2.097
0.002213796617682202,2.098
0.002216310625736468,2.099
0.002218810730929697,2.1
0.002221301426721058,2.101
0.0022237865867244604,2.102
0.0022262693821985093,2.103
0.002228752047799179,2.104
0.0022312356273311027,2.105
0.0022337198105089736,2.106
0.002236202915513959,2.107
0.002238682008111689,2.108
0.0022411531026501597,2.109
0.002243611377338088,2.11
0.0022460513584998615,2.111
0.0022484670754526733,2.112
0.0022508522327541413,2.113
0.0022532004588972166,2.114
0.002255505656882803,2.115
0.0022577624178426402,2.116
0.002259966395943411,2.117
0.002262114507996132,2.118
0.0022642048247383307,2.119
0.0022662360593657936,2.12
0.0022682067434625325,2.121
0.002270114598025906,2.122
0.0022719567396529854,2.123
0.0022737307438451537,2.124
0.0022754359424196446,2.125
0.002277074376402812,2.126
0.0022786511663137293,2.127
0.00228017426807361,2.128
0.002281653706091757,2.129
0.002283100470558967,2.13
0.002284525322854824,2.131
0.002285937803207463,2.132
0.002287345690122015,2.133
0.0022887548540266828,2.134
0.002290169214909478,2.135
0.0022915907440383748,2.136
0.0022930196430527333,2.137
0.0022944546425629816,2.138
0.0022958932471887896,2.139
0.002297331856455872,2.14
0.0022987657564655403,2.141
0.0023001889661114655,2.142
0.0023015939757774157,2.143
0.0023029716169903993,2.144
0.0023043113662967922,2.145
0.002305602092293715,2.146
0.0023068329717902372,2.147
0.0023079943153768846,2.148
0.0023090781646023387,2.149
0.0023100786085680884,2.15
0.0023109918339955754,2.151
0.0023118159652273074,2.152
0.0023125507562181094,2.153
0.0023131971781725747,2.154
0.0023137569270768447,2.155
0.0023142318656449753,2.156
0.002314623408596804,2.157
0.002314931898923493,2.158
0.002315156176740542,2.159
0.002315293640538415,2.16
0.002315340878252287,2.161
0.002315294633693781,2.162
0.00231515283818566,2.163
0.002314915542037243,2.164
0.0023145856125003834,2.165
0.0023141690726347555,2.166
0.0023136750014988256,2.167
0.0023131149949772085,2.168
0.0023125022746233142,2.169
0.0023118505936828445,2.17
0.0023111731537087845,2.171
0.0023104818627259936,2.172
0.002309787232866851,2.173
0.0023090988588998574,2.174
0.0023084261150112424,2.175
0.002307778763363955,2.176
0.002307167323179285,2.177
0.0023066031075170213,2.178
0.002306097894880363,2.179
0.0023056633087991394,2.18
0.0023053100749306204,2.181
0.002305047359637513,2.182
0.0023048823542215595,2.183
0.002304820182785182,2.184
0.0023048641171875004,2.185
0.002305016001528194,2.186
0.0023052767262376267,2.187
0.002305646556273191,2.188
0.0023061251296666915,2.189
0.0023067111166126565,2.19
0.002307401915635599,2.191
0.002308193890145417,2.192
0.0023090831554956124,2.193
0.0023100664432016077,2.194
0.0023111416484354833,2.195
0.002312307962229085,2.196
0.0023135656469289944,2.197
0.0023149155635158627,2.198
0.002316358564861091,2.199
0.002317894845791506,2.2
0.0023195233337192584,2.201
0.0023212412670566974,2.202
0.0023230441343635904,2.203
0.0023249259742322195,2.204
0.0023268798416975324,2.205
0.0023288982737997795,2.206
0.0023309737051164614,2.207
0.002333098819375611,2.208
0.0023352668071044726,2.209
0.0023374714849248167,2.21
0.002339707233580351,2.211
0.0023419687365589725,2.212
0.0023442505435729024,2.213
0.002346546522848237,2.214
0.002348849286209273,2.215
0.002351149710577248,2.216
0.0023534367234796043,2.217
0.0023556974046531408,2.218
0.002357917255496995,2.219
0.0023600804917120436,2.22
0.002362170351895064,2.221
0.002364169463658285,2.222
0.0023660602786175766,2.223
0.002367825537294924,2.224
0.0023694486719409353,2.225
0.0023709140252741443,2.226
0.0023722067753894098,2.227
0.0023733125103923055,2.228
0.0023742164945663403,2.229
0.0023749029147122265,2.23
0.00237535466403393,2.231
0.0023755539664386425,2.232
0.002375483526245516,2.233
0.0023751277323960807,2.234
0.0023744736773379494,2.235
0.0023735118499563102,2.236
0.0023722363624005473,2.237
0.0023706446089500235,2.238
0.002368736324200984,2.239
0.002366512202139895,2.24
0.0023639727066185326,2.241
0.0023611179556630585,2.242
0.002357948850347959,2.243
0.002354468660656391,2.244
0.002350684255440118,2.245
0.0023466066733148286,2.246
0.0023422510176364835,2.247
0.0023376357706160595,2.248
0.0023327816997896025,2.249
0.0023277105627759905,2.25
0.0023224438345542074,2.251
0.002317001732321298,2.252
0.0023114027623747776,2.253
0.002305663688024946,2.254
0.0022997995400955737,2.255
0.0022938234786229806,2.256
0.002287746650663548,2.257
0.002281578176415323,2.258
0.002275325277826506,2.259
0.0022689936892092474,2.26
0.0022625885041433163,2.261
0.002256115326494565,2.262
0.0022495813917474037,2.263
0.0022429963488229975,2.264
0.002236372509509567,2.265
0.0022297245367291166,2.266
0.0022230687092665426,2.267
0.002216421995545573,2.268
0.0022098011608320685,2.269
0.0022032220454350584,2.27
0.0021966990425879465,2.271
0.002190244771004145,2.272
0.002183870014076674,2.273
0.002177584006131474,2.274
0.0021713950109159682,2.275
0.002165311056719415,2.276
0.0021593407094954334,2.277
0.002153493769465889,2.278
0.0021477817696451467,2.279
0.002142218164795378,2.28
0.002136818127769469,2.281
0.002131597928456711,2.282
0.0021265739875239637,2.283
0.002121761933309732,2.284
0.0021171761372029397,2.285
0.002112829823707801,2.286
0.002108735298541801,2.287
0.0021049038802385916,2.288
0.0021013455719717184,2.289
0.002098068791592785,2.29
0.0020950803640380467,2.291
0.002092385621740873,2.292
0.002089988376087398,2.293
0.0020878908317792564,2.294
0.0020860936862368337,2.295
0.0020845964351665367,2.296
0.002083397680039368,2.297
0.0020824953031569273,2.298
0.002081886553022015,2.299
0.0020815681543352367,2.3
0.0020815365212085656,2.301
0.0020817880614055454,2.302
0.0020823194677085256,2.303
0.002083127848485521,2.304
0.00208421057052074,2.305
0.0020855647592139684,2.306
0.0020871866341325876,2.307
0.0020890712001523874,2.308
0.0020912126452309852,2.309
0.002093605135401098,2.31
0.002096243491360388,2.311
0.0020991235273242668,2.312
0.0021022420306980563,2.313
0.0021055964199016646,2.314
0.0021091841619019034,2.315
0.0021130020700580107,2.316
0.0021170456973811044,2.317
0.0021213091105600997,2.318
0.0021257851195562705,2.319
0.002130465707582125,2.32
0.002135342392394698,2.321
0.002140406446755547,2.322
0.0021456490103167374,2.323
0.0021510611476008275,2.324
0.002156633902784242,2.325
0.0021623583627385953,2.326
0.0021682256805106814,2.327
0.0021742269674432943,2.328
0.0021803529625919974,2.329
0.0021865935187058818,2.33
0.0021929372385828417,2.331
0.00219937167624021,2.332
0.0022058841144603847,2.333
0.0022124625543785627,2.334
0.0022190966037070386,2.335
0.0022257781290606015,2.336
0.002232501602095218,2.337
0.0022392640835394457,2.338
0.0022460648128479616,2.339
0.002252904412416504,2.34
0.002259783801687862,2.341
0.0022667031549364596,2.342
0.0022736614520211967,2.343
0.0022806568127543654,2.344
0.0022876871587609233,2.345
0.0022947507113706945,2.346
0.0023018462245588847,2.347
0.0023089730404407226,2.348
0.002316131064465009,2.349
0.002323320734262398,2.35
0.0023305430091391517,2.351
0.0023377993562338694,2.352
0.0023450916704541415,2.353
0.002352422042456665,2.354
0.0023597922860605206,2.355
0.002367203293663967,2.356
0.0023746546466483437,2.357
0.002382144907967277,2.358
0.0023896724348149226,2.359
0.002397236170925953,2.36
0.0024048360736181043,2.361
0.002412473111715098,2.362
0.0024201488967122834,2.363
0.0024278650620507217,2.364
0.0024356225264404014,2.365
0.002443420794722729,2.366
0.0024512574696187164,2.367
0.002459128078196584,2.368
0.0024670261528559104,2.369
0.002474943455431802,2.37
0.002482870346264815,2.371
0.002490796368301264,2.372
0.0024987110489424137,2.373
0.0025066048132696053,2.374
0.0025144698333734723,2.375
0.0025223006298433657,2.376
0.0025300942775939327,2.377
0.0025378501251305747,2.378
0.00254556900257704,2.379
0.0025532520485081096,2.38
0.0025608996613972227,2.381
0.002568511297579898,2.382
0.0025760862596440923,2.383
0.0025836248171970154,2.384
0.002591128995991436,2.385
0.0025986028390317015,2.386
0.002606052202650916,2.387
0.0026134842231217556,2.388
0.0026209066110136152,2.389
0.0026283269192609615,2.39
0.002635751909645907,2.391
0.00264318711345289,2.392
0.0026506366329977263,2.393
0.002658103160394966,2.394
0.0026655881241818857,2.395
0.002673091849571683,2.396
0.0026806136445003967,2.397
0.0026881517750067772,2.398
0.002695703337109569,2.399
0.002703264055650428,2.4
0.0027108280436748274,2.401
0.0027183875375431654,2.402
0.00272593263726793,2.403
0.002733451192716732,2.404
0.0027409290302904082,2.405
0.002748350550661263,2.406
0.0027556995374563927,2.407
0.0027629599849238328,2.408
0.0027701167919926425,2.409
0.0027771562055701766,2.41
0.002784065946134434,2.411
0.002790835017680879,2.412
0.0027974532789311747,2.413
0.0028039109154872196,2.414
0.0028101979762590345,2.415
0.002816304098721312,2.416
0.0028222184508615742,2.417
0.0028279298013562768,2.418
0.002833426542615616,2.419
0.0028386964672849064,2.42
0.0028437262526579167,2.421
0.0028485010354517386,2.422
0.0028530046922530077,2.423
0.0028572209495451263,2.424
0.0028611348103020563,2.425
0.0028647337562370564,2.426
0.0028680084889832,2.427
0.002870953171349171,2.428
0.0028735652312871797,2.429
0.0028758448495885187,2.43
0.002877794260395785,2.431
0.002879416966868165,2.432
0.0028807169353741967,2.433
0.0028816977949178263,2.434
0.0028823620396285434,2.435
0.0028827103235616776,2.436
0.002882741163505793,2.437
0.0028824512950788223,2.438
0.0028818365067881336,2.439
0.00288089262750103,2.44
0.0028796165179220956,2.441
0.002878007006748555,2.442
0.002876065690615668,2.443
0.002873797492637963,2.444
0.002871210870313463,2.445
0.00286831759637519,2.446
0.002865132106895525,2.447
0.0028616704991427035,2.448
0.0028579493312761656,2.449
0.0028539844138158257,2.45
0.0028497898597527557,2.451
0.0028453777079421962,2.452
0.002840758172297626,2.453
0.0028359401962303283,2.454
0.0028309320077700077,2.455
0.002825741609377432,2.456
0.0028203772263704335,2.457
0.0028148477245697194,2.458
0.0028091629878080715,2.459
0.0028033342215336727,2.46
0.002797374130875733,2.461
0.0027912969217284596,2.462
0.0027851180939196902,2.463
0.002778854029184919,2.464
0.0027725214115576872,2.465
0.0027661365412116924,2.466
0.0027597146076370066,2.467
0.0027532690291338854,2.468
0.0027468110575266515,2.469
0.0027403497747685553,2.47
0.0027338923386867236,2.471
0.0027274442322850526,2.472
0.0027210094152781707,2.473
0.0027145903976830334,2.474
0.0027081882728544,2.475
0.002701802741845228,2.476
0.00269543217019314,2.477
0.002689073736096375,2.478
0.0026827237289186547,2.479
0.0026763780165460715,2.48
0.002670032624540458,2.481
0.0026636842946637035,2.482
0.0026573308601974366,2.483
0.0026509713164382808,2.484
0.0026446055639877857,2.485
0.002638233910254384,2.486
0.002631856471558208,2.487
0.0026254725962743804,2.488
0.0026190803535760215,2.489
0.0026126760877643756,2.49
0.002606254123233794,2.491
0.0025998068166850404,2.492
0.002593325043838743,2.493
0.0025867989763746877,2.494
0.0025802189451972334,2.495
0.002573576247403161,2.496
0.002566863780392973,2.497
0.0025600764073588347,2.498
0.0025532110101415583,2.499
0.002546266245324445,2.5
0.002539242063499519,2.501
0.0025321390720855746,2.502
0.0025249578305933263,2.503
0.0025176981770119572,2.504
0.002510358687539097,2.505
0.00250293634316514,2.506
0.0024954264014848096,2.507
0.0024878223740936773,2.508
0.002480115966223732,2.509
0.002472296992615926,2.51
0.0024643535703769656,2.511
0.0024562728539721823,2.512
0.002448042184884083,2.513
0.0024396503133595868,2.514
0.0024310884141608455,2.515
0.002422350705666764,2.516
0.0024134345681847743,2.517
0.002404340176299634,2.518
0.0023950697635763416,2.519
0.0023856266823666554,2.52
0.0023760143977581845,2.521
0.002366235553630843,2.522
0.002356291370150248,2.523
0.0023461816538103285,2.524
0.00233590538890018,2.525
0.0023254615830967315,2.526
0.0023148500928281586,2.527
0.002304072313820454,2.528
0.002293131670146421,2.529
0.002282033842865316,2.53
0.002270786705631518,2.531
0.0022593999649684585,2.532
0.002247884518639259,2.533
0.0022362515460567153,2.534
0.002224511541915987,2.535
0.002212673909095992,2.536
0.002200747531778067,2.537
0.002188741902276964,2.538
0.002176668079306031,2.539
0.0021645391325719396,2.54
0.002152370031597725,2.541
0.0021401770815413345,2.542
0.0021279771087961037,2.543
0.0021157866175118742,2.544
0.0021036210768266093,2.545
0.0020914944204685356,2.546
0.002079418816334461,2.547
0.0020674047420158595,2.548
0.002055461326198349,2.549
0.002043596860819096,2.55
0.0020318193753012612,2.551
0.0020201371349040124,2.552
0.0020085589057230284,2.553
0.0019970938703055205,2.554
0.001985751171817983,2.555
0.0019745392533988444,2.556
0.0019634654007857823,2.557
0.0019525357873964573,2.558
0.0019417558171219635,2.559
0.0019311303195408505,2.56
0.0019206633947169492,2.561
0.001910358112063536,2.562
0.001900216542310347,2.563
0.0018902403627158403,2.564
0.00188043172670507,2.565
0.001870793940222058,2.566
0.001861331713672473,2.567
0.001852050935255455,2.568
0.0018429579980882877,2.569
0.0018340589395231417,2.57
0.001825359006247858,2.571
0.0018168630673968658,2.572
0.001808576548324602,2.573
0.0018005063025109,2.574
0.0017926611630069583,2.575
0.0017850521293742612,2.576
0.0017776921853092475,2.577
0.0017705957737407837,2.578
0.001763777997971165,2.579
0.0017572537300763632,2.58
0.0017510369846282818,2.581
0.0017451408260693183,2.582
0.001739577628818473,2.583
0.001734359261209823,2.584
0.0017294969627191091,2.585
0.0017250010050956657,2.586
0.00172088044379633,2.587
0.0017171431585513244,2.588
0.0017137960093087203,2.589
0.0017108448306666381,2.59
0.0017082942959728983,2.591
0.001706147937008643,2.592
0.0017044084426767827,2.593
0.0017030780300968985,2.594
0.0017021586468668494,2.595
0.0017016519508146859,2.596
0.0017015591292144831,2.597
0.00170188064213684,2.598
0.0017026159655286711,2.599
0.0017037633860470566,2.6
0.00170531987361105,2.601
0.0017072810377768985,2.602
0.0017096411656274786,2.603
0.0017123933386086108,2.604
0.0017155296224923603,2.605
0.0017190413084699912,2.606
0.0017229191555209055,2.607
0.0017271535588848782,2.608
0.001731734564701874,2.609
0.001736651676338885,2.61
0.0017418935058009612,2.611
0.001747447511450332,2.612
0.0017533000557432836,2.613
0.0017594367070597864,2.614
0.0017658425128959097,2.615
0.0017725020970516085,2.616
0.0017793996213853593,2.617
0.0017865187416831268,2.618
0.0017938426990685569,2.619
0.0018013546355081925,2.62
0.0018090381186054729,2.621
0.0018168777505103008,2.622
0.0018248596691350382,2.623
0.0018329717577687304,2.624
0.0018412034574672475,2.625
0.0018495451875328427,2.626
0.0018579874997746181,2.627
0.0018665202921376895,2.628
0.001875132563918585,2.629
0.001883812903039924,2.63
0.0018925503739722872,2.631
0.0019013353917869365,2.632
0.0019101603986194933,2.633
0.0019190202696588825,2.634
0.0019279124038980536,2.635
0.0019368365047435579,2.636
0.0019457941111219504,2.637
0.0019547879785588333,2.638
0.001963821410546047,2.639
0.0019728975994378743,2.64
0.0019820190047429302,2.641
0.0019911868923525857,2.642
0.00200040129684303,2.643
0.002009661514686764,2.644
0.002018966884220837,2.645
0.002028317513377064,2.646
0.002037714746605861,2.647
0.0020471612534858357,2.648
0.0020566606793554084,2.649
0.0020662168910738116,2.65
0.00207583310108616,2.651
0.002085511441791843,2.652
0.0020952532533074913,2.653
0.002105059613596594,2.654
0.002114931510184225,2.655
0.0021248694995915987,2.656
0.0021348731439463095,2.657
0.002144940766022724,2.658
0.002155069763510234,2.659
0.002165257113672131,2.66
0.002175499615792896,2.661
0.0021857937547392673,2.662
0.002196135267084212,2.663
0.0022065185958861475,2.664
0.0022169365329902297,2.665
0.002227380197666277,2.666
0.0022378391238035097,2.667
0.00224830121402565,2.668
0.0022587527575860457,2.669
0.00226917886748201,2.67
0.0022795643017969134,2.671
0.002289894300175239,2.672
0.002300155095451565,2.673
0.0023103338985880737,2.674
0.002320418284780333,2.675
0.0023303952804146406,2.676
0.0023402509925769576,2.677
0.002349971348864528,2.678
0.002359543454440495,2.679
0.002368956706638863,2.68
0.0023782032413020905,2.681
0.00238727761139865,2.682
0.002396175748824747,2.683
0.002404893583422582,2.684
0.002413426106483448,2.685
0.0024217673303879497,2.686
0.002429910559272939,2.687
0.0024378482610414418,2.688
0.0024455718827128665,2.689
0.002453072370073642,2.69
0.002460341284208473,2.691
0.0024673716972473917,2.692
0.002474158291391229,2.693
0.0024806965895995486,2.694
0.0024869817592752482,2.695
0.0024930079758185768,2.696
0.00249876898262353,2.697
0.002504259328702622,2.698
0.002509475414420094,2.699
0.0025144159870037794,2.7
0.0025190820544539567,2.701
0.0025234762628660395,2.702
0.0025276018499686523,2.703
0.0025314614630551433,2.704
0.002535056388205838,2.705
0.0025383865481531094,2.706
0.0025414509538969694,2.707
0.002544248023569657,2.708
0.002546775492110359,2.709
0.0025490299793778756,2.71
0.002551006578112872,2.711
0.0025526989563008956,2.712
0.002554100109054647,2.713
0.0025552033977079202,2.714
0.0025560034501581905,2.715
0.0025564966956671265,2.716
0.0025566814325292423,2.717
0.002556557395653936,2.718
0.0025561248519161057,2.719
0.0025553835006698303,2.72
0.0025543319280890344,2.721
0.002552968205232978,2.722
0.0025512912794610583,2.723
0.002549302371940121,2.724
0.0025470059338033465,2.725
0.00254441003068589,2.726
0.002541526147095768,2.727
0.002538368480396867,2.728
0.0025349528485639826,2.729
0.0025312953843437966,2.73
0.0025274112945456347,2.731
0.0025233140438117845,2.732
0.002519015054038421,2.733
0.0025145236648136753,2.734
0.002509847279875436,2.735
0.00250499182667731,2.736
0.0024999623629365225,2.737
0.0024947634559044046,2.738
0.0024893991052493468,2.739
0.002483872284763635,2.74
0.002478184602727842,2.741
0.002472336642020645,2.742
0.0024663289587136717,2.743
0.0024601632589886747,2.744
0.0024538433913188613,2.745
0.002447376031192966,2.746
0.0024407710206208804,2.747
0.0024340413446654443,2.748
0.0024272027406630693,2.749
0.0024202729535220016,2.75
0.002413270691383919,2.751
0.00240621444268712,2.752
0.002399121493818488,2.753
0.0023920074733296257,2.754
0.002384886319002344,2.755
0.002377770259167264,2.756
0.00237066973064897,2.757
0.002363593465154223,2.758
0.002356548686982328,2.759
0.00234954115127464,2.76
0.0023425751852715108,2.761
0.0023356542677042767,2.762
0.0023287822894240994,2.763
0.002321965048759991,2.764
0.0023152114307046726,2.765
0.0023085339155744307,2.766
0.00230194827139245,2.767
0.0022954724986210405,2.768
0.00228912534068501,2.769
0.0022829249417441774,2.77
0.002276888219163661,2.771
0.002271030906661262,2.772
0.002265367640711042,2.773
0.0022599117432287076,2.774
0.0022546750556408724,2.775
0.0022496682457967664,2.776
0.0022449014301735948,2.777
0.00224038461901853,2.778
0.002236127658191613,2.779
0.0022321397339316027,2.78
0.002228429007270907,2.781
0.0022250029677924037,2.782
0.0022218693819570892,2.783
0.002219037218871101,2.784
0.0022165171478375025,2.785
0.00221432154976847,2.786
0.0022124641458420723,2.787
0.0022109593991155997,2.788
0.0022098218396453106,2.789
0.002209065419983747,2.79
0.002208702948550902,2.791
0.0022087456372599104,2.792
0.002209202850630007,2.793
0.002210082084091542,2.794
0.0022113890132322606,2.795
0.002213127462991332,2.796
0.0022152993898614973,2.797
0.002217905044140889,2.798
0.002220943264909015,2.799
0.0022244117049840554,2.8
0.0022283068302994345,2.801
0.0022326237075738463,2.802
0.002237355864276794,2.803
0.002242495577724578,2.804
0.002248034611252155,2.805
0.002253965097476021,2.806
0.0022602802887234756,2.807
0.002266975028646698,2.808
0.002274045877720476,2.809
0.002281490880210518,2.81
0.002289309010759711,2.811
0.0022974993773426477,2.812
0.0023060603506320308,2.813
0.002314988978603421,2.814
0.0023242810232859687,2.815
0.0023339315446181483,2.816
0.0023439356422831764,2.817
0.002354289053481441,2.818
0.0023649884749090398,2.819
0.0023760315400873683,2.82
0.0023874164342164916,2.821
0.002399141210283487,2.822
0.002411202978698501,2.823
0.002423597258869976,2.824
0.0024363177217687202,2.825
0.00244935622968237,2.826
0.0024627028504185366,2.827
0.0024763457256996514,2.828
0.002490271060841371,2.829
0.0025044635067254166,2.83
0.0025189068100801414,2.831
0.002533584380223391,2.832
0.002548479496873406,2.833
0.0025635750023606458,2.834
0.0025788526529113816,2.835
0.002594292875274593,2.836
0.0026098755346596284,2.837
0.002625581357062523,2.838
0.0026413932203391333,2.839
0.0026572968353940174,2.84
0.0026732805888598768,2.841
0.0026893344672987846,2.842
0.0027054485322314118,2.843
0.002721612205195877,2.844
0.002737815148663445,2.845
0.002754048917562048,2.846
0.0027703080949214583,2.847
0.002786590386811306,2.848
0.00280289567985599,2.849
0.0028192244672864217,2.85
0.0028355766785005745,2.851
0.0028519518385310247,2.852
0.002868350260917263,2.853
0.002884774172626456,2.854
0.002901228053711777,2.855
0.00291771808843115,2.856
0.0029342509303943625,2.857
0.002950832294559951,2.858
0.0029674661438318043,2.859
0.002984154718315921,2.86
0.003000898727034087,2.861
0.0030176971453390366,2.862
0.003034547036484527,2.863
0.003051444011902996,2.864
0.0030683831725074545,2.865
0.0030853598957066653,2.866
0.0031023700398108865,2.867
0.003119409429088911,2.868
0.0031364729003257267,2.869
0.003153553876366888,2.87
0.00317064530195099,2.871
0.003187741595374138,2.872
0.003204840636126874,2.873
0.003221945107085071,2.874
0.0032390628331312285,2.875
0.003256205972177602,2.876
0.003273389196812103,2.877
0.0032906274789412356,2.878
0.0033079346006069372,2.879
0.0033253230672870083,2.88
0.003342804818363479,2.881
0.0033603917528592254,2.882
0.0033780957795650868,2.883
0.0033959286053307676,2.884
0.003413901522092984,2.885
0.0034320253546560402,2.886
0.003450310596164842,2.887
0.0034687676299063374,2.888
0.0034874068637451195,2.889
0.0035062386198108954,2.89
0.00352527270904439,2.891
0.003544517716672142,2.892
0.003563980182178795,2.893
0.0035836641033834037,2.894
0.003603571127378109,2.895
0.003623701282210561,2.896
0.0036440538056115063,2.897
0.0036646277895843416,2.898
0.003685422564163659,2.899
0.0037064378157194043,2.9
0.0037276734553578677,2.901
0.0037491292559751763,2.902
0.0037708042805473536,2.903
0.003792696148077956,2.904
0.0038148002306529847,2.905
0.003837108963246106,2.906
0.003859611496292867,2.907
0.003882293736176449,2.908
0.0039051385707149465,2.909
0.003928126123926315,2.91
0.003951234068931276,2.911
0.003974438058465458,2.912
0.00399771226615425,2.913
0.004021029981496763,2.914
0.004044364189460875,2.915
0.004067688084748578,2.916
0.0040909754982844885,2.917
0.004114201229376084,2.918
0.004137341272411932,2.919
0.004160372903739269,2.92
0.004183274563960651,2.921
0.004206025451226556,2.922
0.00422860474878213,2.923
0.00425099049320666,2.924
0.0042731584452548235,2.925
0.004295081757273041,2.926
0.004316731872622633,2.927
0.004338080180734267,2.928
0.004359099766960777,2.929
0.004379766999107051,2.93
0.004400062827470312,2.931
0.004419973589484801,2.932
0.004439491086600645,2.933
0.004458611796520384,2.934
0.004477335270837203,2.935
0.0044956619640977935,2.936
0.004513591023494263,2.937
0.00453111885847369,2.938
0.0045482388925178144,2.939
0.004564941905033756,2.94
0.004581216143077399,2.941
0.004597047027251195,2.942
0.004612416779342017,2.943
0.004627304375940772,2.944
0.004641686078447347,2.945
0.004655536532943646,2.946
0.004668830205185984,2.947
0.004681542809730092,2.948
0.00469365241103799,2.949
0.0047051399624446965,2.95
0.004715989149116465,2.951
0.0047261854871545154,2.952
0.004735714707069836,2.953
0.0047445608859247885,2.954
0.004752705560304742,2.955
0.0047601286302188725,2.956
0.00476681022907639,2.957
0.004772732214596402,2.958
0.004777878709819692,2.959
0.004782235687730414,2.96
0.004785789769242856,2.961
0.004788526559893764,2.962
0.004790429189725625,2.963
0.004791477940213574,2.964
0.004791651200857134,2.965
0.0047909270465601875,2.966
0.0047892846626457234,2.967
0.0047867053085461604,2.968
0.004783172698430807,2.969
0.004778672685325213,2.97
0.004773192178351456,2.971
0.0047667174907833195,2.972
0.004759233030174505,2.973
0.004750721603725969,2.974
0.004741166612775657,2.975
0.004730555122099661,2.976
0.00471888068072304,2.977
0.004706145254207837,2.978
0.004692359841463977,2.979
0.004677543445757355,2.98
0.004661720273606977,2.981
0.004644916139930668,2.982
0.004627156907511634,2.983
0.004608470876525136,2.984
0.004588893308895372,2.985
0.004568469980088059,2.986
0.004547258269198094,2.987
0.0045253255996537504,2.988
0.004502745691640116,2.989
0.004479594133708973,2.99
0.004455945851068253,2.991
0.004431875691251215,2.992
0.004407460314061455,2.993
0.004382779147821247,2.994
0.004357913982586117,2.995
0.004332947759281692,2.996
0.004307963152568323,2.997
0.00428304134750985,2.998
0.004258261112110968,2.999
0.004233698126269274,3.0
0.004209424703239331,3.001
0.004185510118440442,3.002
0.004162021373626209,3.003
0.004139023852025752,3.004
0.004116581402831564,3.005
0.004094755821021695,3.006
0.004073606266509886,3.007
0.004053189305535289,3.008
0.004033559559814803,3.009
0.004014770295842126,3.01
0.003996873448384359,3.011
0.003979919059528419,3.012
0.003963954491450546,3.013
0.003949023974690755,3.014
0.003935168714055803,3.015
0.003922427163517797,3.016
0.003910835055595452,3.017
0.0039004251620743317,3.018
0.0038912269545840167,3.019
0.0038832663353654527,3.02
0.003876565568401895,3.021
0.0038711434845066814,3.022
0.0038670159656482633,3.023
0.003864196617704528,3.024
0.0038626974476050793,3.025
0.003862529314216972,3.026
0.0038637019339171734,3.027
0.0038662233767409507,3.028
0.0038700994316478213,3.029
0.0038753335557575896,3.03
0.003881927609462618,3.031
0.00388988271611587,3.032
0.003899199521567238,3.033
0.003909877663105792,3.034
0.003921914786408192,3.035
0.003935305854143607,3.036
0.003950043221009009,3.037
0.003966117107442664,3.038
0.003983515857215016,3.039
0.004002225795512928,3.04
0.0040222307980907,3.041
0.0040435117644331,3.042
0.004066046315026305,3.043
0.004089809014160689,3.044
0.004114772111688804,3.045
0.004140906546161545,3.046
0.004168182933686975,3.047
0.004196572273217042,3.048
0.004226046085787338,3.049
0.004256575785850372,3.05
0.004288131474984325,3.051
0.004320681035839691,3.052
0.004354190395556476,3.053
0.004388624706132479,3.054
0.004423949399863658,3.055
0.0044601304043453485,3.056
0.0044971333972861835,3.057
0.004534922461147177,3.058
0.004573458971875685,3.059
0.004612701394779176,3.06
0.0046526056899317,3.061
0.004693125473525235,3.062
0.004734211597090496,3.063
0.004775811662507994,3.064
0.004817870193974604,3.065
0.004860329477413506,3.066
0.004903130411237935,3.067
0.004946212860156112,3.068
0.0049895154822982716,3.069
0.005032975268143312,3.07
0.005076527090855312,3.071
0.005120103496149879,3.072
0.005163634793882031,3.073
0.005207049327306537,3.074
0.00525027366803208,3.075
0.005293232454969503,3.076
0.005335847742683396,3.077
0.005378038255085428,3.078
0.005419719488153897,3.079
0.005460805160077352,3.08
0.005501209442557619,3.081
0.005540849174610372,3.082
0.005579645759311842,3.083
0.005617526745552709,3.084
0.005654427069405042,3.085
0.005690289738730131,3.086
0.005725065527305629,3.087
0.005758711197186484,3.088
0.005791186354351544,3.089
0.005822450640101912,3.09
0.0058524638211103425,3.091
0.005881189265434341,3.092
0.005908598570561551,3.093
0.005934675069250499,3.094
0.005959415326378463,3.095
0.0059828284562985674,3.096
0.006004933341305159,3.097
0.006025754203269333,3.098
0.006045316084847758,3.099
0.006063642937354767,3.1
0.006080759387445849,3.101
0.006096693964276758,3.102
0.006111481110718648,3.103
0.006125161101583202,3.104
0.006137778037567017,3.105
0.0061493766982395354,3.106
0.006160000034497388,3.107
0.006169689017814228,3.108
0.006178484559054475,3.109
0.006186429604728726,3.11
0.006193570008244066,3.111
0.006199953888452961,3.112
0.006205629725847064,3.113
0.0062106439594734044,3.114
0.006215039561306194,3.115
0.006218856654835503,3.116
0.006222134601229217,3.117
0.006224914228853658,3.118
0.006227239416658075,3.119
0.006229157695990633,3.12
0.006230719686153131,3.121
0.006231977389177966,3.122
0.0062329817681193635,3.123
0.006233780634198417,3.124
0.006234417951902127,3.125
0.006234934570278898,3.126
0.0062353693251039205,3.127
0.006235759726467654,3.128
0.006236142177439972,3.129
0.006236551868680662,3.13
0.00623702239561238,3.131
0.006237585072964327,3.132
0.006238267922021488,3.133
0.006239094567664732,3.134
0.006240083743122662,3.135
0.006241249866350638,3.136
0.006242604217705259,3.137
0.006244155930782127,3.138
0.006245912372364899,3.139
0.0062478787116773795,3.14
0.006250056862259878,3.141
0.006252444828314745,3.142
0.006255037511915418,3.143
0.006257828658172554,3.144
0.006260812651946115,3.145
0.006263985236853861,3.146
0.006267342864744618,3.147
0.0062708809346884165,3.148
0.00627459204285297,3.149
0.006278465776813626,3.15
0.006282490334069675,3.151
0.006286654569744912,3.152
0.006290949006226811,3.153
0.006295365254010396,3.154
0.006299894146965792,3.155
0.006304523922519986,3.156
0.006309240110744999,3.157
0.006314027287901114,3.158
0.006318871182232543,3.159
0.00632375976182943,3.16
0.006328682929724507,3.161
0.006333630978454823,3.162
0.006338592401936749,3.163
0.006343552422403427,3.164
0.006348493515430425,3.165
0.006353397730855379,3.166
0.006358249519046956,3.167
0.006363038078955587,3.168
0.0063677588209985776,3.169
0.006372413742907701,3.17
0.006377010603467134,3.171
0.006381560895595715,3.172
0.006386076910021397,3.173
0.006390568989742241,3.174
0.006395044699367083,3.175
0.0063995104221489536,3.176
0.006403973921011921,3.177
0.0064084462994644376,3.178
0.0064129429506422095,3.179
0.0064174836848278575,3.18
0.006422092309329924,3.181
0.006426795892965188,3.182
0.006431623841769208,3.183
0.006436606827546085,3.184
0.006441775587909121,3.185
0.006447159639065047,3.186
0.006452785980412208,3.187
0.006458677910122058,3.188
0.006464854097062069,3.189
0.006471328023578916,3.19
0.0064781077780680825,3.191
0.0064851959990126825,3.192
0.006492589969618626,3.193
0.006500282573647436,3.194
0.006508265001222858,3.195
0.0065165311392482266,3.196
0.006525082544722913,3.197
0.006533932524533953,3.198
0.006543107998664207,3.199
0.0065526484415403055,3.2
0.006562602076678639,3.201
0.006573020644351729,3.202
0.00658395540166974,3.203
0.006595456657165476,3.204
0.006607576263175018,3.205
0.0066203704464816,3.206
0.006633901172098645,3.207
0.0066482357365311795,3.208
0.006663444961896352,3.209
0.00667960059546261,3.21
0.006696772575160824,3.211
0.006715026734748872,3.212
0.006734423342321391,3.213
0.006755016594412379,3.214
0.006776854953767822,3.215
0.0067999820812603825,3.216
0.006824437968690659,3.217
0.006850259827734968,3.218
0.006877482426835375,3.219
0.00690613775111477,3.22
0.006936254047602125,3.221
0.006967854719167353,3.222
0.007000957904091831,3.223
0.00703557705954588,3.224
0.007071721860104934,3.225
0.007109398637657867,3.226
0.007148610234595786,3.227
0.00718935553953496,3.228
0.007231629049902983,3.229
0.007275420745282008,3.23
0.00732071640692766,3.231
0.007367498351097495,3.232
0.0074157464000946,3.233
0.007465438792546076,3.234
0.007516552630906541,3.235
0.007569063435285133,3.236
0.007622943772098161,3.237
0.007678162007657173,3.238
0.007734682729090378,3.239
0.007792468985867585,3.24
0.007851484894507469,3.241
0.007911697229058882,3.242
0.007973075501402003,3.243
0.008035590539843766,3.244
0.00809921192587902,3.245
0.008163905409828549,3.246
0.008229632009723315,3.247
0.008296349338154494,3.248
0.00836401374926956,3.249
0.008432581724607861,3.25
0.00850201002638989,3.251
0.008572254824654024,3.252
0.008643270227586881,3.253
0.008715006702329555,3.254
0.008787409743400554,3.255
0.008860418897345557,3.256
0.008933967007483822,3.257
0.009007979554943773,3.258
0.009082374387406862,3.259
0.00915706237326123,3.26
0.009231949101993075,3.261
0.009306937249754784,3.262
0.009381929102078896,3.263
0.009456828659495192,3.264
0.009531542616297219,3.265
0.009605979522424144,3.266
0.009680047124510092,3.267
0.009753649660604708,3.268
0.009826687897826224,3.269
0.009899062482983056,3.27
0.009970678117594278,3.271
0.010041445915142512,3.272
0.010111282833475312,3.273
0.010180108289998555,3.274
0.01024784003786939,3.275
0.010314393272694535,3.276
0.010379684681940558,3.277
0.010443638413844027,3.278
0.010506189961511394,3.279
0.010567286209691494,3.28
0.010626881506298988,3.281
0.01068493156106959,3.282
0.010741389948933163,3.283
0.010796210933997769,3.284
0.010849356537316735,3.285
0.010900803003878618,3.286
0.010950543783717777,3.287
0.01099858809800004,3.288
0.011044955113011014,3.289
0.011089666113514985,3.29
0.011132740501866415,3.291
0.011174199312393295,3.292
0.011214072648570923,3.293
0.011252405348570861,3.294
0.0112892586153428,3.295
0.011324707614717702,3.296
0.01135883570963444,3.297
0.011391727301288897,3.298
0.011423463142710711,3.299
0.011454120860011706,3.3
0.011483778862858592,3.301
0.011512519840655279,3.302
0.011540432063230943,3.303
0.011567608668187778,3.304
0.011594145681057131,3.305
0.01162013948913729,3.306
0.011645684192268578,3.307
0.011670868871065606,3.308
0.01169577506425246,3.309
0.011720475791953329,3.31
0.011745037213720435,3.311
0.01176952200465075,3.312
0.01179399261530277,3.313
0.011818513274460969,3.314
0.011843150207857365,3.315
0.011867969878249623,3.316
0.01189303569677268,3.317
0.011918404969875415,3.318
0.011944128523315884,3.319
0.011970253534823172,3.32
0.0119968275655568,3.321
0.012023901735641546,3.322
0.012051532255801658,3.323
0.012079780024708433,3.324
0.01210870805501662,3.325
0.012138377300962925,3.326
0.012168843344154568,3.327
0.012200156715368516,3.328
0.01223236659101557,3.329
0.012265524988831666,3.33
0.01229968928558208,3.331
0.012334922529855416,3.332
0.012371291705024231,3.333
0.012408864359597854,3.334
0.012447704345001606,3.335
0.012487867791091631,3.336
0.012529400454045221,3.337
0.012572336749328223,3.338
0.012616700187317694,3.339
0.012662505006035874,3.34
0.012709758317459794,3.341
0.012758461378017035,3.342
0.012808609140130964,3.343
0.012860189463065937,3.344
0.012913185085212966,3.345
0.012967579481558075,3.346
0.013023364072156717,3.347
0.013080543433224793,3.348
0.013139136699561306,3.349
0.01319917477877704,3.35
0.013260694009397793,3.351
0.013323728765906836,3.352
0.013388307742960867,3.353
0.013454456389396635,3.354
0.013522202215996988,3.355
0.013591578514980095,3.356
0.013662625050857385,3.357
0.013735386056915986,3.358
0.013809906197262656,3.359
0.013886225655380521,3.36
0.013964376477165636,3.361
0.014044382065334628,3.362
0.014126259235033817,3.363
0.014210020338711844,3.364
0.014295673676035974,3.365
0.014383221865822957,3.366
0.01447265905907298,3.367
0.014563969164442355,3.368
0.01465712683191114,3.369
0.01475210041229471,3.37
0.014848854749519443,3.371
0.014947352357766348,3.372
0.015047552328787647,3.373
0.015149407364741416,3.374
0.015252861387877405,3.375
0.015357850496279942,3.376
0.01546430681621362,3.377
0.015572162087815911,3.378
0.015681348528801816,3.379
0.015791796330829173,3.38
0.015903429194093686,3.381
0.016016161872675898,3.382
0.016129902639151643,3.383
0.016244558426523063,3.384
0.01636003806846838,3.385
0.016476250993172046,3.386
0.016593102472538934,3.387
0.016710491139012133,3.388
0.016828313559594556,3.389
0.016946473119138675,3.39
0.0170648867943779,3.391
0.017183486054476272,3.392
0.017302211141093277,3.393
0.017421001894911418,3.394
0.017539793086312355,3.395
0.017658519053058083,3.396
0.017777122674337766,3.397
0.017895561237443992,3.398
0.0180138065865371,3.399
0.018131840056898364,3.4
0.018249644085525644,3.401
0.018367194547304358,3.402
0.018484458230791232,3.403
0.018601395508598444,3.404
0.018717963747930277,3.405
0.01883411785035346,3.406
0.018949807456754487,3.407
0.019064972419511796,3.408
0.019179539736908835,3.409
0.019293424275345583,3.41
0.019406531809018537,3.411
0.01951876105521196,3.412
0.019630002938955515,3.413
0.01974013754942717,3.414
0.019849031099888816,3.415
0.019956535264549623,3.416
0.020062488535556526,3.417
0.02016671700388879,3.418
0.0202690331996759,3.419
0.02036923462901382,3.42
0.020467104605638733,3.421
0.020562415516117906,3.422
0.02065493198939004,3.423
0.020744411444021876,3.424
0.02083060169319003,3.425
0.02091323889571599,3.426
0.02099205083111773,3.427
0.02106676681526183,3.428
0.02113713084157652,3.429
0.021202913691735416,3.43
0.021263920739034048,3.431
0.02131999259849031,3.432
0.021370996532033535,3.433
0.021416811574670458,3.434
0.021457319674937997,3.435
0.021492413778328064,3.436
0.021522017810334502,3.437
0.02154610461477835,3.438
0.021564703230119282,3.439
0.021577893488639536,3.44
0.021585789383619377,3.441
0.021588517758808195,3.442
0.02158620492891918,3.443
0.021578978521668245,3.444
0.021566976812013527,3.445
0.021550353880675204,3.446
0.02152927697512719,3.447
0.021503918003854774,3.448
0.02147444322169699,3.449
0.021441007009294282,3.45
0.021403752858020146,3.451
0.021362818128141437,3.452
0.021318337519309,3.453
0.0212704434781671,3.454
0.021219263771535053,3.455
0.021164917132435693,3.456
0.021107509712922006,3.457
0.021047136304977457,3.458
0.020983887492712683,3.459
0.02091785956606761,3.46
0.020849163028732198,3.461
0.02077792697220256,3.462
0.020704297930976036,3.463
0.02062843305460159,3.464
0.02055049002399445,3.465
0.020470620259123867,3.466
0.020388971402692736,3.467
0.020305697243086594,3.468
0.02022096778916849,3.469
0.02013497409962411,3.47
0.02004792609009,3.471
0.019960043767076538,3.472
0.019871545676439065,3.473
0.019782642282937343,3.474
0.01969353839919247,3.475
0.019604439264739176,3.476
0.019515552963689054,3.477
0.019427087336138037,3.478
0.019339243743915675,3.479
0.019252212092622387,3.48
0.019166170283368134,3.481
0.01908128677838212,3.482
0.018997722931569327,3.483
0.01891563364448262,3.484
0.018835166676073187,3.485
0.01875646108156984,3.486
0.01867964496170969,3.487
0.018604832916023866,3.488
0.018532124417910297,3.489
0.018461604225286376,3.49
0.01839334425118657,3.491
0.01832740521814471,3.492
0.018263836990540325,3.493
0.018202677408843182,3.494
0.018143950250753785,3.495
0.01808766358782452,3.496
0.01803380926116,3.497
0.017982363336409755,3.498
0.01793328806415755,3.499
0.01788653616490965,3.5
0.017842056671914214,3.501
0.017799800426622558,3.502
0.017759723616135897,3.503
0.017721788339878152,3.504
0.017685959722014054,3.505
0.017652200320845888,3.506
0.017620465206663924,3.507
0.017590702104054497,3.508
0.017562857043705804,3.509
0.017536881382828825,3.51
0.017512736219487506,3.511
0.01749039271117392,3.512
0.017469828205433986,3.513
0.017451019411670855,3.514
0.017433936319267467,3.515
0.017418541184308377,3.516
0.0174047925979472,3.517
0.017392650136607943,3.518
0.017382075743538433,3.519
0.017373030972301095,3.52
