VaMe,time
0.002660458483721403,0.001
0.003203074239928475,0.002
0.00374558977388532,0.003
0.004287439364883178,0.004
0.004828075064961113,0.005
0.005366975273955319,0.006
0.005903651074561914,0.007
0.00643764939773768,0.008
0.006968552378723553,0.009
0.007495972815975124,0.01
0.008019546270192088,0.011
0.008538921127764899,0.012
0.009053749750131393,0.013
0.009563685050945866,0.014
0.010068383337400845,0.015
0.010567508805600045,0.016
0.011060734722698324,0.017
0.011547739923529504,0.018
0.012028203288620453,0.019
0.012501801625261991,0.02
0.012968213136565406,0.021
0.013427121872490911,0.022
0.013878217369746041,0.023
0.014321189585778504,0.024
0.014755726421642988,0.025
0.015181520173224486,0.026
0.015598279922040353,0.027
0.016005742469738578,0.028
0.016403677735063016,0.029
0.01679188777226312,0.03
0.017170200107622935,0.031
0.01753845704403899,0.032
0.017896503837986244,0.033
0.018244181049530142,0.034
0.018581325985050735,0.035
0.018907782572092524,0.036
0.01922341461772641,0.037
0.019528118037164924,0.038
0.019821829232724315,0.039
0.02010452722762478,0.04
0.020376227816296996,0.041
0.02063696975295178,0.042
0.020886798224036635,0.043
0.021125757093663183,0.044
0.021353895773940666,0.045
0.021571282075815067,0.046
0.021778009403342225,0.047
0.021974194399823628,0.048
0.022159966338539547,0.049
0.022335453261520064,0.05
0.022500773680837294,0.051
0.022656037950037886,0.052
0.02280135293232627,0.053
0.022936822260839658,0.054
0.02306254159388657,0.055
0.023178593621408748,0.056
0.023285047625151333,0.057
0.02338196358823817,0.058
0.023469396965733837,0.059
0.02354740144499363,0.06
0.02361602957540011,0.061
0.0236753318098983,0.062
0.023725354078305734,0.063
0.023766133552125996,0.064
0.02379769359047086,0.065
0.02382004230657002,0.066
0.0238331786864432,0.067
0.023837104361430207,0.068
0.02383183621234145,0.069
0.02381741650162495,0.07
0.02379391846904305,0.071
0.023761445910552837,0.072
0.023720126153735928,0.073
0.023670097538762074,0.074
0.02361149703500639,0.075
0.023544457679845095,0.076
0.02346911963425884,0.077
0.02338564734551239,0.078
0.02329424330698406,0.079
0.02319515433126077,0.08
0.02308866979659269,0.081
0.02297511277310489,0.082
0.022854826001100954,0.083
0.022728156236729875,0.084
0.022595442886217572,0.085
0.02245701568530796,0.086
0.022313199452223324,0.087
0.022164319640894544,0.088
0.02201070505149872,0.089
0.021852687829829954,0.09
0.021690601991824505,0.091
0.021524781511936424,0.092
0.02135555864945369,0.093
0.021183262833929545,0.094
0.02100822014177718,0.095
0.020830753151927364,0.096
0.020651180766591795,0.097
0.020469817462014796,0.098
0.020286971461632684,0.099
0.020102941558723716,0.1
0.01991801332520054,0.101
0.019732456988815948,0.102
0.019546528515270306,0.103
0.01936047237270162,0.104
0.019174523491175537,0.105
0.01898890760711385,0.106
0.018803840543475798,0.107
0.018619527343679183,0.108
0.018436162066823695,0.109
0.018253928632732345,0.11
0.01807300259217519,0.111
0.01789355329119658,0.112
0.017715745698625354,0.113
0.017539741183140483,0.114
0.017365696733091848,0.115
0.017193762469055025,0.116
0.017024078211252285,0.117
0.0168567711909073,0.118
0.016691956437762886,0.119
0.01652973865185036,0.12
0.016370213192150474,0.121
0.016213465208245653,0.122
0.016059567664803764,0.123
0.015908579910005688,0.124
0.015760547702110078,0.125
0.015615503883051432,0.126
0.015473468542030517,0.127
0.015334448530927552,0.128
0.01519843701508689,0.129
0.01506541386338741,0.13
0.014935347089638857,0.131
0.014808194869897153,0.132
0.014683907549552582,0.133
0.014562429196035762,0.134
0.0144436982738379,0.135
0.014327647083601862,0.136
0.01421419996214755,0.137
0.014103271170677925,0.138
0.01399476419763694,0.139
0.013888573070757266,0.14
0.01378458408948018,0.141
0.013682676012166071,0.142
0.013582718743242756,0.143
0.01348457330771642,0.144
0.013388095684107128,0.145
0.013293143399335468,0.146
0.013199581725359358,0.147
0.01310728707444063,0.148
0.013016146074963236,0.149
0.012926050471539823,0.15
0.012836892011810663,0.151
0.012748563603614366,0.152
0.012660967923293456,0.153
0.012574027873739537,0.154
0.01248769293745049,0.155
0.012401938920021997,0.156
0.012316761047245805,0.157
0.012232163241514478,0.158
0.012148150103920449,0.159
0.012064726456548387,0.16
0.011981901488289835,0.161
0.011899691003849296,0.162
0.011818115213231955,0.163
0.01173719375380502,0.164
0.011656940941536402,0.165
0.011577363728131009,0.166
0.011498463240975748,0.167
0.01142023874160528,0.168
0.011342691296718213,0.169
0.011265824221393217,0.17
0.011189640115911238,0.171
0.011114139413454707,0.172
0.011039325065509326,0.173
0.01096521077726136,0.174
0.010891826542631013,0.175
0.010819218071828158,0.176
0.010747440641931349,0.177
0.010676551808082394,0.178
0.01060660887823968,0.179
0.010537671941925498,0.18
0.01046980713137567,0.181
0.010403085602395607,0.182
0.0103375789492159,0.183
0.010273355516736492,0.184
0.010210480760728294,0.185
0.010149019703524257,0.186
0.010089037559117572,0.187
0.010030597545675212,0.188
0.009973758257005425,0.189
0.009918573359096248,0.19
0.00986509370254744,0.191
0.009813369789861701,0.192
0.009763453224217443,0.193
0.009715397159419187,0.194
0.009669256161292052,0.195
0.009625085764905901,0.196
0.00958294184103485,0.197
0.009542879735344317,0.198
0.009504953068804793,0.199
0.009469212113604117,0.2
0.009435701895120508,0.201
0.009404460757445183,0.202
0.0093755204271035,0.203
0.009348907722367066,0.204
0.00932464685038303,0.205
0.009302761116228173,0.206
0.009283273450500179,0.207
0.009266205615488167,0.208
0.009251576259902054,0.209
0.009239398567135052,0.21
0.009229678941125679,0.211
0.009222417500798134,0.212
0.009217609335284493,0.213
0.00921524500802741,0.214
0.009215309893585032,0.215
0.009217783256430292,0.216
0.009222638673733652,0.217
0.009229846379788848,0.218
0.009239376316803802,0.219
0.009251200313896018,0.22
0.009265292626920042,0.221
0.00928162880626804,0.222
0.009300183362248665,0.223
0.009320927003242859,0.224
0.009343824206980201,0.225
0.009368831573697315,0.226
0.009395897000829777,0.227
0.00942495951978182,0.228
0.009455949739941205,0.229
0.009488790973763782,0.23
0.009523400995883995,0.231
0.009559694075578228,0.232
0.009597582662276534,0.233
0.009636978087096978,0.234
0.009677789903213477,0.235
0.0097199239535393,0.236
0.009763279999740793,0.237
0.00980775027398436,0.238
0.00985321931465545,0.239
0.009899564053507481,0.24
0.00994665392851176,0.241
0.009994352078375037,0.242
0.010042517700445027,0.243
0.010091008131968945,0.244
0.010139679197226302,0.245
0.010188383605901217,0.246
0.010236969206042423,0.247
0.01028527982277656,0.248
0.010333159301524555,0.249
0.010380456685230771,0.25
0.01042703028019187,0.251
0.010472749478356977,0.252
0.010517493817251384,0.253
0.010561149093420569,0.254
0.010603601805462467,0.255
0.010644735897537592,0.256
0.010684435157476083,0.257
0.010722589507814899,0.258
0.010759100615211651,0.259
0.010793884002354311,0.26
0.010826867103497773,0.261
0.010857983968638785,0.262
0.010887168635412649,0.263
0.010914350379851013,0.264
0.010939452610628569,0.265
0.010962393411920152,0.266
0.010983085143711541,0.267
0.011001434215204204,0.268
0.011017343864740027,0.269
0.011030719812023573,0.27
0.011041475778485563,0.271
0.011049535982092325,0.272
0.011054832938895455,0.273
0.011057301878972926,0.274
0.01105687810009401,0.275
0.011053502732292345,0.276
0.011047134114920027,0.277
0.011037757905050712,0.278
0.011025391957617458,0.279
0.011010085066276046,0.28
0.010991910182439994,0.281
0.010970953901985813,0.282
0.010947305818444206,0.283
0.010921052951075563,0.284
0.010892281126331133,0.285
0.01086107910614174,0.286
0.01082754086090579,0.287
0.010791765110086409,0.288
0.010753852981476276,0.289
0.010713904646945063,0.29
0.010672015748836083,0.291
0.010628274528357623,0.292
0.010582760361511255,0.293
0.010535543452937956,0.294
0.010486685026595409,0.295
0.010436238267835591,0.296
0.010384250576583555,0.297
0.01033076671894048,0.298
0.01027583188741809,0.299
0.010219493829136707,0.3
0.0101618033986614,0.301
0.010102813172926734,0.302
0.010042574369063341,0.303
0.009981133417477852,0.304
0.009918530274651002,0.305
0.00985479906912586,0.306
0.009789969332455104,0.307
0.009724066056409575,0.308
0.009657108572287168,0.309
0.009589109767212665,0.31
0.009520077322520264,0.311
0.009450016982017353,0.312
0.009378936125042007,0.313
0.00930684581565343,0.314
0.009233760333738818,0.315
0.009159694360090528,0.316
0.009084659824454354,0.317
0.009008665575626686,0.318
0.008931721035445981,0.319
0.008853841769954511,0.32
0.008775054443839789,0.321
0.008695400064193358,0.322
0.008614935288364288,0.323
0.008533731856408535,0.324
0.008451874309515203,0.325
0.008369456142733241,0.326
0.008286574699478279,0.327
0.00820332612830716,0.328
0.00811980293516379,0.329
0.008036095169592599,0.33
0.007952293098227568,0.331
0.007868488962623179,0.332
0.007784777409066568,0.333
0.007701255153383138,0.334
0.007618020440021047,0.335
0.007535172671152159,0.336
0.007452812311970908,0.337
0.007371040927196782,0.338
0.0072899610595971364,0.339
0.007209675677822107,0.34
0.007130287091403752,0.341
0.007051895472318778,0.342
0.0069745973085096865,0.343
0.0068984841520680585,0.344
0.006823641908157618,0.345
0.0067501507067569775,0.346
0.0066780851910783635,0.347
0.006607514910537544,0.348
0.006538504467892597,0.349
0.006471113316252339,0.35
0.0064053956769834835,0.351
0.006341401221109608,0.352
0.006279176488775939,0.353
0.006218766429088889,0.354
0.006160215533462057,0.355
0.006103568349528656,0.356
0.006048869376153504,0.357
0.005996162469885057,0.358
0.005945489927631151,0.359
0.005896891361246734,0.36
0.005850402552852068,0.361
0.00580605476210934,0.362
0.005763874863361948,0.363
0.005723885999390049,0.364
0.005686108047637369,0.365
0.005650557485917707,0.366
0.005617246794797324,0.367
0.005586184047322801,0.368
0.005557373194816597,0.369
0.00553081471629715,0.37
0.005506505901089647,0.371
0.0054844405309964666,0.372
0.0054646085538919455,0.373
0.005446996633439706,0.374
0.005431589693988755,0.375
0.0054183726197476,0.376
0.005407331098620846,0.377
0.005398451008678492,0.378
0.005391716869074866,0.379
0.0053871113574735134,0.38
0.005384617148967495,0.381
0.005384219605706747,0.382
0.005385908062583984,0.383
0.005389674875338809,0.384
0.005395512936775242,0.385
0.005403413657119788,0.386
0.0054133671138842715,0.387
0.005425363776071789,0.388
0.005439395869663261,0.389
0.0054554573350940935,0.39
0.00547354249409008,0.391
0.005493644093763906,0.392
0.005515751780395629,0.393
0.005539851879913436,0.394
0.005565928283418703,0.395
0.0055939634271218105,0.396
0.005623938622532174,0.397
0.005655833549266338,0.398
0.005689625165132742,0.399
0.005725286908465141,0.4
0.005762789142748245,0.401
0.00580210071560823,0.402
0.005843190538139763,0.403
0.005886028248574566,0.404
0.005930583640502155,0.405
0.0059768251039783475,0.406
0.006024718074351629,0.407
0.006074224838382633,0.408
0.006125306006307173,0.409
0.006177922529200441,0.41
0.006232037055988869,0.411
0.006287614195113743,0.412
0.006344619743194176,0.413
0.0064030191512686645,0.414
0.006462775603227462,0.415
0.006523848207155909,0.416
0.006586190940590858,0.417
0.006649752640469067,0.418
0.0067144776359071645,0.419
0.006780306515387639,0.42
0.006847176885256031,0.421
0.006915024092376606,0.422
0.006983781762537255,0.423
0.0070533819078191515,0.424
0.007123754360288471,0.425
0.007194825543644637,0.426
0.00726651724873909,0.427
0.00733874646286053,0.428
0.0074114264661358795,0.429
0.007484468227473911,0.43
0.0075577810680682676,0.431
0.007631272159699407,0.432
0.007704845113119298,0.433
0.007778398913793877,0.434
0.00785182856541275,0.435
0.00792502720373857,0.436
0.007997888207999721,0.437
0.008070306284998052,0.438
0.008142177408907155,0.439
0.008213397954771212,0.44
0.00828386347903038,0.441
0.008353467506233827,0.442
0.008422100424646497,0.443
0.008489648269605155,0.444
0.0085559914427461,0.445
0.00862100457180182,0.446
0.008684558809378247,0.447
0.008746526132873573,0.448
0.008806784133801582,0.449
0.008865220129029811,0.45
0.00892173382909572,0.451
0.008976238038719272,0.452
0.009028657188815965,0.453
0.009078923851270296,0.454
0.009126973730718971,0.455
0.009172740573169911,0.456
0.009216153734993219,0.457
0.00925713995641417,0.458
0.009295627704201401,0.459
0.009331551858172034,0.46
0.009364858086436629,0.461
0.009395506745933072,0.462
0.009423475668830464,0.463
0.009448760807794136,0.464
0.009471373763105166,0.465
0.009491335881291084,0.466
0.009508670962160879,0.467
0.009523401715964731,0.468
0.009535552983018239,0.469
0.009545158243531696,0.47
0.009552264372736905,0.471
0.009556932852069279,0.472
0.009559237715328033,0.473
0.009559261134676228,0.474
0.009557087965284967,0.475
0.009552800619621625,0.476
0.009546475293732986,0.477
0.009538179952172897,0.478
0.009527973822781817,0.479
0.00951590765877845,0.48
0.009502024034169021,0.481
0.009486357807521282,0.482
0.00946893782991394,0.483
0.009449790576248698,0.484
0.009428945068835905,0.485
0.00940643769243371,0.486
0.009382315433886306,0.487
0.009356636353789327,0.488
0.009329466767902644,0.489
0.009300876039774822,0.49
0.009270931972988323,0.491
0.009239699988137236,0.492
0.00920724585307878,0.493
0.009173638725740629,0.494
0.009138952102111958,0.495
0.009103262419322545,0.496
0.00906664607086137,0.497
0.009029175931721305,0.498
0.008990918587567903,0.499
0.008951932926523984,0.5
0.008912269956803342,0.501
0.008871973653141825,0.502
0.00883108280421508,0.503
0.008789633352574513,0.504
0.008747660296441766,0.505
0.008705198366509317,0.506
0.008662281017810814,0.507
0.008618938246113195,0.508
0.00857519535939863,0.509
0.008531074426730487,0.51
0.008486597252180478,0.511
0.008441787380789838,0.512
0.008396669862943542,0.513
0.008351268993967502,0.514
0.008305605570723061,0.515
0.008259695872197983,0.516
0.00821355296030213,0.517
0.008167188525172902,0.518
0.008120613386802164,0.519
0.00807383629299185,0.52
0.008026862279928805,0.521
0.007979692872181745,0.522
0.007932329124917644,0.523
0.007884775935802193,0.524
0.007837045339302285,0.525
0.007789157424446143,0.526
0.0077411383504795645,0.527
0.007693016293752183,0.528
0.007644818391862881,0.529
0.007596571650460398,0.53
0.007548307071526696,0.531
0.007500063717969309,0.532
0.007451890489037025,0.533
0.0074038451524497525,0.534
0.007355991033554846,0.535
0.007308392545691467,0.536
0.007261111750780461,0.537
0.00721420771012858,0.538
0.0071677379815751514,0.539
0.007121760142951358,0.54
0.0070763321058395666,0.541
0.007031511196621868,0.542
0.006987352416397132,0.543
0.006943906704665472,0.544
0.006901220380908895,0.545
0.006859336104407676,0.546
0.0068182942735903005,0.547
0.006778133615635023,0.548
0.00673889052237271,0.549
0.006700597640750587,0.55
0.006663283183572152,0.551
0.006626971935268669,0.552
0.006591687095949146,0.553
0.006557451573752854,0.554
0.006524288236062739,0.555
0.00649221927092687,0.556
0.006461265007137065,0.557
0.006431442604444199,0.558
0.006402764955457117,0.559
0.006375239982793383,0.56
0.0063488703377027654,0.561
0.006323653372375628,0.562
0.006299581198397069,0.563
0.006276640653993823,0.564
0.006254813130801347,0.565
0.006234074477306881,0.566
0.006214395299060388,0.567
0.0061957417027637815,0.568
0.006178076260917944,0.569
0.006161358993777542,0.57
0.0061455482695649336,0.571
0.006130601549922177,0.572
0.006116475894781014,0.573
0.00610312814019288,0.574
0.006090514703686384,0.575
0.006078591054774611,0.576
0.006067310975289767,0.577
0.006056625782345369,0.578
0.006046483683423568,0.579
0.006036829393815082,0.58
0.0060276040859090765,0.581
0.006018745654183271,0.582
0.006010189162068607,0.583
0.006001867205424878,0.584
0.005993709834965336,0.585
0.005985643928976353,0.586
0.005977592769227301,0.587
0.00596947709115748,0.588
0.005961217960922127,0.589
0.005952740559271922,0.59
0.005943977717433184,0.591
0.0059348723918839835,0.592
0.0059253785175109545,0.593
0.005915459941438324,0.594
0.0059050875062156664,0.595
0.005894234972835939,0.596
0.005882875539105503,0.597
0.005870980979357307,0.598
0.005858523502033651,0.599
0.005845478347322632,0.6
0.0058318254545215295,0.601
0.0058175498860839605,0.602
0.005802641302088536,0.603
0.0057870928792920565,0.604
0.005770900069080275,0.605
0.005754059496634296,0.606
0.005736568152845348,0.607
0.005718422871077316,0.608
0.005699619954359055,0.609
0.005680154737123244,0.61
0.005660020826212638,0.611
0.005639209030951205,0.612
0.005617706750344677,0.613
0.005595498842211093,0.614
0.005572569986531543,0.615
0.005548907559732817,0.616
0.005524504077282512,0.617
0.005499358662953326,0.618
0.005473477243880367,0.619
0.005446871373885621,0.62
0.0054195558072344515,0.621
0.0053915454940211185,0.622
0.005362853606563391,0.623
0.005333491963138699,0.624
0.005303473286636449,0.625
0.0052728136024178555,0.626
0.0052415337344647725,0.627
0.005209659686656499,0.628
0.0051772219917146445,0.629
0.005144254235353897,0.63
0.0051107910580606136,0.631
0.005076866000828283,0.632
0.005042509724238795,0.633
0.005007749246138673,0.634
0.004972608334479807,0.635
0.0049371084443798645,0.636
0.0049012696280392835,0.637
0.00486511134259517,0.638
0.004828653254346266,0.639
0.004791916065188268,0.64
0.004754922275122742,0.641
0.0047176966801217995,0.642
0.004680266371306776,0.643
0.004642660119706493,0.644
0.004604907254163884,0.645
0.0045670363047957616,0.646
0.004529073681512764,0.647
0.0044910426857664625,0.648
0.004452963328034898,0.649
0.004414853244111917,0.65
0.004376729434426338,0.651
0.004338610340861152,0.652
0.0043005179405507625,0.653
0.0042624795927182985,0.654
0.0042245293218874744,0.655
0.004186708194286047,0.656
0.004149063501159471,0.657
0.004111646652035313,0.658
0.004074510361723657,0.659
0.004037706824121097,0.66
0.00400128826233428,0.661
0.003965309112988463,0.662
0.003929827983061777,0.663
0.00389490835614375,0.664
0.003860617996400376,0.665
0.0038270273737161056,0.666
0.003794207568602619,0.667
0.003762228321817476,0.668
0.003731157054059735,0.669
0.0037010590635797136,0.67
0.0036719981250437376,0.671
0.0036440367081143005,0.672
0.0036172356911108286,0.673
0.0035916537797689454,0.674
0.003567346945691954,0.675
0.00354436820365681,0.676
0.003522767752408602,0.677
0.003502593169793803,0.678
0.003483889398676847,0.679
0.00346669853424903,0.68
0.003451059590691254,0.681
0.0034370083793277555,0.682
0.003424577479461459,0.683
0.0034137962681477976,0.684
0.003404691017463066,0.685
0.0033972849745080346,0.686
0.003391598341369811,0.687
0.00338764827905363,0.688
0.003385449079532915,0.689
0.003385012387973145,0.69
0.003386347246761973,0.691
0.0033894599905166713,0.692
0.003394354348193037,0.693
0.0034010319943977552,0.694
0.0034094933024416975,0.695
0.0034197378325857026,0.696
0.003431764250158837,0.697
0.003445569732152098,0.698
0.003461149468174797,0.699
0.003478496935984299,0.7
0.003497604858206921,0.701
0.0035184661426792925,0.702
0.0035410743100404065,0.703
0.0035654233195238274,0.704
0.0035915068919258647,0.705
0.0036193175112301003,0.706
0.003648845456280822,0.707
0.0036800783556101774,0.708
0.0037130014030641047,0.709
0.0037475977740630832,0.71
0.0037838487465585366,0.711
0.0038217334045619546,0.712
0.003861228103989296,0.713
0.003902306091519824,0.714
0.003944937529084649,0.715
0.003989089703851005,0.716
0.0040347270356927865,0.717
0.00408181081653606,0.718
0.004130299024376659,0.719
0.004180146554444095,0.72
0.0042313057669397585,0.721
0.00428372698055334,0.722
0.0043373586775354665,0.723
0.004392147388853528,0.724
0.004448037347377967,0.725
0.004504970063243173,0.726
0.004562883986212724,0.727
0.004621714377359684,0.728
0.004681393432946168,0.729
0.004741850612601155,0.73
0.004803013051309631,0.731
0.004864805899138033,0.732
0.004927152431334194,0.733
0.0049899737899836765,0.734
0.0050531883439466465,0.735
0.005116711067355362,0.736
0.0051804536867132425,0.737
0.0052443259056549315,0.738
0.005308237204165911,0.739
0.005372098557410483,0.74
0.005435823772107396,0.741
0.005499330388102063,0.742
0.0055625401978812855,0.743
0.005625379455455712,0.744
0.005687778759112353,0.745
0.005749672454950429,0.746
0.0058109973165357195,0.747
0.005871690440643427,0.748
0.005931687220811378,0.749
0.005990921234528859,0.75
0.006049326928155847,0.751
0.006106843820786705,0.752
0.006163420377886649,0.753
0.006219016514881396,0.754
0.00627360425008504,0.755
0.00632716635031617,0.756
0.006379693201852257,0.757
0.006431178509577262,0.758
0.006481615129588501,0.759
0.006530993047419048,0.76
0.006579300285874287,0.761
0.00662652511710733,0.762
0.006672657698768346,0.763
0.006717690657380265,0.764
0.006761618843534689,0.765
0.006804438531983248,0.766
0.006846146316829808,0.767
0.006886737902021615,0.768
0.006926206944422336,0.769
0.006964544078589202,0.77
0.007001736225988021,0.771
0.007037766244839175,0.772
0.00707261289549167,0.773
0.007106250992089989,0.774
0.0071386515266512055,0.775
0.007169781533983179,0.776
0.007199603533074322,0.777
0.007228074685452762,0.778
0.007255146302724665,0.779
0.007280764198759987,0.78
0.007304869514546277,0.781
0.007327399274083238,0.782
0.007348286341838077,0.783
0.007367458885710762,0.784
0.007384839671046963,0.785
0.007400345615119415,0.786
0.007413888032091983,0.787
0.007425373921531485,0.788
0.007434708505468028,0.789
0.0074417989648890275,0.79
0.007446558937246821,0.791
0.007448912866929794,0.792
0.0074487989295688815,0.793
0.007446169226546966,0.794
0.0074409864231693755,0.795
0.0074332180336651905,0.796
0.007422832916044627,0.797
0.007409803919370558,0.798
0.007394114923280325,0.799
0.007375767559530669,0.8
0.007354784968129116,0.801
0.00733121213563073,0.802
0.007305113153209421,0.803
0.00727656611688135,0.804
0.007245656653220936,0.805
0.007212471632791564,0.806
0.007177095346611518,0.807
0.007139609203667684,0.808
0.0071000932738938295,0.809
0.007058627441423974,0.81
0.007015291553584956,0.811
0.006970164992907708,0.812
0.006923326182941856,0.813
0.006874852380528406,0.814
0.006824819891762222,0.815
0.006773304635788654,0.816
0.006720382821400399,0.817
0.006666131427628027,0.818
0.006610628199640069,0.819
0.006553950977674961,0.82
0.006496176346646049,0.821
0.0064373779085606705,0.822
0.006377624941966099,0.823
0.006316982173681435,0.824
0.006255510486520179,0.825
0.0061932677075810716,0.826
0.0061303089238871865,0.827
0.006066686318395245,0.828
0.006002448714065283,0.829
0.005937640996668301,0.83
0.005872303526156132,0.831
0.005806471704320017,0.832
0.005740176053153556,0.833
0.005673443065726319,0.834
0.005606296674307831,0.835
0.005538759936188256,0.836
0.005470856497526151,0.837
0.0054026113203714905,0.838
0.005334050175894105,0.839
0.005265198074839981,0.84
0.005196078161486414,0.841
0.005126712699333038,0.842
0.005057125786254365,0.843
0.004987346035684873,0.844
0.004917408017856067,0.845
0.004847352191430617,0.846
0.004777223496759661,0.847
0.004707068980472739,0.848
0.004636935176563125,0.849
0.00456686649745038,0.85
0.00449690545428086,0.851
0.0044270940573730615,0.852
0.004357475178966968,0.853
0.004288093339453633,0.854
0.00421899494491954,0.855
0.004150228103083265,0.856
0.004081842104187173,0.857
0.0040138865938750415,0.858
0.003946410436280353,0.859
0.0038794605062383854,0.86
0.003813081113643765,0.861
0.0037473145116916047,0.862
0.0036822019750179166,0.863
0.0036177846548739773,0.864
0.0035541038991434544,0.865
0.003491201046182312,0.866
0.0034291167951638873,0.867
0.0033678903344992097,0.868
0.003307558518783779,0.869
0.003248155431940387,0.87
0.003189712399508431,0.871
0.0031322581433981572,0.872
0.003075818816505476,0.873
0.003020417915869052,0.874
0.002966076171894974,0.875
0.0029128115132091583,0.876
0.002860639159157318,0.877
0.0028095717981724087,0.878
0.002759619786341852,0.879
0.002710791345596357,0.88
0.0026630927643038196,0.881
0.002616528591300484,0.882
0.0025711017886447794,0.883
0.002526813782306004,0.884
0.002483664347170887,0.885
0.002441651391370742,0.886
0.0024007709459790793,0.887
0.0023610176057456116,0.888
0.0023223852617014445,0.889
0.002284867787050764,0.89
0.0022484594683809763,0.891
0.0022131550825198144,0.892
0.002178949567245249,0.893
0.002145837389516706,0.894
0.0021138120537613383,0.895
0.0020828662740149623,0.896
0.002052992779106191,0.897
0.002024185169113079,0.898
0.0019964383062986437,0.899
0.0019697480654222643,0.9
0.0019441105698253186,0.901
0.0019195214008455989,0.902
0.0018959754039643436,0.903
0.0018734671869495307,0.904
0.0018519917678504597,0.905
0.0018315448730751313,0.906
0.001812122787598407,0.907
0.0017937218782196462,0.908
0.0017763379768545669,0.909
0.0017599658215470247,0.91
0.0017445987060868001,0.911
0.0017302284033710964,0.912
0.0017168453317310452,0.913
0.0017044388562028581,0.914
0.0016929975791000315,0.915
0.0016825094823938605,0.916
0.001672961828671588,0.917
0.0016643408996095655,0.918
0.0016566319421020667,0.919
0.0016498196396563117,0.92
0.0016438889599810153,0.921
0.0016388260085870257,0.922
0.0016346186659855146,0.923
0.0016312569188648618,0.924
0.0016287328514102395,0.925
0.0016270403048963765,0.926
0.0016261742436637337,0.927
0.0016261299170349506,0.928
0.0016269020666293767,0.929
0.0016284845651178257,0.93
0.001630870583518273,0.931
0.0016340528995280258,0.932
0.0016380239586523662,0.933
0.0016427756414291465,0.934
0.0016482988839735214,0.935
0.0016545833275331198,0.936
0.001661617126560827,0.937
0.0016693869512108878,0.938
0.0016778781303933262,0.939
0.0016870748365828262,0.94
0.0016969602350126157,0.941
0.001707516587918831,0.942
0.0017187253641646014,0.943
0.0017305674171560943,0.944
0.0017430232616027835,0.945
0.001756073429403562,0.946
0.0017696988418451397,0.947
0.0017838811099908662,0.948
0.0017986026708102336,0.949
0.0018138466862726598,0.95
0.0018295966751381049,0.951
0.001845835916376708,0.952
0.001862546835464293,0.953
0.0018797107702392915,0.954
0.0018973083070917235,0.955
0.0019153199079532323,0.956
0.0019337264510018441,0.957
0.0019525095267901025,0.958
0.0019716514513301447,0.959
0.001991134982951501,0.96
0.0020109427611191173,0.961
0.002031056623502176,0.962
0.0020514571951255277,0.963
0.002072124040177111,0.964
0.002093036174794117,0.965
0.0021141725394372467,0.966
0.0021355122480122986,0.967
0.0021570346116774955,0.968
0.002178718967193406,0.969
0.0022005443244091966,0.97
0.0022224888618517288,0.971
0.0022445294670920255,0.972
0.0022666417081562687,0.973
0.0022888004182664624,0.974
0.002310980629559597,0.975
0.0023331584812369896,0.976
0.0023553118988232573,0.977
0.002377420954063885,0.978
0.002399467873824968,0.979
0.002421436730626771,0.98
0.00244331289441206,0.981
0.0024650823427393386,0.982
0.002486730917122459,0.983
0.0025082435897696323,0.984
0.0025296038131304662,0.985
0.0025507930865896534,0.986
0.0025717908486348508,0.987
0.002592574606080339,0.988
0.002613120075971636,0.989
0.002633401188373517,0.99
0.002653389924129091,0.991
0.0026730560644006294,0.992
0.002692366991855454,0.993
0.0027112876352755016,0.994
0.0027297806525317294,0.995
0.0027478070304491928,0.996
0.002765327162547138,0.997
0.002782302238320948,0.998
0.0027986956905228103,0.999
0.002814474452415383,1.0
0.0028296098161373095,1.001
0.002844077759297582,1.002
0.0028578586922917886,1.003
0.0028709366506848646,1.004
0.002883298012410459,1.005
0.00289492989170674,1.006
0.0029058186421560025,1.007
0.002915949238737026,1.008
0.002925305880266533,1.009
0.0029338732202807455,1.01
0.0029416375081555124,1.011
0.0029485874437020243,1.012
0.0029547148094753463,1.013
0.0029600149415591475,1.014
0.002964487048093866,1.015
0.0029681343212810936,1.016
0.0029709637526395237,1.017
0.0029729855738991587,1.018
0.0029742123072238526,1.019
0.002974657497137776,1.02
0.0029743343178255314,1.021
0.0029732544534329807,1.022
0.0029714277139327974,1.023
0.0029688624263572963,1.024
0.0029655661515183085,1.025
0.00296154635442912,1.026
0.0029568109857411365,1.027
0.002951369029417521,1.028
0.0029452310153380186,1.029
0.002938409423995389,1.03
0.002930918851138312,1.031
0.0029227757825749535,1.032
0.0029139978750278225,1.033
0.0029046028145351434,1.034
0.0028946072339862696,1.035
0.0028840264313501067,1.036
0.0028728750668668003,1.037
0.002861168183983683,1.038
0.0028489218852249284,1.039
0.0028361534788974236,1.04
0.002822881154693264,1.041
0.0028091232834383745,1.042
0.002794897500005684,1.043
0.002780219939183821,1.044
0.002765105113912722,1.045
0.002749566519901485,1.046
0.0027336174993984465,1.047
0.0027172718875528167,1.048
0.0027005442707214865,1.049
0.0026834498474868538,1.05
0.0026660039345029057,1.051
0.0026482212027923472,1.052
0.0026301148754834785,1.053
0.0026116963442837497,1.054
0.0025929754906357824,1.055
0.002573961468241189,1.056
0.0025546635629331424,1.057
0.0025350919672540015,1.058
0.0025152583842109636,1.059
0.002495176332314057,1.06
0.0024748610242045143,1.061
0.002454328745941056,1.062
0.002433595855290312,1.063
0.0024126779330286845,1.064
0.0023915897929603614,1.065
0.0023703464331374675,1.066
0.0023489642627946127,1.067
0.002327461945880309,1.068
0.0023058605918067805,1.069
0.0022841832474495075,1.07
0.0022624538078467424,1.071
0.0022406958361343553,1.072
0.0022189321068471447,1.073
0.0021971851776040347,1.074
0.002175478354873611,1.075
0.002153836329672089,1.076
0.0021322852943520838,1.077
0.0021108526349981477,1.078
0.002089566331880334,1.079
0.0020684541974604824,1.08
0.0020475431274162787,1.081
0.0020268586566653804,1.082
0.0020064250098726887,1.083
0.0019862654662612745,1.084
0.001966402696493536,1.085
0.00194685889322802,1.086
0.0019276556879251076,1.087
0.001908813925904485,1.088
0.0018903534151670804,1.089
0.001872292768896851,1.09
0.001854649418752975,1.091
0.0018374398039565705,1.092
0.0018206796701534943,1.093
0.0018043843677986368,1.094
0.0017885690351933633,1.095
0.0017732485838231366,1.096
0.0017584374584952414,1.097
0.0017441492481548948,1.098
0.0017303963788238975,1.099
0.0017171901140955463,1.1
0.001704540811641684,1.101
0.0016924581835033737,1.102
0.00168095140821024,1.103
0.001670029117290556,1.104
0.0016596993468920161,1.105
0.0016499695329041323,1.106
0.0016408465749737995,1.107
0.0016323369306384438,1.108
0.0016244466634349516,1.109
0.0016171813794393173,1.11
0.001610546034423832,1.111
0.0016045446480909022,1.112
0.001599180018708533,1.113
0.0015944535658283649,1.114
0.0015903653467382866,1.115
0.001586914162311317,1.116
0.001584097673605916,1.117
0.0015819125250268286,1.118
0.0015803544703454026,1.119
0.0015794184637437636,1.12
0.001579098673514547,1.121
0.0015793884016066292,1.122
0.0015802799267171565,1.123
0.0015817643140334254,1.124
0.00158383124678774,1.125
0.0015864689246529405,1.126
0.0015896640353342494,1.127
0.001593401764802398,1.128
0.0015976658116505808,1.129
0.0016024384281549343,1.13
0.0016077005567892665,1.131
0.001613432086910049,1.132
0.0016196121792966308,1.133
0.0016262195808746114,1.134
0.0016332328635259754,1.135
0.0016406305432780683,1.136
0.001648391070227684,1.137
0.001656492717258068,1.138
0.001664913421423112,1.139
0.0016736306364427194,1.14
0.001682621240001669,1.141
0.0016918615140581706,1.142
0.001701327186433521,1.143
0.001710993489729226,1.144
0.0017208351650812113,1.145
0.001730826326391557,1.146
0.0017409401882263348,1.147
0.0017511488976934444,1.148
0.0017614238019947766,1.149
0.0017717361974116472,1.15
0.0017820583129727746,1.151
0.0017923642825297685,1.152
0.0018026309485855395,1.153
0.0018128383642328867,1.154
0.0018229698711632438,1.155
0.001833011676004847,1.156
0.0018429519252432908,1.157
0.0018527794767537816,1.158
0.0018624829292522478,1.159
0.0018720505095240207,1.16
0.001881470756503271,1.161
0.0018907333513559174,1.162
0.0018998295889794633,1.163
0.0019087523716227498,1.164
0.0019174957629739294,1.165
0.0019260541824048516,1.166
0.0019344215044549786,1.167
0.0019425906203849647,1.168
0.0019505537757359627,1.169
0.0019583032743395626,1.17
0.0019658319350345146,1.171
0.0019731330257333137,1.172
0.0019801997237586587,1.173
0.0019870245229673734,1.174
0.0019935991974177783,1.175
0.0019999154591823134,1.176
0.0020059658421083585,1.177
0.0020117443664980045,1.178
0.0020172468879773387,1.179
0.0020224711946945774,1.18
0.0020274169275824984,1.181
0.0020320853765426086,1.182
0.002036479170108718,1.183
0.002040601843660691,1.184
0.0020444572561859483,1.185
0.0020480488773489754,1.186
0.002051379168050145,1.187
0.002054449439532345,1.188
0.002057260308222207,1.189
0.0020598124227250506,1.19
0.002062107116408359,1.191
0.0020641468808225306,1.192
0.002065935667578914,1.193
0.002067479031639465,1.194
0.002068784121907822,1.195
0.0020698595152787765,1.196
0.0020707148865292046,1.197
0.002071360511934806,1.198
0.0020718066162847904,1.199
0.0020720626657771057,1.2
0.002072136918745882,1.201
0.00207203654106512,1.202
0.0020717681987688047,1.203
0.0020713387538563287,1.204
0.0020707557910071813,1.205
0.0020700278800747283,1.206
0.0020691645481658253,1.207
0.002068175961528399,1.208
0.0020670723426413095,1.209
0.0020658632518007185,1.21
0.002064557068119886,1.211
0.0020631609702769288,1.212
0.0020616812923647675,1.213
0.0020601238625137706,1.214
0.0020584941165581413,1.215
0.002056797044256623,1.216
0.002055037120104803,1.217
0.0020532183423468743,1.218
0.002051344414195806,1.219
0.0020494190005392113,1.22
0.002047445932008961,1.221
0.0020454292259449135,1.222
0.0020433728357050103,1.223
0.0020412801528527577,1.224
0.002039153546850984,1.225
0.002036994402149084,1.226
0.0020348037961412076,1.227
0.002032583462597848,1.228
0.00203033662205026,1.229
0.0020280684911182906,1.23
0.002025786430176668,1.231
0.0020234997559369283,1.232
0.002021219294942525,1.233
0.0020189567781307635,1.234
0.002016724175151476,1.235
0.002014533044277517,1.236
0.0020123939465582336,1.237
0.0020103159998072244,1.238
0.002008306707647703,1.239
0.0020063721110824134,1.24
0.002004517128712163,1.241
0.0020027459523854507,1.242
0.00200106248823211,1.243
0.001999470863531529,1.244
0.0019979759647397463,1.245
0.001996583906013337,1.246
0.001995302290589939,1.247
0.001994140145861605,1.248
0.001993107485569769,1.249
0.001992214553389013,1.25
0.0019914709631521825,1.251
0.001990885120467397,1.252
0.0019904641469382822,1.253
0.0019902140752985774,1.254
0.0019901399537883275,1.255
0.001990245756420509,1.256
0.001990534193751853,1.257
0.001991006545391244,1.258
0.0019916626022924455,1.259
0.0019925007627807283,1.26
0.0019935182887634343,1.261
0.001994711699819654,1.262
0.001996077254974262,1.263
0.001997611441994934,1.264
0.001999311369261899,1.265
0.00200117494758764,1.266
0.002003200769421295,1.267
0.0020053876441113315,1.268
0.00200773390678239,1.269
0.0020102369011840084,1.27
0.0020128930386671506,1.271
0.0020156983421358273,1.272
0.0020186490111084427,1.273
0.0020217416842480402,1.274
0.00202497334960925,1.275
0.0020283409858674584,1.276
0.0020318410692293527,1.277
0.0020354690989032444,1.278
0.002039219280027522,1.279
0.00204308445750444,1.28
0.0020470563206208183,1.281
0.0020511258121286317,1.282
0.00205528360368691,1.283
0.0020595204676235285,1.284
0.0020638273929016,1.285
0.002068195351509142,1.286
0.002072614772851338,1.287
0.002077075089624878,1.288
0.002081564855110777,1.289
0.002086072527082672,1.29
0.002090587511505627,1.291
0.0020951010314606182,1.292
0.0020996066050889047,1.293
0.002104100044190296,1.294
0.00210857896174692,1.295
0.0021130418616057234,1.296
0.0021174870568682895,1.297
0.0021219119269238755,1.298
0.00212631292082774,1.299
0.0021306861147835725,1.3
0.0021350277796872157,1.301
0.0021393346132825577,1.302
0.002143603551327105,1.303
0.002147831206473506,1.304
0.0021520132177678996,1.305
0.002156144020672046,1.306
0.0021602172602975703,1.307
0.0021642264919295513,1.308
0.002168165732604321,1.309
0.002172029732080016,1.31
0.0021758139952578015,1.311
0.0021795146095872813,1.312
0.002183127926576046,1.313
0.002186650124465478,1.314
0.0021900766572041253,1.315
0.0021934017022003593,1.316
0.0021966179554107645,1.317
0.0021997170255496404,1.318
0.0022026902221360303,1.319
0.0022055293768004462,1.32
0.0022082275246494793,1.321
0.002210779378577762,1.322
0.0022131815338109462,1.323
0.00221543234829478,1.324
0.0022175314705493243,1.325
0.0022194790359434673,1.326
0.002221274713330391,1.327
0.0022229170588285246,1.328
0.0022244035647633934,1.329
0.002225731229453028,1.33
0.0022268971335991645,1.331
0.002227898692444228,1.332
0.0022287334936306304,1.333
0.0022293987578032837,1.334
0.0022298907172546693,1.335
0.0022302044797489714,1.336
0.002230334652257783,1.337
0.0022302763492697227,1.338
0.0022300260656243427,1.339
0.002229582177232604,1.34
0.002228945005930188,1.341
0.0022281164433874353,1.342
0.0022270991856534164,1.343
0.0022258957530123407,1.344
0.002224507731164756,1.345
0.0022229357402754725,1.346
0.002221180181367524,1.347
0.002219242334976928,1.348
0.002217125433446908,1.349
0.0022148355614373437,1.35
0.002212382303551227,1.351
0.002209779050015741,1.352
0.002207042891543567,1.353
0.002204194080504794,1.354
0.0022012550958756955,1.355
0.002198249411640113,1.356
0.0021952002316123357,1.357
0.0021921296937850053,1.358
0.00218905885525503,1.359
0.00218600813525358,1.36
0.0021829976785342677,1.361
0.002180047442021214,1.362
0.002177177086685028,1.363
0.0021744058044100723,1.364
0.002171752168253394,1.365
0.002169234026819372,1.366
0.0021668684060633936,1.367
0.002164671363586382,1.368
0.002162657765595569,1.369
0.002160841004230854,1.37
0.0021592327184810868,1.371
0.0021578425938712184,1.372
0.0021566782757980554,1.373
0.002155745397075784,1.374
0.002155047720921736,1.375
0.0021545873799585975,1.376
0.002154365163062101,1.377
0.002154380808068298,1.378
0.0021546332769977468,1.379
0.002155120999648787,1.38
0.0021558420678401383,1.381
0.002156794346129646,1.382
0.0021579754454345173,1.383
0.002159382500591844,1.384
0.0021610117528719805,1.385
0.0021628581382711082,1.386
0.002164915236842764,1.387
0.002167175685114863,1.388
0.002169631727164381,1.389
0.0021722755305411384,1.39
0.0021750991206739992,1.391
0.002178093951623411,1.392
0.0021812503098480574,1.393
0.0021845569529837963,1.394
0.002188001196430897,1.395
0.002191569153223854,1.396
0.002195245735437481,1.397
0.0021990144684102134,1.398
0.0022028575907617814,1.399
0.002206756772336376,1.4
0.00221069423482953,1.401
0.0022146538100783642,1.402
0.002218621586914279,1.403
0.0022225859216212715,1.404
0.002226536708310886,1.405
0.0022304641796092217,1.406
0.00223435810694266,1.407
0.002238208163398755,1.408
0.0022420051584275302,1.409
0.0022457422551379496,1.41
0.002249415638227627,1.411
0.0022530245352665144,1.412
0.002256570655844872,1.413
0.002260057177138956,1.414
0.0022634875024193537,1.415
0.0022668642394825323,1.416
0.0022701888937220545,1.417
0.002273462268582712,1.418
0.0022766850376302007,1.419
0.002279858067170715,1.42
0.002282982460249958,1.421
0.0022860594542843757,1.422
0.0022890902973463547,1.423
0.0022920761835675076,1.424
0.0022950182717553867,1.425
0.0022979177597551807,1.426
0.002300775949236219,1.427
0.0023035942202639026,1.428
0.002306373848038941,1.429
0.002309115629215181,1.43
0.002311819358587028,1.431
0.002314483368788091,1.432
0.002317104475313419,1.433
0.002319678450142186,1.434
0.00232220077731486,1.435
0.0023246673915291167,1.436
0.002327075261278471,1.437
0.0023294227603987317,1.438
0.002331709800561984,1.439
0.002333937733352321,1.44
0.0023361090564179513,1.441
0.0023382269611965287,1.442
0.0023402947440469717,1.443
0.0023423150978955035,1.444
0.0023442894402931898,1.445
0.0023462176668392148,1.446
0.0023480985522458774,1.447
0.0023499305020133407,1.448
0.0023517122125467195,1.449
0.0023534430306122933,1.45
0.002355122957383736,1.451
0.0023567523032521406,1.452
0.0023583310593766667,1.453
0.0023598581608478184,1.454
0.0023613309732553774,1.455
0.002362745239322298,1.456
0.0023640953079910806,1.457
0.0023653742496448807,1.458
0.0023665736988602777,1.459
0.002367683678285609,1.46
0.0023686928106133797,1.461
0.00236958900600336,1.462
0.0023703603206638446,1.463
0.0023709956491378224,1.464
0.0023714850726460983,1.465
0.0023718198028063815,1.466
0.0023719917425908807,1.467
0.002371992753644309,1.468
0.002371813821125656,1.469
0.002371444473945309,1.47
0.002370872778606283,1.471
0.0023700858505376794,1.472
0.0023690705765733156,1.473
0.002367814353901288,1.474
0.0023663057925454602,1.475
0.0023645353183065435,1.476
0.0023624955559159683,1.477
0.0023601813471068036,1.478
0.002357589283903628,1.479
0.002354716732677241,1.48
0.002351560702142873,1.481
0.0023481174315094825,1.482
0.002344383228643861,1.483
0.0023403559920760035,1.484
0.002336036527786177,1.485
0.002331429241705516,1.486
0.0023265420955746277,1.487
0.002321385814106273,1.488
0.0023159725011745167,1.489
0.002310314263210074,1.49
0.002304422802778426,1.491
0.002298310301871911,1.492
0.002291990788549501,1.493
0.0022854810598375653,1.494
0.002278800843558348,1.495
0.0022719722387556946,1.496
0.002265018590849078,1.497
0.0022579631672453647,1.498
0.0022508282798436386,1.499
0.0022436352601402027,1.5
0.0022364049114041665,1.501
0.002229157766298008,1.502
0.0022219138754988156,1.503
0.0022146922815760284,1.504
0.0022075105654928073,1.505
0.002200384764345932,1.506
0.0021933295406768895,1.507
0.002186358247978808,1.508
0.0021794827635843233,1.509
0.002172713314938224,1.51
0.0021660585534749137,1.511
0.0021595258128143,1.512
0.0021531212898701544,1.513
0.0021468500017009363,1.514
0.0021407155578114967,1.515
0.002134719938006449,1.516
0.002128863511386603,1.517
0.002123145348412885,1.518
0.0021175636484341166,1.519
0.0021121160846103108,1.52
0.002106799960448394,1.521
0.002101612120481342,1.522
0.002096548612081261,1.523
0.00209160430285673,1.524
0.0020867729010210752,1.525
0.002082047639841891,1.526
0.0020774223802395154,1.527
0.00207289271266793,1.528
0.002068456795008158,1.529
0.0020641157784637835,1.53
0.002059873747411179,1.531
0.0020557371969532534,1.532
0.0020517141556851757,1.533
0.00204781310099516,1.534
0.002044041919881423,1.535
0.0020404073539232754,1.536
0.00203691518173809,1.537
0.002033570844790764,1.538
0.0020303800561772114,1.539
0.002027349187972695,1.54
0.002024485407865704,1.541
0.00202179659104742,1.542
0.002019291086496588,1.543
0.0020169774504159355,1.544
0.0020148642486776205,1.545
0.0020129599769506596,1.546
0.0020112730761976333,1.547
0.002009811967058335,1.548
0.002008585019209262,1.549
0.002007600415361746,1.55
0.002006865932625185,1.551
0.0020063887001770114,1.552
0.002006174978844944,1.553
0.0020062299630510816,1.554
0.0020065575670330828,1.555
0.002007160194107222,1.556
0.0020080386084305917,1.557
0.002009192034806558,1.558
0.0020106184286828896,1.559
0.002012314750757408,1.56
0.0020142771542464286,1.561
0.002016501080938072,1.562
0.0020189812913503696,1.563
0.0020217118568453415,1.564
0.0020246861393437023,1.565
0.002027896786470349,1.566
0.0020313357742423404,1.567
0.0020349945264383934,1.568
0.002038864122261515,1.569
0.002042935571617837,1.57
0.0020472000978428756,1.571
0.002051649334920238,1.572
0.002056275336879147,1.573
0.0020610703218800625,1.574
0.002066026139703223,1.575
0.002071133659464018,1.576
0.002076382541210133,1.577
0.0020817616592695752,1.578
0.0020872598684798325,1.579
0.0020928666396127105,1.58
0.002098572337084288,1.581
0.0021043680770015134,1.582
0.002110245175284074,1.583
0.0021161943712450213,1.584
0.00212220528188605,1.585
0.002128266466279304,1.586
0.0021343659477944185,1.587
0.0021404917522440895,1.588
0.002146632224220854,1.589
0.0021527761126030128,1.59
0.0021589124660065296,1.591
0.0021650303593306088,1.592
0.002171118449152183,1.593
0.002177164426629373,1.594
0.002183154661122788,1.595
0.002189074376464688,1.596
0.002194908324675661,1.597
0.0022006415730902716,1.598
0.002206260072852538,1.599
0.0022117508853841945,1.6
0.0022171020870594984,1.601
0.002222302465086162,1.602
0.002227341165839656,1.603
0.002232207443920548,1.604
0.002236890591235414,1.605
0.0022413800276962804,1.606
0.0022456654490286094,1.607
0.00224973688549677,1.608
0.002253584537978002,1.609
0.0022571983131329312,1.61
0.0022605671811585936,1.611
0.002263678829526486,1.612
0.002266520046317693,1.613
0.002269077698372057,1.614
0.0022713398489511163,1.615
0.0022732967136326267,1.616
0.00227494131479597,1.617
0.0022762697529308488,1.618
0.0022772810784777854,1.619
0.002277976822712303,1.62
0.0022783602990274167,1.621
0.002278435800330093,1.622
0.002278207800516843,1.623
0.0022776802381818512,1.624
0.002276855936490984,1.625
0.0022757361962159033,1.626
0.002274320574803217,1.627
0.002272606820490325,1.628
0.0022705908752631778,1.629
0.002268266850958073,1.63
0.0022656270169310985,1.631
0.0022626620293227915,1.632
0.002259361582907213,1.633
0.002255715401907564,1.634
0.0022517143470157474,1.635
0.002247351443344125,1.636
0.0022426226672632816,1.637
0.002237527353957355,1.638
0.0022320681352668357,1.639
0.002226250386864987,1.64
0.0022200812388012067,1.641
0.002213568322933219,1.642
0.002206718710984882,1.643
0.0021995386669751735,1.644
0.0021920343549715897,1.645
0.002184212946781866,1.646
0.0021760835443809406,1.647
0.0021676577032240206,1.648
0.0021589495309579532,1.649
0.0021499753921573575,1.65
0.002140753298453642,1.651
0.0021313020846105853,1.652
0.00212164047334606,1.653
0.0021117862483909086,1.654
0.0021017559392631927,1.655
0.002091565197051885,1.656
0.002081229508176172,1.657
0.0020707647915083186,1.658
0.0020601877076123275,1.659
0.002049515689630053,1.66
0.002038766768341283,1.661
0.0020279592965708314,1.662
0.002017111667694501,1.663
0.0020062420817243657,1.664
0.001995368362577453,1.665
0.0019845077879297136,1.666
0.001973676867528133,1.667
0.001962891040058349,1.668
0.001952164421774333,1.669
0.0019415098816808845,1.67
0.0019309395442799727,1.671
0.0019204655007446884,1.672
0.0019101004504967778,1.673
0.001899858129239374,1.674
0.0018897534677770427,1.675
0.0018798024688946677,1.676
0.001870021832715634,1.677
0.001860428402672266,1.678
0.0018510385388470776,1.679
0.0018418675420172842,1.68
0.0018329292358604718,1.681
0.001824235761492286,1.682
0.0018157975706644665,1.683
0.0018076235487710522,1.684
0.0017997211662122512,1.685
0.001792096559734437,1.686
0.0017847544913037504,1.687
0.0017776982211302245,1.688
0.0017709294079668377,1.689
0.0017644480913193606,1.69
0.0017582527124653047,1.691
0.0017523401886823582,1.692
0.0017467061019614957,1.693
0.0017413449562995104,1.694
0.0017362503848713231,1.695
0.0017314152174224898,1.696
0.0017268313630188481,1.697
0.0017224896004431388,1.698
0.0017183795933140794,1.699
0.0017144903875868946,1.7
0.0017108112705161657,1.701
0.0017073326821641082,1.702
0.0017040469588390273,1.703
0.0017009487771867484,1.704
0.0016980352305804765,1.705
0.0016953055458235114,1.706
0.001692760507331815,1.707
0.0016904016808480013,1.708
0.0016882305651585382,1.709
0.001686247928450292,1.71
0.001684453639905615,1.711
0.0016828470164084212,1.712
0.0016814273571362712,1.713
0.0016801943757199444,1.714
0.0016791484589349756,1.715
0.001678290768263242,1.716
0.001677623203499731,1.717
0.0016771482539563408,1.718
0.001676868779931051,1.719
0.0016767877868954734,1.72
0.0016769082600166314,1.721
0.0016772331040688761,1.722
0.0016777651844836416,1.723
0.0016785074061824177,1.724
0.0016794627242227049,1.725
0.0016806339779822628,1.726
0.0016820235195452277,1.727
0.0016836328189565911,1.728
0.001685462388100423,1.729
0.0016875121342655392,1.73
0.0016897818654952536,1.731
0.0016922716388344775,1.732
0.0016949818547931884,1.733
0.0016979131243645175,1.734
0.0017010659707575417,1.735
0.0017044404411577516,1.736
0.0017080356996970055,1.737
0.0017118496705711033,1.738
0.0017158787940948783,1.739
0.0017201179221163103,1.74
0.0017245603497489728,1.741
0.0017291979676812418,1.742
0.0017340214664083521,1.743
0.0017390204749239326,1.744
0.0017441835391351628,1.745
0.0017494979634391718,1.746
0.001754949723527366,1.747
0.001760523665951643,1.748
0.001766203971210108,1.749
0.0017719747086728187,1.75
0.0017778203575436896,1.751
0.001783726211730904,1.752
0.0017896785834294246,1.753
0.0017956647248100928,1.754
0.00180167241391712,1.755
0.0018076892841576277,1.756
0.001813702273278434,1.757
0.0018196976420901026,1.758
0.001825661534977163,1.759
0.0018315805897651729,1.76
0.0018374421970066548,1.761
0.001843234319757033,1.762
0.0018489449446372269,1.763
0.0018545613885552058,1.764
0.0018600699001062755,1.765
0.0018654558412999197,1.766
0.0018707042063200122,1.767
0.001875800029231644,1.768
0.0018807284413643057,1.769
0.0018854743356558948,1.77
0.0018900218628755006,1.771
0.0018943543300600748,1.772
0.0018984548703967464,1.773
0.001902307574133105,1.774
0.0019058985320948825,1.775
0.0019092164842886075,1.776
0.0019122529403625362,1.777
0.001915001722789758,1.778
0.0019174579884896896,1.779
0.0019196170357709977,1.78
0.00192147357853133,1.781
0.0019230220006983163,1.782
0.0019242573186938057,1.783
0.0019251762369087843,1.784
0.0019257779894782457,1.785
0.0019260649093181387,1.786
0.0019260426879707485,1.787
0.0019257202786547112,1.788
0.0019251094159187922,1.789
0.0019242237820551566,1.79
0.001923077921403902,1.791
0.0019216861345414662,1.792
0.0019200617523521123,1.793
0.0019182170463702844,1.794
0.0019161635609082702,1.795
0.0019139124713841533,1.796
0.0019114748092548708,1.797
0.0019088615875350436,1.798
0.0019060838722234944,1.799
0.001903152810612829,1.8
0.0019000796140699813,1.801
0.0018968755036473574,1.802
0.0018935516417061006,1.803
0.001890119069479843,1.804
0.001886588647135571,1.805
0.001882970970415826,1.806
0.0018792762401539016,1.807
0.001875514086994496,1.808
0.001871693375537103,1.809
0.0018678220059094133,1.81
0.001863906703631013,1.811
0.0018599528051390453,1.812
0.0018559641447016466,1.813
0.001851943174404061,1.814
0.0018478912959901431,1.815
0.0018438092521079223,1.816
0.001839697451392762,1.817
0.0018355561727332605,1.818
0.0018313856289735283,1.819
0.0018271858818785548,1.82
0.0018229565988550404,1.821
0.0018186966780434333,1.822
0.0018144039279421988,1.823
0.0018100751131345976,1.824
0.0018057064602568734,1.825
0.0018012943631816854,1.826
0.0017968359787125978,1.827
0.0017923295652595994,1.828
0.0017877745092429488,1.829
0.0017831710100833277,1.83
0.0017785194499290275,1.831
0.0017738197202964066,1.832
0.0017690710874110303,1.833
0.0017642729221665464,1.834
0.0017594259342073547,1.835
0.0017545333444122,1.836
0.0017496016848448802,1.837
0.0017446410917487574,1.838
0.0017396650562636203,1.839
0.0017346897148457,1.84
0.0017297328478569512,1.841
0.001724812781149407,1.842
0.0017199474071775878,1.843
0.0017151535838701942,1.844
0.0017104470308911537,1.845
0.0017058425317265954,1.846
0.0017013541615044478,1.847
0.001696995437963732,1.848
0.001692779419344801,1.849
0.0016887187756414966,1.85
0.001684825837663098,1.851
0.0016811126176468582,1.852
0.0016775907947964707,1.853
0.0016742716668726382,1.854
0.0016711660840230287,1.855
0.0016682844012807338,1.856
0.00166563650395519,1.857
0.001663231959786109,1.858
0.0016610803183000793,1.859
0.0016591915155411275,1.86
0.0016575762795589207,1.861
0.0016562464027381708,1.862
0.00165521476813319,1.863
0.0016544950798340011,1.864
0.0016541013255897915,1.865
0.0016540471090978391,1.866
0.0016543451337246065,1.867
0.0016550070866249182,1.868
0.0016560438505070286,1.869
0.0016574657401892318,1.87
0.0016592825760542776,1.871
0.0016615036028942193,1.872
0.0016641373381945195,1.873
0.0016671914412180325,1.874
0.0016706726764745485,1.875
0.0016745870061095729,1.876
0.001678939801442846,1.877
0.0016837361296508627,1.878
0.0016889810525844322,1.879
0.0016946798719047922,1.88
0.0017008382689190967,1.881
0.0017074623148845647,1.882
0.001714558358151105,1.883
0.0017221328161986546,1.884
0.001730191905637516,1.885
0.0017387413345250776,1.886
0.0017477859699419824,1.887
0.0017573295141764715,1.888
0.00176737429401857,1.889
0.0017779212786948005,1.89
0.001788970311962328,1.891
0.0018005204321096702,1.892
0.0018125701776785207,1.893
0.00182511783081002,1.894
0.0018381615591048027,1.895
0.0018516994149030013,1.896
0.0018657291650372352,1.897
0.001880247954371709,1.898
0.001895251881514285,1.899
0.001910735684759391,1.9
0.001926692718310318,1.901
0.0019431151627651976,1.902
0.001959994246414708,1.903
0.0019773203158473278,1.904
0.001995082703772749,1.905
0.0020132694568672192,1.906
0.0020318671726483523,1.907
0.002050861196280344,1.908
0.002070236123178536,1.909
0.002089976339180383,1.91
0.0021100663925306745,1.911
0.002130491102974562,1.912
0.0021512353706970833,1.913
0.0021722836961245314,1.914
0.0021936195577903638,1.915
0.00221522500959404,1.916
0.0022370807672987053,1.917
0.0022591666074891223,1.918
0.002281461707771226,1.919
0.002303944761102386,1.92
0.002326593900956422,1.921
0.0023493865492366147,1.922
0.0023722993147064476,1.923
0.002395308046013516,1.924
0.0024183880905360115,1.925
0.002441514741500435,1.926
0.0024646637841934335,1.927
0.0024878119941694047,1.928
0.002510937416877964,1.929
0.002534019285832263,1.93
0.0025570375132799488,1.931
0.002579971813273239,1.932
0.0026028007886929015,1.933
0.002625501572948205,1.934
0.002648050286929534,1.935
0.002670422886469213,1.936
0.0026925958643531315,1.937
0.0027145466205812626,1.938
0.0027362535152529836,1.939
0.0027576956759375456,1.94
0.002778852676380695,1.941
0.0027997042262271764,1.942
0.002820230003448118,1.943
0.002840409711550809,1.944
0.002860223351814249,1.945
0.0028796515929793874,1.946
0.002898676044507599,1.947
0.0029172792356152743,1.948
0.002935444178436684,1.949
0.0029531535170304207,1.95
0.002970388530811711,1.951
0.002987128609266981,1.952
0.0030033515985363212,1.953
0.003019034703286846,1.954
0.003034155442786385,1.955
0.0030486925116738487,1.956
0.003062626578422108,1.957
0.003075941029297743,1.958
0.003088622615937154,1.959
0.0031006619230437875,1.96
0.003112053554421222,1.961
0.003122795945805563,1.962
0.003132890751781339,1.963
0.003142341813629187,1.964
0.0031511537775439275,1.965
0.003159330629855322,1.966
0.0031668747833736408,1.967
0.0031737872521624684,1.968
0.0031800686761180347,1.969
0.0031857205024628413,1.97
0.003190745900383085,1.971
0.003195150323753764,1.972
0.003198941757579906,1.973
0.003202130721335103,1.974
0.003204730108974657,1.975
0.0032067549269166047,1.976
0.0032082219696457272,1.977
0.003209149464868359,1.978
0.0032095567187328936,1.979
0.003209463773622316,1.98
0.0032088910486922223,1.981
0.003207858887394369,1.982
0.0032063869178367214,1.983
0.003204493278077237,1.984
0.0032021941321114114,1.985
0.003199503987163273,1.986
0.003196436782261936,1.987
0.003193007251493816,1.988
0.0031892321533076996,1.989
0.00318513118927526,1.99
0.0031807275258261118,1.991
0.0031760478612107507,1.992
0.003171122006274835,1.993
0.0031659819801390845,1.994
0.0031606606675910922,1.995
0.0031551903318151743,1.996
0.003149601725749721,1.997
0.0031439243579978516,1.998
0.003138187490048519,1.999
0.0031324209729757624,2.0
0.003126655424760788,2.001
0.003120921675168335,2.002
0.003115249742539076,2.003
0.0031096680336478314,2.004
0.003104203374237911,2.005
0.0030988816684981383,2.006
0.003093728489959043,2.007
0.003088769208882452,2.008
0.0030840286738015926,2.009
0.0030795305978033923,2.01
0.003075296860353096,2.011
0.0030713470553812316,2.012
0.0030676985334654214,2.013
0.0030643667981690385,2.014
0.0030613658877602437,2.015
0.003058708512840822,2.016
0.0030564059230616066,2.017
0.0030544675800555,2.018
0.0030529007632457703,2.019
0.0030517102467153855,2.02
0.0030508981550301088,2.021
0.0030504640418880743,2.022
0.003050405160026584,2.023
0.0030507168356371157,2.024
0.003051392848913953,2.025
0.0030524257540273415,2.026
0.0030538071229968336,2.027
0.0030555277349693204,2.028
0.0030575777341161534,2.029
0.00305994675444123,2.03
0.0030626239879652972,2.031
0.0030655981734695643,2.032
0.003068857496756375,2.033
0.0030723893971917834,2.034
0.003076180259388487,2.035
0.0030802149464561977,2.036
0.0030844762741191124,2.037
0.003088944863012698,2.038
0.0030935997361548717,2.039
0.0030984194329894995,2.04
0.0031033831309770677,2.041
0.0031084714563224796,2.042
0.0031136668450233813,2.043
0.0031189534289735414,2.044
0.0031243165472726337,2.045
0.003129742078967614,2.046
0.0031352158263432362,2.047
0.0031407231327099834,2.048
0.0031462488074070274,2.049
0.0031517772896877097,2.05
0.003157292863493067,2.051
0.003162779689014145,2.052
0.003168221471232823,2.053
0.0031736007677929737,2.054
0.003178898283366154,2.055
0.003184092702317777,2.056
0.0031891612036461627,2.057
0.003194080192471662,2.058
0.003198825748464783,2.059
0.0032033736174799407,2.06
0.003207698752649361,2.061
0.0032117745760137954,2.062
0.0032155724270918175,2.063
0.003219061632933476,2.064
0.0032222100542690113,2.065
0.0032249845460065713,2.066
0.0032273509306012874,2.067
0.003229273519823361,2.068
0.0032307147494453,2.069
0.003231635644026828,2.07
0.003231997227992435,2.071
0.003231762388747433,2.072
0.003230897697329089,2.073
0.0032293748999924713,2.074
0.0032271718750742514,2.075
0.003224272892048293,2.076
0.00322066807844771,2.077
0.0032163520889152116,2.078
0.003211322073731726,2.079
0.003205575464412961,2.08
0.003199108793331226,2.081
0.003191918376205741,2.082
0.0031840021609721852,2.083
0.003175361503474859,2.084
0.0031660022965129928,2.085
0.003155935367880208,2.086
0.0031451761992420868,2.087
0.0031337441183628867,2.088
0.0031216611967095583,2.089
0.0031089511215629463,2.09
0.003095638291716222,2.091
0.0030817473017302754,2.092
0.003067302843026509,2.093
0.003052329900169381,2.094
0.003036854011879841,2.095
0.0030209013403903213,2.096
0.003004498359908662,2.097
0.0029876711093427735,2.098
0.0029704442497088665,2.099
0.0029528405418512687,2.1
0.0029348811469054976,2.101
0.002916586403347535,2.102
0.002897976514773291,2.103
0.0028790719460867627,2.104
0.0028598935691401058,2.105
0.0028404626516811845,2.106
0.0028208008015674075,2.107
0.002800929963984802,2.108
0.002780872520735232,2.109
0.0027606514747477193,2.11
0.002740290648305172,2.111
0.0027198147993566465,2.112
0.002699249566341005,2.113
0.002678621176845098,2.114
0.002657955891678626,2.115
0.00263727923423289,2.116
0.0026166152699106347,2.117
0.002595986383777568,2.118
0.002575413703361317,2.119
0.002554917775671707,2.12
0.0025345190510649867,2.121
0.0025142380200342124,2.122
0.0024940950206249666,2.123
0.0024741097907964907,2.124
0.0024543008839779364,2.125
0.00243468514436518,2.126
0.0024152774930528975,2.127
0.0023960910763928147,2.128
0.002377137502545296,2.129
0.002358426868735816,2.13
0.0023399676155327737,2.131
0.0023217666035487993,2.132
0.0023038297092448055,2.133
0.0022861627462846808,2.134
0.002268772319359097,2.135
0.002251666386592487,2.136
0.002234854444929477,2.137
0.0022183473071840016,2.138
0.002202156490042908,2.139
0.0021862933412648195,2.14
0.0021707682814311744,2.141
0.002155590646986084,2.142
0.0021407691982801335,2.143
0.0021263128286678422,2.144
0.002112231040777547,2.145
0.002098534077393931,2.146
0.0020852327510094155,2.147
0.002072338055227232,2.148
0.002059860673083209,2.149
0.0020478105189364266,2.15
0.0020361964384113685,2.151
0.0020250261234118733,2.152
0.002014306190128645,2.153
0.0020040422716669465,2.154
0.0019942389530863704,2.155
0.001984899538165841,2.156
0.001976025948713271,2.157
0.001967619046888177,2.158
0.001959679239706336,2.159
0.0019522069998827293,2.16
0.0019452030846039046,2.161
0.0019386683974754607,2.162
0.0019326035341377132,2.163
0.0019270081868275855,2.164
0.0019218807228944203,2.165
0.001917218125273236,2.166
0.001913016124575238,2.167
0.001909269245324046,2.168
0.0019059706853884065,2.169
0.0019031121163849201,2.17
0.0019006835430114444,2.171
0.001898673283881111,2.172
0.0018970679984532854,2.173
0.0018958527146452917,2.174
0.001895010976487499,2.175
0.0018945252190709257,2.176
0.001894377285380219,2.177
0.0018945488959716482,2.178
0.001895021914937603,2.179
0.0018957783163731697,2.18
0.0018967998208894864,2.181
0.0018980673532312036,2.182
0.0018995607660020283,2.183
0.0019012592026144057,2.184
0.0019031419467868817,2.185
0.0019051893355660893,2.186
0.0019073834624430649,2.187
0.0019097085431677733,2.188
0.0019121508842994865,2.189
0.0019146984799297574,2.19
0.0019173403554419417,2.191
0.0019200658397152716,2.192
0.0019228639446215964,2.193
0.0019257229565558852,2.194
0.0019286302285521073,2.195
0.0019315720525914962,2.196
0.0019345335017445387,2.197
0.0019374983675001494,2.198
0.0019404495270444837,2.199
0.0019433698798048747,2.2
0.0019462436140210806,2.201
0.0019490574417561524,2.202
0.0019518015301557023,2.203
0.001954469972455751,2.204
0.0019570607670587586,2.205
0.0019595753868068247,2.206
0.0019620180756038104,2.207
0.001964394998273232,2.208
0.00196671332246615,2.209
0.001968980267816673,2.21
0.001971202253999109,2.211
0.001973384507334444,2.212
0.0019755313564487043,2.213
0.001977646957314456,2.214
0.001979736056743834,2.215
0.001981804636575272,2.216
0.001983860393104696,2.217
0.0019859129950151816,2.218
0.001987974066421791,2.219
0.0019900568764602035,2.22
0.0019921757801328755,2.221
0.0019943455247848087,2.222
0.00199658058035675,2.223
0.0019988946445464307,2.224
0.002001300413891711,2.225
0.0020038096234049085,2.226
0.0020064332825546704,2.227
0.00200918200580548,2.228
0.0020120663478104864,2.229
0.002015097075995793,2.23
0.00201828532532311,2.231
0.0020216425891065363,2.232
0.0020251805255735536,2.233
0.0020289106053930895,2.234
0.0020328436681670355,2.235
0.0020369894671901563,2.236
0.0020413562835518008,2.237
0.0020459507266737446,2.238
0.002050777838645631,2.239
0.0020558415263777956,2.24
0.0020611452681728276,2.241
0.0020666930228171515,2.242
0.002072490226792634,2.243
0.002078544700778261,2.244
0.0020848672638541636,2.245
0.002091471892801686,2.246
0.0020983753517953667,2.247
0.0021055963315855944,2.248
0.0021131542481921464,2.249
0.0021210680269964062,2.25
0.0021293553634818153,2.251
0.002138032645730274,2.252
0.002147115123733307,2.253
0.002156616861761455,2.254
0.0021665504555476098,2.255
0.0021769267903968526,2.256
0.0021877550349889917,2.257
0.0021990427800537148,2.258
0.0022107961122566576,2.259
0.0022230195262607118,2.26
0.002235715733595034,2.261
0.002248885555534468,2.262
0.0022625280355691364,2.263
0.0022766406864200644,2.264
0.0022912197137054447,2.265
0.002306260159391633,2.266
0.002321755973321224,2.267
0.002337700028872371,2.268
0.0023540841074423963,2.269
0.0023708988969756662,2.27
0.002388134067296939,2.271
0.0024057784728816495,2.272
0.0024238204842890855,2.273
0.0024422483863462555,2.274
0.0024610507404286834,2.275
0.002480216611746319,2.276
0.0024997356058489295,2.277
0.0025195977174770697,2.278
0.0025397930408556425,2.279
0.0025603114032620717,2.28
0.0025811419607551424,2.281
0.002602272755196706,2.282
0.002623690244184947,2.283
0.002645378945486814,2.284
0.0026673214064617066,2.285
0.0026894984801053364,2.286
0.0027118896050689297,2.287
0.002734472808242537,2.288
0.00275722440833473,2.289
0.0027801186782834665,2.29
0.0028031277445233066,2.291
0.0028262216432407305,2.292
0.0028493682911674904,2.293
0.0028725335584459657,2.294
0.0028956818945703447,2.295
0.0029187775433158294,2.296
0.002941785974626559,2.297
0.0029646751763651013,2.298
0.0029874165731089953,2.299
0.003009985413989829,2.3
0.003032360544219521,2.301
0.003054523559665089,2.302
0.003076457440787243,2.303
0.00309814496534625,2.304
0.0031195675273058094,2.305
0.0031407049239884403,2.306
0.0031615359566020173,2.307
0.003182039188036994,2.308
0.0032021934472455564,2.309
0.0032219780598802196,2.31
0.003241372910362041,2.311
0.0032603584429196624,2.312
0.0032789156847059784,2.313
0.0032970263170309555,2.314
0.003314672748751693,2.315
0.003331838101716393,2.316
0.0033485060346061394,2.317
0.0033646603967138183,2.318
0.0033802847720682022,2.319
0.003395362008944503,2.32
0.0034098738185966418,2.321
0.0034238004759789557,2.322
0.003437120580800374,2.323
0.0034498107681495537,2.324
0.0034618453319665266,2.325
0.0034731960441037597,2.326
0.00348383261336232,2.327
0.003493723863476019,2.328
0.003502839281582182,2.329
0.0035111505390051315,2.33
0.0035186326976321958,2.331
0.0035252648959727267,2.332
0.0035310304052372007,2.333
0.003535916067385399,2.334
0.0035399112279951308,2.335
0.003543006316894904,2.336
0.0035451913002502683,2.337
0.003546454523994634,2.338
0.003546782658419268,2.339
0.0035461619163584066,2.34
0.0035445799633304267,2.341
0.003542027875095235,2.342
0.003538501810810449,2.343
0.003534004195438049,2.344
0.0035285442358179834,2.345
0.003522137663905916,2.346
0.003514805688495449,2.347
0.0035065732267169736,2.348
0.003497466666489975,2.349
0.003487511921633961,2.35
0.0034767339254873743,2.351
0.0034651578921921712,2.352
0.003452811371534235,2.353
0.003439726032751718,2.354
0.0034259387972172517,2.355
0.0034114922613198064,2.356
0.003396434401174728,2.357
0.0033808176174285752,2.358
0.0033646972604865783,2.359
0.0033481298437198497,2.36
0.003331171283096541,2.361
0.003313875725873294,2.362
0.0032962953781259896,2.363
0.003278481051687147,2.364
0.00326048276870879,2.365
0.003242350064022833,2.366
0.003224131999559294,2.367
0.0032058770158338366,2.368
0.00318763272973417,2.369
0.0031694457439502563,2.37
0.0031513614876799607,2.371
0.003133424076041939,2.372
0.0031156761592891517,2.373
0.0030981587318336134,2.374
0.0030809108861539897,2.375
0.0030639695253929047,2.376
0.003047369078312914,2.377
0.003031141270335505,2.378
0.0030153149817993665,2.379
0.002999916187243618,2.38
0.0029849679536815086,2.381
0.002970490480745124,2.382
0.002956501154706873,2.383
0.002943014585754076,2.384
0.002930042669501286,2.385
0.002917594782455114,2.386
0.0029056781514900172,2.387
0.002894298306085015,2.388
0.002883459475107365,2.389
0.0028731648110587103,2.39
0.0028634163548212294,2.391
0.0028542147073752776,2.392
0.0028455585738440393,2.393
0.0028374446187226367,2.394
0.0028298679201808467,2.395
0.0028228227938722457,2.396
0.002816303602475127,2.397
0.002810305373574989,2.398
0.002804824153243496,2.399
0.0027998570236228266,2.4
0.00279540173217047,2.401
0.002791455922914078,2.402
0.002788016186888822,2.403
0.0027850775550158267,2.404
0.0027826339115558218,2.405
0.002780679007406675,2.406
0.0027792074030184577,2.407
0.00277821499132674,2.408
0.0027776990462202293,2.409
0.0027776578554097836,2.41
0.0027780900525830048,2.411
0.0027789937656279434,2.412
0.0027803657668008645,2.413
0.0027822010215720304,2.414
0.0027844929690080027,2.415
0.0027872343621452218,2.416
0.0027904181889307615,2.417
0.002794038331696228,2.418
0.0027980898141394743,2.419
0.002802568579347374,2.42
0.0028074708146211646,2.421
0.0028127919976615443,2.422
0.0028185261462794933,2.423
0.0028246658041078624,2.424
0.0028312027524649884,2.425
0.0028381289279971844,2.426
0.002845437111408817,2.427
0.00285312124985553,2.428
0.002861176411248321,2.429
0.0028695984182931806,2.43
0.002878383245998228,2.431
0.0028875262808161243,2.432
0.002897021541294702,2.433
0.002906861023469099,2.434
0.002917034423639089,2.435
0.0029275293293571088,2.436
0.0029383316454675884,2.437
0.002949425983362874,2.438
0.002960795918752488,2.439
0.0029724241003315226,2.44
0.0029842921834733306,2.441
0.002996380559728098,2.442
0.003008667901299571,2.443
0.0030211307046942924,2.444
0.0030337431416333108,2.445
0.0030464772939724377,2.446
0.0030593034730597617,2.447
0.003072190288210954,2.448
0.0030851044124915674,2.449
0.003098010377637795,2.45
0.003110870892836327,2.451
0.003123647820758095,2.452
0.003136303486683563,2.453
0.003148801954174502,2.454
0.0031611100633052625,2.455
0.003173198113318598,2.456
0.0031850401048887393,2.457
0.003196613475519158,2.458
0.0032078982630766423,2.459
0.003218875674239251,2.46
0.0032295264985371082,2.461
0.0032398305670035244,2.462
0.003249768026824436,2.463
0.003259321665234818,2.464
0.0032684790305576726,2.465
0.0032772337581081314,2.466
0.003285585973745704,2.467
0.0032935418326978188,2.468
0.003301112407029493,2.469
0.003308312213061612,2.47
0.003315157656529328,2.471
0.003321665595185627,2.472
0.003327852121762943,2.473
0.0033337315941782274,2.474
0.0033393159203080995,2.475
0.0033446141347677825,2.476
0.0033496322807852505,2.477
0.0033543735138173466,2.478
0.0033588383364378444,2.479
0.0033630249814201336,2.48
0.0033669300220901892,2.481
0.0033705492488354987,2.482
0.0033738787652579003,2.483
0.0033769161706222843,2.484
0.0033796616294060585,2.485
0.0033821186018081054,2.486
0.0033842940337646945,2.487
0.003386197881709934,2.488
0.0033878419599020896,2.489
0.0033892383306115574,2.49
0.003390397924145288,2.491
0.0033913302462271495,2.492
0.0033920442346562192,2.493
0.003392549405502256,2.494
0.0033928565251259055,2.495
0.003392977643827551,2.496
0.0033929256364382625,2.497
0.0033927134772591006,2.498
0.003392353482243166,2.499
0.0033918566742437055,2.5
0.003391232292616533,2.501
0.003390487362208641,2.502
0.0033896263449188836,2.503
0.003388651168756584,2.504
0.0033875618516876005,2.505
0.003386357481819261,2.506
0.0033850371294628532,2.507
0.003383600445627254,2.508
0.00338204788234051,2.509
0.00338038057432618,2.51
0.0033785999726392464,2.511
0.003376707307566085,2.512
0.003374702906732312,2.513
0.00337258543592069,2.514
0.0033703514031738747,2.515
0.0033679954235491345,2.516
0.00336551133074513,2.517
0.003362893678388714,2.518
0.0033601390954775736,2.519
0.0033572471370642578,2.52
0.0033542203973124535,2.521
0.0033510637831744186,2.522
0.0033477830514808786,2.523
0.0033443831756187607,2.524
0.0033408676011822207,2.525
0.0033372388826435257,2.526
0.0033334999022351687,2.527
0.0033296546233549263,2.528
0.003325707984692509,2.529
0.0033216649952452523,2.53
0.0033175295650722516,2.531
0.0033133040713812833,2.532
0.0033089900692701377,2.533
0.0033045893238375134,2.534
0.003300104129746801,2.535
0.00329553667540111,2.536
0.0032908881390749504,2.537
0.0032861586736518756,2.538
0.003281348650274102,2.539
0.0032764602686356247,2.54
0.0032714985208064772,2.541
0.0032664711658111035,2.542
0.0032613877930508708,2.543
0.0032562583115146398,2.544
0.003251091660564113,2.545
0.0032458957059931506,2.546
0.0032406784687013606,2.547
0.003235449839849902,2.548
0.003230222920398631,2.549
0.0032250146288856007,2.55
0.003219845515636015,2.551
0.003214738875064175,2.552
0.00320971938000702,2.553
0.003204811532131906,2.554
0.003200038285839469,2.555
0.0031954202329338233,2.556
0.0031909754470962094,2.557
0.0031867196472292313,2.558
0.0031826663374286356,2.559
0.0031788268898506823,2.56
0.0031752106758851204,2.561
0.0031718253344234495,2.562
0.0031686772390342286,2.563
0.0031657721923452537,2.564
0.0031631163160931682,2.565
0.0031607170187354936,2.566
0.0031585838366191346,2.567
0.003156728906842043,2.568
0.003155166880102674,2.569
0.003153914215845283,2.57
0.0031529879625308128,2.571
0.0031524043641721505,2.572
0.00315217793126114,2.573
0.003152321438841421,2.574
0.003152846582641978,2.575
0.003153764659871167,2.576
0.00315508692658484,2.577
0.003156824587768764,2.578
0.003158988469452724,2.579
0.003161588459029868,2.58
0.0031646328327232603,2.581
0.003168127617003911,2.582
0.0031720761319022103,2.583
0.0031764787756634167,2.584
0.0031813330055842147,2.585
0.003186633491832616,2.586
0.0031923724632470928,2.587
0.003198540214102951,2.588
0.003205125717283412,2.589
0.003212117328553419,2.59
0.003219503573679764,2.591
0.003227273954890006,2.592
0.0032354196272221056,2.593
0.0032439337293792628,2.594
0.003252811155939085,2.595
0.003262047645469802,2.596
0.0032716384398029847,2.597
0.0032815774142833454,2.598
0.0032918574332885552,2.599
0.0033024715252640805,2.6
0.0033134139107162757,2.601
0.003324680449701433,2.602
0.0033362686342748673,2.603
0.003348177404346803,2.604
0.003360406999727054,2.605
0.003372958902328159,2.606
0.003385835766817345,2.607
0.0033990411620390265,2.608
0.0034125789748398754,2.609
0.0034264524380882076,2.61
0.0034406630340971154,2.611
0.0034552098835045294,2.612
0.00347008994594287,2.613
0.003485298569842517,2.614
0.0035008297904851396,2.615
0.0035166762512044616,2.616
0.003532828918324429,2.617
0.0035492768031665746,2.618
0.003566006836846777,2.619
0.0035830038925777448,2.62
0.0036002508020417734,2.621
0.003617728161700952,2.622
0.003635413940207497,2.623
0.003653283304113957,2.624
0.0036713089843163535,2.625
0.0036894618508387473,2.626
0.003707711097522101,2.627
0.0037260239089654396,2.628
0.003744365241680018,2.629
0.003762698534561422,2.63
0.0037809873794246926,2.631
0.003799197479435001,2.632
0.003817298302634333,2.633
0.0038352641379962595,2.634
0.0038530744005036395,2.635
0.0038707130919722935,2.636
0.0038881673659689284,2.637
0.003905425455647527,2.638
0.003922475080573621,2.639
0.00393930376282784,2.64
0.003955901108848051,2.641
0.003972261599408278,2.642
0.003988386533066625,2.643
0.004004284649882586,2.644
0.004019971516851604,2.645
0.0040354680228693665,2.646
0.004050798430710848,2.647
0.004065988360521533,2.648
0.0040810629171820845,2.649
0.004096045157282654,2.65
0.004110955294940437,2.651
0.004125810930342392,2.652
0.004140628027915886,2.653
0.004155422148105685,2.654
0.004170209669008925,2.655
0.0041850088796963145,2.656
0.0041998408159700795,2.657
0.00421472970632365,2.658
0.004229702926389138,2.659
0.004244790408378726,2.66
0.004260023505059426,2.661
0.004275433397983764,2.662
0.00429104953147737,2.663
0.004306899070107711,2.664
0.0043230078944905565,2.665
0.004339402393935072,2.666
0.004356110993980098,2.667
0.004373164924088036,2.668
0.0043905981113053615,2.669
0.0044084462530158165,2.67
0.004426745288095649,2.671
0.00444552966913967,2.672
0.004464831028158617,2.673
0.004484677684939743,2.674
0.004505094836381097,2.675
0.004526104882835007,2.676
0.004547727606437357,2.677
0.004569980268670746,2.678
0.004592877759590531,2.679
0.004616432864948972,2.68
0.004640656643311711,2.681
0.004665558834050997,2.682
0.004691148171714989,2.683
0.004717432489379978,2.684
0.004744418551104849,2.685
0.004772111624882733,2.686
0.004800514856688098,2.687
0.004829628527024449,2.688
0.004859449316431643,2.689
0.00488996979816982,2.69
0.004921178339190051,2.691
0.004953059362340233,2.692
0.0049855938118800016,2.693
0.005018759785005832,2.694
0.005052533375700551,2.695
0.005086889697183306,2.696
0.005121803901382658,2.697
0.005157251887621704,2.698
0.005193210350113304,2.699
0.005229655904613209,2.7
0.005266563541843218,2.701
0.0053039055556403,2.702
0.005341652022146708,2.703
0.005379772430293001,2.704
0.005418237187998197,2.705
0.0054570182702151976,2.706
0.005496088974918984,2.707
0.005535423007725376,2.708
0.005574993138467473,2.709
0.005614769691046041,2.71
0.005654719388171745,2.711
0.0056948052845804936,2.712
0.005734988005329769,2.713
0.0057752276999735825,2.714
0.00581548600174153,2.715
0.005855727589346773,2.716
0.005895921093300567,2.717
0.005936039138267478,2.718
0.005976057408261231,2.719
0.006015952749988942,2.72
0.006055700764078882,2.721
0.006095274154183615,2.722
0.006134643027025205,2.723
0.006173776792078936,2.724
0.006212646275054252,2.725
0.0062512251670051805,2.726
0.00628949071829151,2.727
0.006327423899259891,2.728
0.006365009286390659,2.729
0.0064022348292106495,2.73
0.006439091467371376,2.731
0.006475572398495938,2.732
0.006511671736546801,2.733
0.006547382519769335,2.734
0.006582694828305227,2.735
0.0066175954757725485,2.736
0.006652069801562224,2.737
0.006686104323834135,2.738
0.006719688719658323,2.739
0.006752816447107888,2.74
0.006785483913350534,2.741
0.00681768841076327,2.742
0.006849425456161643,2.743
0.00688068666833512,2.744
0.006911459142417365,2.745
0.006941726044380095,2.746
0.006971467281317969,2.747
0.007000659554642189,2.748
0.00702927585131993,2.749
0.007057284660447368,2.75
0.007084649140660225,2.751
0.007111326467433435,2.752
0.007137267742811943,2.753
0.007162418777333009,2.754
0.0071867216551486784,2.755
0.007210116747976983,2.756
0.0072325448029534,2.757
0.007253948648041873,2.758
0.007274274030769409,2.759
0.0072934692506923795,2.76
0.007311483504825978,2.761
0.007328264398785252,2.762
0.00734375603744039,2.763
0.007357899345995709,2.764
0.007370634779313054,2.765
0.007381906055732942,2.766
0.007391663583682346,2.767
0.007399866809574146,2.768
0.0074064848923114405,2.769
0.007411495270396013,2.77
0.007414880077685112,2.771
0.007416621627627003,2.772
0.007416700047369498,2.773
0.007415095104199874,2.774
0.007411790397452205,2.775
0.007406776813632517,2.776
0.007400053871805328,2.777
0.007391628815453571,2.778
0.007381513655366641,2.779
0.007369721146365283,2.78
0.007356262141537349,2.781
0.007341146555860276,2.782
0.007324387262495806,2.783
0.007306004274780885,2.784
0.007286027337394526,2.785
0.007264496322052436,2.786
0.007241459424657748,2.787
0.007216969518311084,2.788
0.007191079792632917,2.789
0.007163840993151507,2.79
0.007135301991751416,2.791
0.0071055127308115,2.792
0.007074527325116957,2.793
0.0070424061821608205,2.794
0.0070092170172873225,2.795
0.006975034856343964,2.796
0.006939941131901211,2.797
0.006904022016703136,2.798
0.006867366194262999,2.799
0.006830062282776525,2.8
0.0067921963205842635,2.801
0.006753850255125448,2.802
0.00671510230993419,2.803
0.006676028902988799,2.804
0.00663670691423909,2.805
0.006597215384718923,2.806
0.006557636265445426,2.807
0.006518054103212953,2.808
0.006478554734395481,2.809
0.0064392232237238944,2.81
0.0064001416329706575,2.811
0.00636138765557234,2.812
0.006323034629470261,2.813
0.006285152064603902,2.814
0.006247805609842922,2.815
0.006211056685115178,2.816
0.00617496287091957,2.817
0.006139579378123385,2.818
0.00610496069117145,2.819
0.006071161373709244,2.82
0.0060382356867379776,2.821
0.006006236219074944,2.822
0.005975212332767485,2.823
0.005945209641812056,2.824
0.005916270936650959,2.825
0.005888437618911432,2.826
0.0058617506070993445,2.827
0.0058362504624889806,2.828
0.005811976941315681,2.829
0.005788968270741689,2.83
0.005767260404466584,2.831
0.005746886379495169,2.832
0.00572787575383736,2.833
0.005710254026810597,2.834
0.005694042068149704,2.835
0.005679255886561589,2.836
0.005665907008316571,2.837
0.005654003218601465,2.838
0.0056435491768325845,2.839
0.005634546590066965,2.84
0.005626993833723367,2.841
0.005620885303585095,2.842
0.005616211282146708,2.843
0.0056129587944912206,2.844
0.005611112962635758,2.845
0.005610658079496207,2.846
0.005611578046088052,2.847
0.0056138561223964675,2.848
0.005617474043776238,2.849
0.005622410772408225,2.85
0.005628641630012369,2.851
0.00563613862949884,2.852
0.005644871978629906,2.853
0.005654811977874951,2.854
0.005665930670003686,2.855
0.005678202995300842,2.856
0.0056916073431402875,2.857
0.005706125396964918,2.858
0.0057217411894133164,2.859
0.0057384393554481775,2.86
0.00575620297571857,2.861
0.005775012189635567,2.862
0.005794844694309996,2.863
0.005815677849954362,2.864
0.005837491173575706,2.865
0.005860268282482201,2.866
0.005883997749503716,2.867
0.0059086724937863315,2.868
0.005934287623672523,2.869
0.005960837489411858,2.87
0.005988313783712157,2.871
0.006016705892616177,2.872
0.006046002473990389,2.873
0.006076192558825549,2.874
0.006107265639474205,2.875
0.00613921107427811,2.876
0.006172017257129095,2.877
0.00620567085759441,2.878
0.006240156225709706,2.879
0.0062754548990936925,2.88
0.006311545096345992,2.881
0.006348401105625443,2.882
0.006385992562487978,2.883
0.006424283793560357,2.884
0.006463233539414046,2.885
0.0065027951450902025,2.886
0.006542916951354737,2.887
0.00658354266788777,2.888
0.006624611797828416,2.889
0.006666060295842509,2.89
0.00670782157827565,2.891
0.006749827887443912,2.892
0.006792011905179671,2.893
0.006834308436578659,2.894
0.0068766559185647605,2.895
0.00691899743602479,2.896
0.006961280893838913,2.897
0.007003458053707401,2.898
0.007045482295477285,2.899
0.007087305715809655,2.9
0.007128877646083604,2.901
0.007170146528432201,2.902
0.0072110645807162135,2.903
0.007251593118222213,2.904
0.007291706893533902,2.905
0.007331396479209828,2.906
0.007370668100057288,2.907
0.007409540827985176,2.908
0.007448041577213787,2.909
0.007486199343539949,2.91
0.007524041588742271,2.911
0.007561594804680188,2.912
0.007598887808339421,2.913
0.007635954840797418,2.914
0.007672837081205405,2.915
0.007709582583507533,2.916
0.0077462449888062,2.917
0.0077828813972363005,2.918
0.007819549768415689,2.919
0.007856306202689466,2.92
0.007893202491156758,2.921
0.007930284409043795,2.922
0.007967591030488597,2.923
0.008005154743673304,2.924
0.008043001344283063,2.925
0.008081149958569478,2.926
0.008119612996118061,2.927
0.00815839643799407,2.928
0.008197500655591933,2.929
0.008236921761308042,2.93
0.008276653282440288,2.931
0.008316687803579763,2.932
0.008357018180578983,2.933
0.008397637976860982,2.934
0.008438540867254544,2.935
0.008479718864272139,2.936
0.008521159971983931,2.937
0.008562847312388508,2.938
0.00860476133688686,2.939
0.008646884097878955,2.94
0.008689203396112089,2.941
0.008731715441854629,2.942
0.008774425299258213,2.943
0.00881734471244955,2.944
0.008860487850046481,2.945
0.00890386739599974,2.946
0.00894749413208673,2.947
0.008991380315954783,2.948
0.009035543875094584,2.949
0.009080010685330023,2.95
0.009124814209606416,2.951
0.00916999289235158,2.952
0.009215586110392932,2.953
0.00926162996270485,2.954
0.00930815464507406,2.955
0.009355184216201498,2.956
0.009402737571488568,2.957
0.009450829023975938,2.958
0.009499468021371624,2.959
0.009548658241134331,2.96
0.009598396412167242,2.961
0.00964867135758791,2.962
0.009699463841671394,2.963
0.00975074736291686,2.964
0.009802489365960542,2.965
0.00985465214734481,2.966
0.00990719287240508,2.967
0.009960062675665512,2.968
0.010013206131981775,2.969
0.010066562844935461,2.97
0.010120071215330163,2.971
0.010173672742440487,2.972
0.01022731515358526,2.973
0.010280953248441914,2.974
0.01033454682887569,2.975
0.010388056406266577,2.976
0.010441439897966157,2.977
0.010494653762120361,2.978
0.01054765800176893,2.979
0.01060042125322279,2.98
0.010652923100104225,2.981
0.010705152844654084,2.982
0.010757105054583905,2.983
0.01080877367524235,2.984
0.010860148567490277,2.985
0.010911216910429086,2.986
0.010961967065271763,2.987
0.011012390890752403,2.988
0.011062482897096404,2.989
0.011112236809462345,2.99
0.011161641628549457,2.991
0.011210679920751074,2.992
0.011259328951901553,2.993
0.011307562375427566,2.994
0.011355350207997555,2.995
0.01140265704754308,2.996
0.011449440531384157,2.997
0.011495652168398976,2.998
0.011541240381517453,2.999
0.0115861537149022,3.0
0.01163034261745724,3.001
0.011673759335466345,3.002
0.011716355964754148,3.003
0.011758081220015414,3.004
0.011798877711345948,3.005
0.01183868218361465,3.006
0.0118774292959371,3.007
0.011915056962702,3.008
0.011951511032550488,3.009
0.01198674817163119,3.01
0.012020736457668659,3.011
0.012053453555248814,3.012
0.012084882726593593,3.013
0.012115007451088674,3.014
0.01214380666820679,3.015
0.012171253609575734,3.016
0.01219731923818684,3.017
0.01222197810297041,3.018
0.012245214039688795,3.019
0.012267024565366666,3.02
0.012287423335228819,3.021
0.012306440008888236,3.022
0.012324117074759633,3.023
0.01234050365760414,3.024
0.01235564833484387,3.025
0.012369595973330563,3.026
0.012382391672795845,3.027
0.012394088548064643,3.028
0.012404754291236938,3.029
0.012414474382353866,3.03
0.012423351700336963,3.031
0.012431502871067875,3.032
0.012439052193878737,3.033
0.012446124598056099,3.034
0.0124528400951165,3.035
0.01245931218927018,3.036
0.012465650121350702,3.037
0.012471962303571678,3.038
0.012478358808081904,3.039
0.012484952429471672,3.04
0.012491858496730499,3.041
0.01249919375592619,3.042
0.01250707479680013,3.043
0.012515616519239789,3.044
0.012524930931665956,3.045
0.012535126214297723,3.046
0.012546305682365668,3.047
0.01255856624127588,3.048
0.012571996430735574,3.049
0.012586675103016757,3.05
0.012602671768973282,3.051
0.01262004822725576,3.052
0.012638860233646356,3.053
0.012659158473941006,3.054
0.012680988730431058,3.055
0.012704391327075246,3.056
0.012729399974871741,3.057
0.012756040151570306,3.058
0.012784327484596314,3.059
0.01281426723627786,3.06
0.01284585555777132,3.061
0.01287908159729558,3.062
0.012913928814874546,3.063
0.0129503745195681,3.064
0.012988388443429378,3.065
0.013027933165481622,3.066
0.0130689681426033,3.067
0.013111455546775131,3.068
0.013155364883995687,3.069
0.013200674743842346,3.07
0.01324737121122829,3.071
0.013295443116315737,3.072
0.013344875989214357,3.073
0.013395649033087292,3.074
0.013447737715045382,3.075
0.01350111912345013,3.076
0.013555775814660274,3.077
0.013611696596903276,3.078
0.013668874477366989,3.079
0.01372730248502028,3.08
0.013786968707102968,3.081
0.013847852758605042,3.082
0.013909925359436016,3.083
0.013973150131898905,3.084
0.014037485132696705,3.085
0.014102882437266855,3.086
0.014169286104545906,3.087
0.014236631166813894,3.088
0.014304846138780303,3.089
0.014373858098115618,3.09
0.014443597203230072,3.091
0.014513998313447738,3.092
0.014584998712943569,3.093
0.014656533098257997,3.094
0.014728530355941832,3.095
0.014800916076856905,3.096
0.014873618932377444,3.097
0.014946575744987313,3.098
0.015019732014222638,3.099
0.015093037439114424,3.1
0.015166439163305062,3.101
0.015239878461653188,3.102
0.015313293490896177,3.103
0.015386623591217669,3.104
0.015459809427546272,3.105
0.015532788839562304,3.106
0.015605494113884625,3.107
0.015677855739222472,3.108
0.015749810602136167,3.109
0.01582130876523014,3.11
0.015892315351396236,3.111
0.015962806887692325,3.112
0.016032763608882915,3.113
0.016102162275971266,3.114
0.016170974726831322,3.115
0.016239172197377607,3.116
0.01630673017421836,3.117
0.016373629528884423,3.118
0.016439853451069065,3.119
0.016505381752100933,3.12
0.016570185078333775,3.121
0.016634221554653793,3.122
0.016697435992316722,3.123
0.016759760039069337,3.124
0.016821113855747468,3.125
0.016881411349081495,3.126
0.01694056842098925,3.127
0.01699851159952958,3.128
0.017055184621240692,3.129
0.017110551072805333,3.13
0.01716459179126213,3.131
0.017217297025804337,3.132
0.017268657022384705,3.133
0.017318658802348466,3.134
0.017367293138879195,3.135
0.017414566359540633,3.136
0.017460509464328054,3.137
0.017505181559899236,3.138
0.017548667580330867,3.139
0.017591071293012357,3.14
0.017632505248577263,3.141
0.017673080323828666,3.142
0.017712898894592044,3.143
0.017752054050397183,3.144
0.017790632353696493,3.145
0.017828715628403644,3.146
0.017866379652518794,3.147
0.017903690678608766,3.148
0.01794070288645271,3.149
0.01797745927018057,3.15
0.01801399489608847,3.151
0.01805033958688562,3.152
0.01808651834244384,3.153
0.018122549227746025,3.154
0.01815843984283543,3.155
0.01819418558381512,3.156
0.018229772334719722,3.157
0.018265182299670255,3.158
0.018300399713283753,3.159
0.01833541439668727,3.16
0.018370222379859785,3.161
0.018404823431464466,3.162
0.018439215924857765,3.163
0.018473390602875606,3.164
0.01850732629936732,3.165
0.018540989555009272,3.166
0.01857433615441448,3.167
0.018607311215021075,3.168
0.0186398477106814,3.169
0.018671866849984266,3.17
0.01870328239972929,3.171
0.01873400644491269,3.172
0.01876395251885073,3.173
0.018793033976656,3.174
0.018821158865738832,3.175
0.018848226904193372,3.176
0.01887413379003703,3.177
0.018898781279203188,3.178
0.018922087416960918,3.179
0.01894399299234592,3.18
0.018964462440449605,3.181
0.018983478497932475,3.182
0.019001031976518933,3.183
0.019017112322257185,3.184
0.019031706449099753,3.185
0.019044806659225845,3.186
0.01905642027912099,3.187
0.019066573951701436,3.188
0.019075310530647947,3.189
0.01908268005549843,3.19
0.019088729747949836,3.191
0.019093500094404386,3.192
0.019097029182395614,3.193
0.01909935992184477,3.194
0.019100544487380047,3.195
0.01910064462861537,3.196
0.019099728531566544,3.197
0.019097865057201815,3.198
0.019095116924017677,3.199
0.01909153623118115,3.2
0.019087165371273584,3.201
0.01908204223397628,3.202
0.019076205769251103,3.203
0.019069699257051334,3.204
0.019062570778316575,3.205
0.019054871387502136,3.206
0.019046651803070875,3.207
0.01903795839419228,3.208
0.01902882903601511,3.209
0.01901928928256921,3.21
0.019009349365272075,3.211
0.0189990026419672,3.212
0.01898822604808851,3.213
0.018976982650978698,3.214
0.01896522561515585,3.215
0.018952902060148297,3.216
0.018939954897412115,3.217
0.018926321303553255,3.218
0.018911929271708525,3.219
0.018896697366770267,3.22
0.01888054127460333,3.221
0.01886338453142419,3.222
0.018845168447209147,3.223
0.01882585830080855,3.224
0.01880544457073299,3.225
0.018783938945667194,3.226
0.018761365907016415,3.227
0.01873775212704571,3.228
0.01871311824976744,3.229
0.018687477678422517,3.23
0.018660841991389825,3.231
0.01863322798394878,3.232
0.018604662256986988,3.233
0.018575182187325186,3.234
0.018544833358547615,3.235
0.01851366388070872,3.236
0.01848171721488079,3.237
0.018449027362764246,3.238
0.01841561976946333,3.239
0.018381516535630915,3.24
0.018346741433390247,3.241
0.018311321564233943,3.242
0.018275284675584404,3.243
0.018238653581418515,3.244
0.018201442668468168,3.245
0.018163660897179246,3.246
0.01812531940828044,3.247
0.018086438103827377,3.248
0.018047047504833946,3.249
0.018007184988306328,3.25
0.017966887256630922,3.251
0.017926184378223787,3.252
0.017885100159064044,3.253
0.017843657321981857,3.254
0.01780188199733139,3.255
0.017759804075383454,3.256
0.01771745314249814,3.257
0.017674852699913726,3.258
0.017632018236589782,3.259
0.017588962147422435,3.26
0.017545701704393103,3.261
0.017502264544973146,3.262
0.01745868940532411,3.263
0.017415022167666102,3.264
0.017371308800397743,3.265
0.017327589345283705,3.266
0.017283897884527277,3.267
0.01724026898481764,3.268
0.017196746069653403,3.269
0.017153387274412273,3.27
0.017110266948331912,3.271
0.017067472412482586,3.272
0.017025096475313965,3.273
0.01698322852873709,3.274
0.016941949677170623,3.275
0.01690133433554136,3.276
0.016861453995835576,3.277
0.016822378301757684,3.278
0.016784173114762373,3.279
0.01674689770133998,3.28
0.01671060296787038,3.281
0.016675331410820275,3.282
0.016641117855081246,3.283
0.01660798912191827,3.284
0.016575962335509217,3.285
0.016545045276817567,3.286
0.01651524191003968,3.287
0.016486560755153364,3.288
0.016459021022830058,3.289
0.016432653395438812,3.29
0.016407494876636862,3.291
0.016383580622339074,3.292
0.016360939466459577,3.293
0.016339596705197114,3.294
0.01631957947001089,3.295
0.016300918615320376,3.296
0.016283645966407193,3.297
0.016267788862069393,3.298
0.016253364615841905,3.299
0.016240377111560275,3.3
0.0162288157260482,3.301
0.01621865504009171,3.302
0.016209854463307787,3.303
0.01620235806272712,3.304
0.01619609502682685,3.305
