VaMe,time
0.0002966896979119366,0.001
0.0009506618494756264,0.002
0.001633033581929991,0.003
0.002348596638107412,0.004
0.003065527793704411,0.005
0.0037311057964322055,0.006
0.004269029574649663,0.007
0.0045711733661098625,0.008
0.004511435954074159,0.009
0.003996444665178675,0.01
0.003037170770426099,0.011
0.0017733778978971954,0.012
0.0004203361281246747,0.013
-0.0008172389809359799,0.014
-0.0018154831899228731,0.015
-0.0025510876047815383,0.016
-0.0030664663480264903,0.017
-0.0034152633581224353,0.018
-0.0036133360537314793,0.019
-0.003615897529709757,0.02
-0.003347774342860041,0.021
-0.002763531867268344,0.022
-0.0018757828119519105,0.023
-0.0007467523344580392,0.024
0.0005064826543753784,0.025
0.0016890813111006464,0.026
0.0025478752941818657,0.027
0.002865363218303319,0.028
0.0025756029713,0.029
0.001804685491946152,0.03
0.0007991627331012097,0.031
-0.00018098136734296066,0.032
-0.0009187627875206061,0.033
-0.0012508379431768171,0.034
-0.001080331279236605,0.035
-0.00040210106461868023,0.036
0.0006943453231338212,0.037
0.002053848748647255,0.038
0.0034702177238579864,0.039
0.004679996162724154,0.04
0.005391039443764698,0.041
0.005355707553480828,0.042
0.004445717487610932,0.043
0.002704070891833112,0.044
0.00036918939876310985,0.045
-0.002145267022938629,0.046
-0.004337272711485922,0.047
-0.005762854651878258,0.048
-0.006180074905495257,0.049
-0.005603244883379045,0.05
-0.0042525486961789835,0.051
-0.0024652614046621908,0.052
-0.0006101059582734306,0.053
0.0009925826593317057,0.054
0.0021207866708040177,0.055
0.0026477056615846328,0.056
0.0025232414551279014,0.057
0.0017870559365233548,0.058
0.0006040900418916556,0.059
-0.0007248018359641517,0.06
-0.0018298232720013697,0.061
-0.002402954948689544,0.062
-0.002306430098483983,0.063
-0.0016086045671128498,0.064
-0.00056134611694151,0.065
0.0004641550063922618,0.066
0.001082592842504129,0.067
0.0010146855186874513,0.068
0.0001672335645995631,0.069
-0.0013496486865122268,0.07
-0.003243452353443963,0.071
-0.005083195597345019,0.072
-0.006376729967908002,0.073
-0.0066793265027312015,0.074
-0.005717454256141793,0.075
-0.0034973553186768286,0.076
-0.00033522449439945525,0.077
0.0032285939296664004,0.078
0.006574958161388962,0.079
0.009133017527701374,0.08
0.010489541903499553,0.081
0.010494963518148367,0.082
0.009312688377757948,0.083
0.0073565175863271265,0.084
0.005130176594809316,0.085
0.0030432860550148174,0.086
0.0012953047373829606,0.087
-0.00011317334486142694,0.088
-0.0012522131453750935,0.089
-0.002120187595364092,0.09
-0.0026095915262213274,0.091
-0.002601941001968265,0.092
-0.0021095089577578873,0.093
-0.0013484049935037728,0.094
-0.0006738309248509233,0.095
-0.0004212277846687754,0.096
-0.0007644334636675974,0.097
-0.001669353786395163,0.098
-0.002940414139315933,0.099
-0.004308821069605945,0.1
-0.005533324195147519,0.101
-0.006479949148812183,0.102
-0.007119322877984574,0.103
-0.007442302309536623,0.104
-0.007373029986295753,0.105
-0.006741495738721145,0.106
-0.005334313544570319,0.107
-0.003025494794646144,0.108
6.991141201331091e-05,0.109
0.0035429456672002755,0.11
0.0068031664715307374,0.111
0.009273668243859336,0.112
0.010553021458489792,0.113
0.010507840957671669,0.114
0.009271268471127823,0.115
0.00714425760914251,0.116
0.004482128550405351,0.117
0.0016402513993393096,0.118
-0.001026444885438732,0.119
-0.0031642065591083062,0.12
-0.0044637931104718,0.121
-0.004739089712732274,0.122
-0.004005272489059475,0.123
-0.002508908492054687,0.124
-0.0006739748922552379,0.125
0.001026088725827014,0.126
0.002211935886847408,0.127
0.0026906753647978196,0.128
0.0024746019362398668,0.129
0.0017373776283927276,0.13
0.0007226478812011572,0.131
-0.00035114869040397387,0.132
-0.0013276794421401392,0.133
-0.0020895174501888098,0.134
-0.0025390344242750764,0.135
-0.0026272732220847085,0.136
-0.002401592203912398,0.137
-0.0020002196216249825,0.138
-0.0015766035698311614,0.139
-0.00122140005252193,0.14
-0.0009378318722792154,0.141
-0.0006708869747732737,0.142
-0.00036791503833428563,0.143
-2.585453962070734e-05,0.144
0.0003095722300465256,0.145
0.0005787591205101287,0.146
0.0007452714331843058,0.147
0.0008034490198323703,0.148
0.0007506043653759448,0.149
0.0005732389731052972,0.15
0.00028187770581435654,0.151
-5.35982688726682e-05,0.152
-0.00032763779228471443,0.153
-0.0004604646140020909,0.154
-0.0004392731126626138,0.155
-0.0003167657141085067,0.156
-0.00017482327638829607,0.157
-7.558452218207231e-05,0.158
-2.837663420853001e-05,0.159
6.735549760094516e-06,0.16
8.449455573768677e-05,0.161
0.00023755299381861205,0.162
0.000455606242494754,0.163
0.0006864008662405,0.164
0.000870397305107669,0.165
0.000997977982066386,0.166
0.0011360586834889465,0.167
0.001398273845174329,0.168
0.001883941874394891,0.169
0.0026087716416318906,0.17
0.0034521068410510213,0.171
0.004161919162350827,0.172
0.004440592643970081,0.173
0.004078489164597963,0.174
0.00305386956463518,0.175
0.0015387961343855043,0.176
-0.00018295162571001596,0.177
-0.0018376474345269736,0.178
-0.003258413527941605,0.179
-0.004403289862963351,0.18
-0.005296335562506507,0.181
-0.005950155808774411,0.182
-0.006330339111784018,0.183
-0.006382871484643729,0.184
-0.006103188659282639,0.185
-0.005580036292727556,0.186
-0.004953839034398987,0.187
-0.004328138047398431,0.188
-0.0037154551383830176,0.189
-0.003023520148726167,0.19
-0.002068285903722673,0.191
-0.0006520133544069206,0.192
0.0013058259434428263,0.193
0.003691178547411431,0.194
0.006233317172648535,0.195
0.008603547511525821,0.196
0.010492342318279954,0.197
0.011635990901862587,0.198
0.011820139468704272,0.199
0.010916326784376132,0.2
0.008965209536458955,0.201
0.006231176722438177,0.202
0.003153895866202025,0.203
0.00021331415216374348,0.204
-0.0022152444077518266,0.205
-0.003946933134969233,0.206
-0.004994068033801649,0.207
-0.005522430304677251,0.208
-0.0057871957493603335,0.209
-0.006044917256257163,0.21
-0.00645059432586123,0.211
-0.006994417399838286,0.212
-0.007514954193728048,0.213
-0.007768820633535452,0.214
-0.007520452774389111,0.215
-0.006625787151529637,0.216
-0.005084417811454497,0.217
-0.0030412630236556887,0.218
-0.0007427732431303318,0.219
0.0015269169353895101,0.22
0.0035019287510564784,0.221
0.004970206197060322,0.222
0.005797445686604628,0.223
0.005954007477416539,0.224
0.00553574386033684,0.225
0.00474628250454636,0.226
0.0038359849697657514,0.227
0.003034757385123979,0.228
0.0025014249043807243,0.229
0.0022804172458794508,0.23
0.0022821941804033563,0.231
0.0023193677099495285,0.232
0.0021862480784306166,0.233
0.001748071681295567,0.234
0.000995668168211782,0.235
2.285659531547214e-05,0.236
-0.0010456667770786538,0.237
-0.0020980442992617576,0.238
-0.0030293245775695216,0.239
-0.003736068519732997,0.24
-0.004133630685849459,0.241
-0.0041672443501794805,0.242
-0.0038047967420886176,0.243
-0.003032918386522399,0.244
-0.0018768169896674237,0.245
-0.0004312577279580234,0.246
0.0011294925974454047,0.247
0.002579727305002504,0.248
0.003694282203647179,0.249
0.004303264968295842,0.25
0.004342303681763686,0.251
0.0038673151775039326,0.252
0.0030071034227965154,0.253
0.0019031166706715461,0.254
0.0006891026052249049,0.255
-0.000510012282735836,0.256
-0.0015860072227402487,0.257
-0.0024505813801160964,0.258
-0.0030249945362533074,0.259
-0.003245261410600825,0.26
-0.0031098430932648352,0.261
-0.0027173363716584604,0.262
-0.002235773677805671,0.263
-0.0018386492324465324,0.264
-0.0016588290796721275,0.265
-0.0017529037048313845,0.266
-0.0020635477968846748,0.267
-0.00241242985586071,0.268
-0.0025611817986689305,0.269
-0.002318705952177733,0.27
-0.0016216942070812963,0.271
-0.0005497157372964315,0.272
0.0007046837228542726,0.273
0.0018983368172929105,0.274
0.0028331992837256053,0.275
0.0034374291786593673,0.276
0.0037637046744038866,0.277
0.003916455412871741,0.278
0.003976403701347507,0.279
0.003966134475063592,0.28
0.003862033137680478,0.281
0.0036306843061088513,0.282
0.0032608551300896556,0.283
0.0027702430193286016,0.284
0.002186362863230331,0.285
0.0015198851536832926,0.286
0.0007611556647200645,0.287
-8.094758137861186e-05,0.288
-0.0009347100314899451,0.289
-0.0016665587633924392,0.29
-0.0021371404346193484,0.291
-0.0022871259176092903,0.292
-0.0021906842705099964,0.293
-0.0020296176621466097,0.294
-0.002013462969756162,0.295
-0.0022955547824508016,0.296
-0.002913689548829111,0.297
-0.003775715349744833,0.298
-0.004696809555942982,0.299
-0.005457120036422603,0.3
-0.005838358981919851,0.301
-0.005648760598377465,0.302
-0.00476233030294431,0.303
-0.0031578599951477887,0.304
-0.0009422818562608796,0.305
0.0016503305974001573,0.306
0.00429446509597456,0.307
0.00662257815881938,0.308
0.008271183869866687,0.309
0.008941347583765892,0.31
0.00847600403798672,0.311
0.006931193661782107,0.312
0.004614856987224816,0.313
0.0020429712794741155,0.314
-0.00021559816525956174,0.315
-0.0017381103633316757,0.316
-0.0023790815519902572,0.317
-0.0022768567493494335,0.318
-0.001758847035869213,0.319
-0.0012050536812087745,0.32
-0.0009297000821737689,0.321
-0.0011089205070253748,0.322
-0.0017398789448567072,0.323
-0.002637546549704241,0.324
-0.0034991914481884018,0.325
-0.004019472596237357,0.326
-0.003995047858522401,0.327
-0.003371943612843877,0.328
-0.0022380204842537355,0.329
-0.0007890048517774447,0.33
0.0007227724838128268,0.331
0.0020576693108870516,0.332
0.00305444706775323,0.333
0.0036517517379950374,0.334
0.0038516341432660653,0.335
0.0036693421813718064,0.336
0.0031158429665238147,0.337
0.0022211714304639983,0.338
0.0010777753409411202,0.339
-0.0001469068736503977,0.34
-0.001251301710259723,0.341
-0.002053978059858406,0.342
-0.00243050066102318,0.343
-0.002333244967087689,0.344
-0.0017964111950183215,0.345
-0.0009328859597138891,0.346
8.02736693342942e-05,0.347
0.0010356859397018443,0.348
0.001734781118228097,0.349
0.002024244533203724,0.35
0.001838751620813277,0.351
0.0012337851849613776,0.352
0.00037476151225002336,0.353
-0.0005219073548497214,0.354
-0.0012667634854334846,0.355
-0.0017474600307938663,0.356
-0.0019285649823839927,0.357
-0.0018352051271865008,0.358
-0.0015431586440244347,0.359
-0.0011545412427624434,0.36
-0.0007623276710847454,0.361
-0.0004321615511872965,0.362
-0.00020169988162123148,0.363
-8.03271875318358e-05,0.364
-5.051167120496664e-05,0.365
-8.138088736263445e-05,0.366
-0.0001536235853685449,0.367
-0.00027248675067283846,0.368
-0.0004431464820555225,0.369
-0.0006295643803528224,0.37
-0.0007431035728147488,0.371
-0.000669513028886503,0.372
-0.00031265281688467065,0.373
0.0003631717286756317,0.374
0.0013095027662472897,0.375
0.0024013119447083894,0.376
0.00346725131567445,0.377
0.004323544859757278,0.378
0.0047963945233579774,0.379
0.004741571070151484,0.38
0.004092647111393713,0.381
0.0029235543096376416,0.382
0.0014533510324709206,0.383
-4.149065538413918e-05,0.384
-0.0013540053396768547,0.385
-0.0024226292488693357,0.386
-0.0033089321474275954,0.387
-0.004107389188589136,0.388
-0.0048527478154471535,0.389
-0.005475214885952643,0.39
-0.005820640044036664,0.391
-0.005717654996413251,0.392
-0.005051411817149369,0.393
-0.0037990379592967934,0.394
-0.002023536314120837,0.395
0.00012690169302139606,0.396
0.002405078913442576,0.397
0.0044867304083380626,0.398
0.006043141414302018,0.399
0.006813317961517132,0.4
0.006650910350801341,0.401
0.005576491203235995,0.402
0.0038142140373286513,0.403
0.0017444741010578199,0.404
-0.00021057707937293543,0.405
-0.0016950975385868555,0.406
-0.0024945342277125954,0.407
-0.0025687162590976574,0.408
-0.002037049758341644,0.409
-0.0011420028086797597,0.41
-0.0002052262506825029,0.411
0.00044708494684773947,0.412
0.0005882562434883297,0.413
0.00017746052485897692,0.414
-0.0006130583539756337,0.415
-0.0014602876434725558,0.416
-0.0020383610044213203,0.417
-0.002160824852126498,0.418
-0.0018191100835375838,0.419
-0.001126036056496937,0.42
-0.0002555582208499255,0.421
0.000569951906945083,0.422
0.0010999259438635922,0.423
0.0011412340599789423,0.424
0.0006635138386385134,0.425
-0.00015959170777912225,0.426
-0.0010094004933360078,0.427
-0.0015566305986856172,0.428
-0.001590135921927941,0.429
-0.0010681872489299415,0.43
-9.785616365504185e-05,0.431
0.0011073045216163898,0.432
0.002264352707732984,0.433
0.0030722375224934684,0.434
0.0032988911290489165,0.435
0.002868541266294541,0.436
0.001880030155023223,0.437
0.0005453560842973619,0.438
-0.0008888512943899265,0.439
-0.002184201462362301,0.44
-0.0031257619123922055,0.441
-0.003553275467624564,0.442
-0.003416262364821337,0.443
-0.0028036069878835507,0.444
-0.0019153974377392404,0.445
-0.0009939569730289246,0.446
-0.0002382521490611638,0.447
0.0002746859171467298,0.448
0.0006198431800374272,0.449
0.0009733243718529594,0.45
0.0015040092560676737,0.451
0.0022768545372928686,0.452
0.0032161662952187677,0.453
0.0041237680056603375,0.454
0.004732991749897777,0.455
0.004794477499490869,0.456
0.004175360513203037,0.457
0.00292502494420295,0.458
0.0012762431372027876,0.459
-0.0004103111090273449,0.46
-0.001748963759634986,0.461
-0.0024718670403341167,0.462
-0.002548452041047792,0.463
-0.002187411327194561,0.464
-0.001713187084433878,0.465
-0.0014132937910261289,0.466
-0.0014439262862473835,0.467
-0.0018068976889250936,0.468
-0.002380395766529375,0.469
-0.002988659952176132,0.47
-0.0034760288192098743,0.471
-0.0037387293602782795,0.472
-0.0037155487635363283,0.473
-0.003380678277404303,0.474
-0.0027482031455479425,0.475
-0.0018620814625252102,0.476
-0.0007643754519765973,0.477
0.0005264844451621984,0.478
0.0019907904894248675,0.479
0.0035555778927661074,0.48
0.005071159355858631,0.481
0.00633016041401312,0.482
0.007111336939477926,0.483
0.0072366316070234995,0.484
0.006617383313170737,0.485
0.005275875018686433,0.486
0.0033605538325025856,0.487
0.0011441058247171924,0.488
-0.0010338592382258417,0.489
-0.0028702633642167558,0.49
-0.004187806376931769,0.491
-0.0049564912109418685,0.492
-0.005254561623180492,0.493
-0.005215206262569078,0.494
-0.004978885255696466,0.495
-0.004656379639556485,0.496
-0.004307709195714425,0.497
-0.003930238760011638,0.498
-0.0034635082901717665,0.499
-0.0028177910308302186,0.5
-0.0019094609962487926,0.501
-0.000700205949804721,0.502
0.0007558487914708611,0.503
0.0022959571609808783,0.504
0.0036975283163440563,0.505
0.0047585256728932745,0.506
0.005360091595008103,0.507
0.005492035626081858,0.508
0.005235945584342604,0.509
0.004714006480040273,0.51
0.00403884382156487,0.511
0.00329246941755488,0.512
0.0025203049040620497,0.513
0.0017326200175130952,0.514
0.0009242144823497616,0.515
9.287563869897426e-05,0.516
-0.0007599365855276221,0.517
-0.00162911793480821,0.518
-0.002500092019378663,0.519
-0.0033417931942023352,0.52
-0.004095400535105179,0.521
-0.0046711337443264035,0.522
-0.004973606016561923,0.523
-0.00493658902389645,0.524
-0.0045315171817513645,0.525
-0.003763154135461803,0.526
-0.0026781923082314757,0.527
-0.0013690475693779469,0.528
4.5964946249160105e-05,0.529
0.0014411708665904132,0.53
0.0026810915445886654,0.531
0.0036232397816359685,0.532
0.004146517532122575,0.533
0.004192770145185745,0.534
0.003788936191365356,0.535
0.003031452617516841,0.536
0.002070523310150986,0.537
0.0011116043582071122,0.538
0.0003743246522297898,0.539
-4.728103828235888e-06,0.54
-3.189299910328974e-05,0.541
0.00017692102728940147,0.542
0.0004671092151851249,0.543
0.0006937682313212205,0.544
0.0007506865603789394,0.545
0.0005898772450774308,0.546
0.00020972302927751516,0.547
-0.0003758249647629185,0.548
-0.001137359984903098,0.549
-0.002000345150069774,0.55
-0.0028268550017182498,0.551
-0.003435413633050453,0.552
-0.0036575691640612913,0.553
-0.0034089672867631503,0.554
-0.00273835597043112,0.555
-0.0018095374265845753,0.556
-0.0008161364785821512,0.557
0.00010168301693390488,0.558
0.0008730641250386254,0.559
0.0014557282572817745,0.56
0.0018031922143942956,0.561
0.0018743119224387246,0.562
0.0016667766989816404,0.563
0.0012415493611646045,0.564
0.0007141037469648602,0.565
0.00021280124921012805,0.566
-0.00016584937497174368,0.567
-0.00037539132653204607,0.568
-0.00041001899093186147,0.569
-0.000282579439711409,0.57
-3.968455252241453e-06,0.571
0.00042383374076514224,0.572
0.0010016199012297623,0.573
0.0017226389722637366,0.574
0.002551216634840206,0.575
0.0033891075711709093,0.576
0.00406382246756237,0.577
0.004366923741964951,0.578
0.004130258660957338,0.579
0.0033042259796107797,0.58
0.0019861936036495572,0.581
0.0003754281119967146,0.582
-0.0012969479337002286,0.583
-0.002817601126587784,0.584
-0.004027063543735459,0.585
-0.004832464000056649,0.586
-0.005187434969606657,0.587
-0.005084506674608093,0.588
-0.004578006886002008,0.589
-0.003787646029578112,0.59
-0.0028557233897911843,0.591
-0.001895474835109554,0.592
-0.0009784619807911778,0.593
-0.00015975789672612376,0.594
0.0004986181075826673,0.595
0.0009335175925204972,0.596
0.001108536459582512,0.597
0.0010323828307322062,0.598
0.0007546988246606391,0.599
0.00035154088398989757,0.6
-9.238736729280246e-05,0.601
-0.000496514306354708,0.602
-0.0007876732121909031,0.603
-0.0009031258171703541,0.604
-0.0007914944091461757,0.605
-0.0004060819231390879,0.606
0.0002860299920156568,0.607
0.0012588262443185318,0.608
0.0023813349649168787,0.609
0.0034318281942665686,0.61
0.004178057064367438,0.611
0.004459978203394008,0.612
0.004227389457555806,0.613
0.003544016209114582,0.614
0.00257492046524612,0.615
0.0015528770968136916,0.616
0.0007251725620094513,0.617
0.0002915410868814216,0.618
0.00033718661011636174,0.619
0.0007790904254366327,0.62
0.0013728788509382046,0.621
0.0018044586805603304,0.622
0.0018181937122146849,0.623
0.0012992424139258068,0.624
0.00027589306756023294,0.625
-0.0011228516354218046,0.626
-0.0027136114952110856,0.627
-0.004301156130166483,0.628
-0.005701902875951034,0.629
-0.006738275132223511,0.63
-0.00723969956195425,0.631
-0.007081232955023972,0.632
-0.006241568953675591,0.633
-0.004833700133093613,0.634
-0.0030805272722645573,0.635
-0.0012487702075533367,0.636
0.00042882865601982496,0.637
0.0018116483168692514,0.638
0.002864147571287476,0.639
0.0036188965292634837,0.64
0.004122368814169111,0.641
0.004406551959902984,0.642
0.00448778426179104,0.643
0.004377471847893849,0.644
0.0041037051965727225,0.645
0.0037347572550506932,0.646
0.0033731849540025874,0.647
0.0030952992839754787,0.648
0.0028759171079896944,0.649
0.002574944150221016,0.65
0.0019995557689429485,0.651
0.0009967067156266068,0.652
-0.00046162138578626947,0.653
-0.0022300581072950635,0.654
-0.00401989057831232,0.655
-0.005506744995256901,0.656
-0.006441240631909639,0.657
-0.006701176832993333,0.658
-0.0062853257819419275,0.659
-0.0052751587248505635,0.66
-0.0038021451020458933,0.661
-0.00204007487682229,0.662
-0.00019824331760035521,0.663
0.0015056479977220694,0.664
0.002875375792067531,0.665
0.003754779917443228,0.666
0.004055737848921151,0.667
0.003806978536104804,0.668
0.003177075420991226,0.669
0.0024206328513091523,0.67
0.001779263834590153,0.671
0.0014078190680612917,0.672
0.0013432938640424899,0.673
0.0014937923094839442,0.674
0.0016605356566841175,0.675
0.001628055871105566,0.676
0.001280277302638129,0.677
0.0006512895015054106,0.678
-0.00010962721768062004,0.679
-0.0008135266077314375,0.68
-0.001302743135298456,0.681
-0.0014925962562626735,0.682
-0.0013836980782838987,0.683
-0.0010540821803607084,0.684
-0.0006366981749472607,0.685
-0.0002879754218818124,0.686
-0.00014508065482026524,0.687
-0.0002728939850606062,0.688
-0.0006262918436634276,0.689
-0.0010589121299123614,0.69
-0.0013842797371370148,0.691
-0.0014560610768452702,0.692
-0.0012166136545119543,0.693
-0.0007001348060296311,0.694
-9.594046626339823e-06,0.695
0.0007303312876516126,0.696
0.0014267792038709071,0.697
0.0020283411851936576,0.698
0.0024859614303897144,0.699
0.0027138782857479525,0.7
0.0025930869506159827,0.701
0.0020266180622121053,0.702
0.0010098032717001271,0.703
-0.0003359723216962726,0.704
-0.001782894312083432,0.705
-0.00306010048037049,0.706
-0.003939130110193932,0.707
-0.004302427420584238,0.708
-0.004162018355933936,0.709
-0.00363180134316985,0.71
-0.002883021034652222,0.711
-0.002105346764274507,0.712
-0.0014724923576050054,0.713
-0.0010976400472907108,0.714
-0.0009786080411393902,0.715
-0.0009697356312392252,0.716
-0.0008229851884065311,0.717
-0.0002974134700431209,0.718
0.0007203179320868939,0.719
0.0021618650253408503,0.72
0.0038073454715765046,0.721
0.0053592381814835145,0.722
0.006532669361644686,0.723
0.007150015968729374,0.724
0.007193454690891858,0.725
0.006748409327819333,0.726
0.005880289065347019,0.727
0.004593593861790844,0.728
0.0029110183026281326,0.729
0.0009561495015075111,0.73
-0.001054664356358334,0.731
-0.0028904074008196273,0.732
-0.004375544255718696,0.733
-0.005413090401423435,0.734
-0.0059700560207069635,0.735
-0.0060478546833518405,0.736
-0.005666373909329814,0.737
-0.004881612884130608,0.738
-0.0038213462858268437,0.739
-0.0026905633624045473,0.74
-0.0017202454927302607,0.741
-0.0010830762367544957,0.742
-0.0008169396394294493,0.743
-0.0008077026731404002,0.744
-0.0008701181591469295,0.745
-0.000873075890761278,0.746
-0.0007974102349732685,0.747
-0.0006904494703942343,0.748
-0.0005715207562749125,0.749
-0.00037047525351103204,0.75
4.250374788284266e-05,0.751
0.0007609490007323584,0.752
0.001769654879562225,0.753
0.0029507907524372206,0.754
0.0041353457067934704,0.755
0.005138916533434772,0.756
0.005775781116026359,0.757
0.005878756335593376,0.758
0.00533786949388342,0.759
0.004153743890512289,0.76
0.0024772464733442993,0.761
0.0005924275820413414,0.762
-0.001163519051523997,0.763
-0.0024967152494715246,0.764
-0.0032340992517017873,0.765
-0.003374445648159786,0.766
-0.003079151105097791,0.767
-0.0025846205014324482,0.768
-0.002091422760965097,0.769
-0.0016987111121969589,0.77
-0.0014079101460197781,0.771
-0.0011731744325204209,0.772
-0.0009478285099003897,0.773
-0.0006978067075236314,0.774
-0.00039802371767575396,0.775
-3.5884459034962016e-05,0.776
0.00037858349322284727,0.777
0.0008170297077377667,0.778
0.0012542245954638358,0.779
0.0016727035436237315,0.78
0.0020352459935136223,0.781
0.002266425018534298,0.782
0.0022813320526468123,0.783
0.0020480231594974395,0.784
0.0016303310392065695,0.785
0.001157230136104694,0.786
0.0007377588524393916,0.787
0.0004028507021329909,0.788
0.00011003152636816405,0.789
-0.0002271732171796285,0.79
-0.0007058811897936143,0.791
-0.0013751368679341403,0.792
-0.0021809602997044644,0.793
-0.002974951851663078,0.794
-0.0035832017881014928,0.795
-0.003881614197618671,0.796
-0.003834757981953039,0.797
-0.003497571281617875,0.798
-0.002995927430430271,0.799
-0.0024881221158793965,0.8
-0.002104771635575546,0.801
-0.0018880102250784985,0.802
-0.001770157680766237,0.803
-0.0016070142393456485,0.804
-0.0012470098069044834,0.805
-0.0005944793792413828,0.806
0.00036833878453314966,0.807
0.0015944210090576346,0.808
0.002999415287395226,0.809
0.004472195457710806,0.81
0.00584618456508335,0.811
0.006881495626735581,0.812
0.0073140919670964,0.813
0.006954075859049727,0.814
0.00577606671113144,0.815
0.003943267608366565,0.816
0.0017538366018955637,0.817
-0.00043852652205262624,0.818
-0.0022916423299932727,0.819
-0.003537313654615673,0.82
-0.004042345711553915,0.821
-0.0038478086593005593,0.822
-0.003156465526172224,0.823
-0.0022498230991513327,0.824
-0.001369904186189194,0.825
-0.0006378411093194869,0.826
-5.5203799292235676e-05,0.827
0.00041405512047972156,0.828
0.0007429894193609636,0.829
0.0008262296355790046,0.83
0.0005763239332876062,0.831
1.9865465592713953e-05,0.832
-0.0006935374418488532,0.833
-0.0013306980047686193,0.834
-0.0016196121507978626,0.835
-0.0013095642215198377,0.836
-0.0002689277713932231,0.837
0.0013947155366971448,0.838
0.003284934497122407,0.839
0.004827091829690011,0.84
0.005500614859956886,0.841
0.00504228774480418,0.842
0.003509061633097508,0.843
0.0012115045743552463,0.844
-0.0014113704335896825,0.845
-0.003916623489469438,0.846
-0.0059488975571765626,0.847
-0.007281986954307339,0.848
-0.007819462318823432,0.849
-0.007592260801141777,0.85
-0.006754395371271509,0.851
-0.0055393630231369406,0.852
-0.004174972745017455,0.853
-0.0027932630092441365,0.854
-0.0013958785263609515,0.855
8.483395220425763e-05,0.856
0.0016784236640124577,0.857
0.0033075284004098816,0.858
0.004790762460020624,0.859
0.00589971471464721,0.86
0.006434682692682368,0.861
0.006293931439474693,0.862
0.005522354381591895,0.863
0.004315031672690595,0.864
0.0029616883293080076,0.865
0.0017601773482758217,0.866
0.0009348927816990119,0.867
0.0005868126459333543,0.868
0.0006945807060632433,0.869
0.0011429109455930848,0.87
0.001739952126400687,0.871
0.0022411515052516767,0.872
0.0024145005400992886,0.873
0.002111583155752706,0.874
0.0012858585756630033,0.875
-2.4711937676187948e-05,0.876
-0.0016956046465726633,0.877
-0.0035006635876580604,0.878
-0.005146436110646522,0.879
-0.00636501847977487,0.88
-0.006986894647705295,0.881
-0.006940136970173633,0.882
-0.006217876540816686,0.883
-0.004876668489362222,0.884
-0.0030692937981593353,0.885
-0.0010579873814486795,0.886
0.0008407449428930514,0.887
0.0023567539572924862,0.888
0.0033456765750570416,0.889
0.003804357229368462,0.89
0.0038258259988613497,0.891
0.003538775601708388,0.892
0.003067902239013201,0.893
0.0025184534521316415,0.894
0.0019773127467359567,0.895
0.0015047446419572332,0.896
0.0011108072240482683,0.897
0.0007612660845209699,0.898
0.00042007671611881753,0.899
7.572625994399841e-05,0.9
-0.00026118372523418836,0.901
-0.0005653018909387024,0.902
-0.0008104810818935477,0.903
-0.0009758097603543121,0.904
-0.0010210260321230477,0.905
-0.0008759729651826447,0.906
-0.0005006076930354628,0.907
2.596714392346585e-05,0.908
0.0004972727965600296,0.909
0.000685680816030086,0.91
0.0004736088818540444,0.911
-8.986014059077475e-05,0.912
-0.0008177942872621391,0.913
-0.0014547138899994403,0.914
-0.0017614209514531457,0.915
-0.0015954711396205315,0.916
-0.0009729288275470559,0.917
-0.00011332238362042847,0.918
0.000590226047773056,0.919
0.000731769184803066,0.92
0.00010478740780723477,0.921
-0.001173942779509079,0.922
-0.002690688589815432,0.923
-0.003880865726443006,0.924
-0.004230868216501077,0.925
-0.0034697709274691497,0.926
-0.0016730090648243443,0.927
0.0007869172453683099,0.928
0.0034085468229596754,0.929
0.005717179642710686,0.93
0.007327103780675722,0.931
0.007952329748308253,0.932
0.007444587879733284,0.933
0.005867539029581625,0.934
0.0035293413993054325,0.935
0.0009074071981729203,0.936
-0.001503999942229926,0.937
-0.0033344598392842204,0.938
-0.004400147188834026,0.939
-0.004683934169043825,0.94
-0.004271220455807944,0.941
-0.003286921280972032,0.942
-0.0018794510888338045,0.943
-0.0002506214059831871,0.944
0.0013419023463234641,0.945
0.0026376776573208307,0.946
0.0034333439541179784,0.947
0.0036275775811495377,0.948
0.0032478221098459934,0.949
0.0024293619226999643,0.95
0.0013455173137328774,0.951
0.00013967149317571076,0.952
-0.0011077894044714803,0.953
-0.0023836738528977617,0.954
-0.0037233822551334026,0.955
-0.005170771251800401,0.956
-0.006719597919585595,0.957
-0.008251766720813425,0.958
-0.00950481453019601,0.959
-0.010107699295906958,0.96
-0.009701626614209072,0.961
-0.008091420240239624,0.962
-0.005326321636194188,0.963
-0.0016694384363985806,0.964
0.0024791724234200316,0.965
0.006627274531198764,0.966
0.010221111298489877,0.967
0.012733230597686128,0.968
0.013799778226951947,0.969
0.013313713161636875,0.97
0.011420021405492817,0.971
0.008456844109572058,0.972
0.004908533547471958,0.973
0.0013695193885900334,0.974
-0.001551529774879473,0.975
-0.003402784955962686,0.976
-0.004019637869643016,0.977
-0.003523189270649708,0.978
-0.002240061570441401,0.979
-0.0006143461433854207,0.98
0.00088959478994255,0.981
0.0018792648187293999,0.982
0.002090015971038367,0.983
0.00143301963111611,0.984
4.3824577892086105e-05,0.985
-0.0017281844660341265,0.986
-0.003420491191105743,0.987
-0.004618013765235472,0.988
-0.005100199187649018,0.989
-0.004884228929805364,0.99
-0.004146426469459357,0.991
-0.0031095723578018963,0.992
-0.001982927101165104,0.993
-0.0009442781295651373,0.994
-0.0001185788600084911,0.995
0.0004408723270003068,0.996
0.0007525207324927193,0.997
0.0008881722231274162,0.998
0.000927422785905952,0.999
0.0008923037757909136,1.0
0.000711405482995526,1.001
0.0002673608910496239,1.002
-0.0004883281368003978,1.003
-0.001454564585194997,1.004
-0.002410098873790219,1.005
-0.0031102004035313195,1.006
-0.003360326017879399,1.007
-0.0030340464230892584,1.008
-0.0020716186579201527,1.009
-0.0005107361833781285,1.01
0.0014509241849705856,1.011
0.0034250747861987786,1.012
0.004910479841868523,1.013
0.005474235063931355,1.014
0.004927985982102572,1.015
0.003403695447042691,1.016
0.0013227489772587673,1.017
-0.000709388051044102,1.018
-0.002069743837207375,1.019
-0.002318974219112596,1.02
-0.001357812656092853,1.021
0.0005357378818469195,1.022
0.0028001525185753348,1.023
0.004768746916358374,1.024
0.005862671595502623,1.025
0.005744640944807775,1.026
0.004405854942477929,1.027
0.002166367000263227,1.028
-0.0004259160204943471,1.029
-0.002771079178282358,1.03
-0.004391743050731895,1.031
-0.00503750541304269,1.032
-0.004709221586638931,1.033
-0.0036342010485106986,1.034
-0.0021970952617359238,1.035
-0.0008119446590783203,1.036
0.00022021504463247784,1.037
0.0007749334137666113,1.038
0.000855732677350618,1.039
0.0005102619470823478,1.04
-0.00019991088079806575,1.041
-0.0011723619021975912,1.042
-0.002228970407195355,1.043
-0.003120228364502139,1.044
-0.00358630477293716,1.045
-0.0034418703551323047,1.046
-0.0026378515729218507,1.047
-0.001281029701222864,1.048
0.0003860780836235526,1.049
0.0020293789366785473,1.05
0.003292154081777355,1.051
0.0039021949297629198,1.052
0.003772634975949304,1.053
0.0030140877870832197,1.054
0.0018553970202082244,1.055
0.0005605383382860166,1.056
-0.0006075174671742586,1.057
-0.001414993249656807,1.058
-0.0017117987329953272,1.059
-0.001479384087999482,1.06
-0.0008306633312430948,1.061
3.408401435747431e-05,1.062
0.000886572724658321,1.063
0.0015230254219802588,1.064
0.0018072014751066379,1.065
0.0017002528459192639,1.066
0.0012541016055192763,1.067
0.000566988378984451,1.068
-0.0002585961084997609,1.069
-0.0011266523347335307,1.07
-0.0019395929553173955,1.071
-0.0025941976082692548,1.072
-0.0029845854912650418,1.073
-0.003004523989994878,1.074
-0.002562633784447596,1.075
-0.0016316510183871495,1.076
-0.0003003029066068608,1.077
0.0012312882549367192,1.078
0.002716430031002533,1.079
0.003939701001334603,1.08
0.004771067039317569,1.081
0.005183303214297153,1.082
0.005222285574439455,1.083
0.004950523407375489,1.084
0.004410985635441247,1.085
0.003616681306420606,1.086
0.0025490789476774376,1.087
0.0011827377083363402,1.088
-0.0004502756022276216,1.089
-0.0022090369160909524,1.09
-0.0038709727187134493,1.091
-0.00521690109020457,1.092
-0.00609671001268043,1.093
-0.0064393659045720005,1.094
-0.006235030728958364,1.095
-0.005523310459346003,1.096
-0.0043996485561074265,1.097
-0.0030369848963224134,1.098
-0.0016783905377974855,1.099
-0.0005625058835814707,1.1
0.00017552858960053085,1.101
0.0005545634733284865,1.102
0.0007158643157911235,1.103
0.0008301569783934313,1.104
0.0010025518599879064,1.105
0.001236218047069782,1.106
0.0014747254608458238,1.107
0.001668444552277462,1.108
0.0017919283372908037,1.109
0.0018124694009015235,1.11
0.001664142011701379,1.111
0.0012675830102736828,1.112
0.0005945704086597443,1.113
-0.000264504293532096,1.114
-0.0010798396793875135,1.115
-0.0015289703893126688,1.116
-0.0013101150496646486,1.117
-0.0002864688696631565,1.118
0.001420756483398952,1.119
0.00345256650283088,1.12
0.00531837378450476,1.121
0.006516431806199851,1.122
0.006663477208203925,1.123
0.005636378411027664,1.124
0.003634704186898863,1.125
0.001104500724666989,1.126
-0.0014290028163611098,1.127
-0.0035415936729338224,1.128
-0.005005054773524793,1.129
-0.005741948500046562,1.13
-0.005733446895700713,1.131
-0.0050046870018283,1.132
-0.003672117039156195,1.133
-0.001953640616990516,1.134
-0.0001089817800759833,1.135
0.00162790205619646,1.136
0.0030673114343429597,1.137
0.004048008836074178,1.138
0.004430898915957914,1.139
0.004127982321554787,1.14
0.003159187738791154,1.141
0.0016881768961369858,1.142
1.276434447704238e-07,1.143
-0.0015636790971214586,1.144
-0.0027013120641105255,1.145
-0.003260995624847572,1.146
-0.0033044400710906877,1.147
-0.0030713587335731703,1.148
-0.0028690669025876027,1.149
-0.00295099059131761,1.15
-0.0034289229615360223,1.151
-0.0042357924728526715,1.152
-0.005141777811409391,1.153
-0.0058095405382096845,1.154
-0.005881008901115299,1.155
-0.005089805125218693,1.156
-0.003349381026178895,1.157
-0.0007778273799807952,1.158
0.002324306843162441,1.159
0.005524655964612748,1.16
0.008340331276114048,1.161
0.010349728737958792,1.162
0.011292620526491258,1.163
0.011109256067007207,1.164
0.009926753285008662,1.165
0.008018035518527292,1.166
0.005748411478511938,1.167
0.003511088657817111,1.168
0.0016271720174100977,1.169
0.00022306956665899786,1.17
-0.0008344215919672978,1.171
-0.0018745793496999432,1.172
-0.0032387825832745983,1.173
-0.005062204846252068,1.174
-0.007153554731406196,1.175
-0.00906907840283824,1.176
-0.010330761278515057,1.177
-0.010628876543040023,1.178
-0.009899894658833203,1.179
-0.008282203523941965,1.18
-0.005992944691133621,1.181
-0.003205054403718863,1.182
-4.309381131778314e-05,1.183
0.0033121699352407718,1.184
0.006565091249720095,1.185
0.009353309074172712,1.186
0.011317999835053617,1.187
0.012140365222369975,1.188
0.011585767014230882,1.189
0.009587985708576543,1.19
0.006336181767039028,1.191
0.002296442972951252,1.192
-0.0018707362463545505,1.193
-0.0054699940265572925,1.194
-0.007964030586291606,1.195
-0.00914267854541601,1.196
-0.009172677546484174,1.197
-0.008492452850191599,1.198
-0.00759779211904062,1.199
-0.006794931703873527,1.2
-0.006067052648704493,1.201
-0.005184407196025872,1.202
-0.0039717947964721815,1.203
-0.0024871535915473907,1.204
