VaMe,time
0.0005193518479205665,0.001
0.00021986823450304913,0.002
0.001038126792910131,0.003
0.0036736527467363523,0.004
0.008139924654669358,0.005
0.013691670321245188,0.006
0.018957845334863714,0.007
0.022365809157310547,0.008
0.022781607063471994,0.009
0.01998685392958065,0.01
0.014681074235731666,0.011
0.008117287319853157,0.012
0.001643301711453986,0.013
-0.003684241712249561,0.014
-0.007302697730614893,0.015
-0.009128455220680034,0.016
-0.009405247674078581,0.017
-0.008531656639365191,0.018
-0.006947502894732601,0.019
-0.005090289069810142,0.02
-0.0033708318008672336,0.021
-0.0021240334761138133,0.022
-0.0015555009524355892,0.023
-0.0017369185522340843,0.024
-0.0026541648078049255,0.025
-0.004238670844527013,0.026
-0.00631933421007532,0.027
-0.008533071656944915,0.028
-0.010298773440207711,0.029
-0.0109181094173869,0.03
-0.009790774227670402,0.031
-0.006674538607946993,0.032
-0.0018713531508310116,0.033
0.0037855916648472845,0.034
0.009170787430540275,0.035
0.013210696280604168,0.036
0.015174310258821273,0.037
0.01483967702772256,0.038
0.012521960477931342,0.039
0.008941820929872776,0.04
0.004975902328216892,0.041
0.00140993365362946,0.042
-0.0012234844410351088,0.043
-0.002702855122838914,0.044
-0.003074208179639104,0.045
-0.0025577911011275506,0.046
-0.0014904566195414928,0.047
-0.0003206701436059643,0.048
0.0004270231255177313,0.049
0.00028656695221595987,0.05
-0.0009477891291331254,0.051
-0.0030683359387763676,0.052
-0.005487438924032483,0.053
-0.007477306263077962,0.054
-0.008464147679994658,0.055
-0.00820141605098325,0.056
-0.006770095342243618,0.057
-0.004469808289477802,0.058
-0.0016746941217121922,0.059
0.001283364291203876,0.06
0.00414117913639724,0.061
0.0066490189825751085,0.062
0.008515861856038814,0.063
0.009430343965528686,0.064
0.009157955248257996,0.065
0.007631872036583111,0.066
0.00498314280323092,0.067
0.0015396257036044162,0.068
-0.0021909356069804227,0.069
-0.005585504419886169,0.07
-0.008034437814479337,0.071
-0.009105454878554001,0.072
-0.008674615511798833,0.073
-0.006950873159693183,0.074
-0.004373241713462277,0.075
-0.0014515485146112082,0.076
0.001341935706828834,0.077
0.0036034759012346343,0.078
0.005000645262275145,0.079
0.005305827704945907,0.08
0.004484013938018634,0.081
0.0027534126410656873,0.082
0.0005450453684688546,0.083
-0.0015746681420926822,0.084
-0.00299690250077813,0.085
-0.003266320763936883,0.086
-0.002336958901846865,0.087
-0.0006750044574682065,0.088
0.0009113218026177708,0.089
0.0016061834565424564,0.09
0.0009139530062721134,0.091
-0.0011150476807086167,0.092
-0.0038479431824468666,0.093
-0.006287029691125752,0.094
-0.007449547379474782,0.095
-0.006707124529255162,0.096
-0.003959145242722989,0.097
0.00034833742041580725,0.098
0.005324924496070609,0.099
0.0098851901379257,0.1
0.013090683651544036,0.101
0.014407115975990667,0.102
0.013769837738455661,0.103
0.011484221976545578,0.104
0.008050471437205062,0.105
0.004005854620236041,0.106
-0.0001842455571063892,0.107
-0.004187210539722879,0.108
-0.00778385690423627,0.109
-0.010767285343523954,0.11
-0.012849078488131162,0.111
-0.013669846644805599,0.112
-0.01291140271819683,0.113
-0.010424750395350428,0.114
-0.006319435885496413,0.115
-0.0010077299902090631,0.116
0.0047961551362739885,0.117
0.010122886056015676,0.118
0.013901599246988028,0.119
0.015248933289462467,0.12
0.013746485081138859,0.121
0.00956493024095004,0.122
0.0034540657044234953,0.123
-0.0033650314977406955,0.124
-0.009438152642334783,0.125
-0.013468885268625127,0.126
-0.014751161120892886,0.127
-0.013383365267500048,0.128
-0.010113837662706121,0.129
-0.0059631946071431975,0.13
-0.0018680670267390538,0.131
0.001519163384853143,0.132
0.0038501043203200786,0.133
0.004993503153801803,0.134
0.004973574777816848,0.135
0.003977737179068959,0.136
0.0023604696860804993,0.137
0.0006015848373222137,0.138
-0.000763050864815925,0.139
-0.0012540350020161441,0.14
-0.0006047146024120803,0.141
0.001114302983516502,0.142
0.0034822386336664482,0.143
0.005851072769352402,0.144
0.007566801651861326,0.145
0.00819237340492702,0.146
0.0076187881764425295,0.147
0.006036077240012634,0.148
0.0038299891114348156,0.149
0.0014405164870772188,0.15
-0.0007996413610168791,0.151
-0.002746075996439541,0.152
-0.004374138821751935,0.153
-0.005662365940735896,0.154
-0.006561908964445169,0.155
-0.007049775149790987,0.156
-0.007186534740234151,0.157
-0.007128255823981936,0.158
-0.007069406709756921,0.159
-0.0071226421458229034,0.16
-0.007210904771603932,0.161
-0.00706677676805918,0.162
-0.006351710328524483,0.163
-0.004814277333893209,0.164
-0.0023821239378828156,0.165
0.0008463458438348427,0.166
0.004633036420074806,0.167
0.008589825307099189,0.168
0.012189707087468115,0.169
0.01485800445130306,0.17
0.01609426044906662,0.171
0.015599576314159994,0.172
0.013402450216564294,0.173
0.009870719909146947,0.174
0.005559652639647713,0.175
0.0010446215228979744,0.176
-0.0031462525005738038,0.177
-0.006563194920751796,0.178
-0.008893457236324002,0.179
-0.009991117465332952,0.18
-0.009832964830538742,0.181
-0.008480025594898149,0.182
-0.006139872410511398,0.183
-0.003262115692287149,0.184
-0.0004773582996533624,0.185
0.0016706909449390687,0.186
0.0029821389636522913,0.187
0.0035938774038257416,0.188
0.0037275396729767128,0.189
0.0034364119958455682,0.19
0.0025596690595275184,0.191
0.0009100570040573763,0.192
-0.0014796484339591035,0.193
-0.004270583922547207,0.194
-0.006938942781529226,0.195
-0.008980957357747918,0.196
-0.01005514986177112,0.197
-0.010015082870270217,0.198
-0.008890090390133127,0.199
-0.006848914744764168,0.2
-0.004133032231933884,0.201
-0.0009898022001712538,0.202
0.002341252526205689,0.203
0.005603651234543506,0.204
0.008526081110036728,0.205
0.010866246347720265,0.206
0.012438785671807989,0.207
0.01309220980063241,0.208
0.012680519560995876,0.209
0.011085953300606233,0.21
0.00829195118672333,0.211
0.004465111009249438,0.212
-8.07204237034837e-06,0.213
-0.004570300719828482,0.214
-0.008600438595455192,0.215
-0.011508271851121646,0.216
-0.012826092789428038,0.217
-0.012350902564968525,0.218
-0.010288354490301464,0.219
-0.007260637900648702,0.22
-0.00408897912196352,0.221
-0.0014342984324525999,0.222
0.0004726054860996566,0.223
0.0018353951109709391,0.224
0.0030685297490494457,0.225
0.004527946401005908,0.226
0.006323278080570109,0.227
0.00824339156735751,0.228
0.00981029731073824,0.229
0.010451739717914986,0.23
0.009741018850885776,0.231
0.007609078611911894,0.232
0.0044073117896066,0.233
0.0007553263081159015,0.234
-0.0027350464909864786,0.235
-0.005650767153692533,0.236
-0.007794460563677808,0.237
-0.009113757189939346,0.238
-0.009610937748243871,0.239
-0.009264371107037664,0.24
-0.008027857922618323,0.241
-0.0059184205552358935,0.242
-0.003125666861739984,0.243
-8.327623618863846e-05,0.244
0.002561093256482367,0.245
0.004128945496872921,0.246
0.004184621988970489,0.247
0.00274404618490732,0.248
0.000296205027054453,0.249
-0.0023617638685788775,0.25
-0.004363083648739739,0.251
-0.004994121718812984,0.252
-0.003891036017838245,0.253
-0.0011655919426267725,0.254
0.002620024696014693,0.255
0.006632244301302228,0.256
0.010012287776998616,0.257
0.012080671054780879,0.258
0.01247037193134017,0.259
0.011230189913446008,0.26
0.008853588607100588,0.261
0.006119158456240584,0.262
0.0037582999199514116,0.263
0.0021139415256399945,0.264
0.0009831442796739002,0.265
-0.0002148159512478245,0.266
-0.0020152538051945042,0.267
-0.0045359362269801464,0.268
-0.007390147532886067,0.269
-0.009878307204581107,0.27
-0.011325733142411427,0.271
-0.011408628326656399,0.272
-0.010330989954831584,0.273
-0.00877239981198087,0.274
-0.007613803849402029,0.275
-0.007544965490553833,0.276
-0.008747468008835637,0.277
-0.010822242863969425,0.278
-0.012922202346250461,0.279
-0.01394749471762122,0.28
-0.012781933201103114,0.281
-0.008623059107810815,0.282
-0.0013764778244913537,0.283
0.008070441889721286,0.284
0.017941222613925823,0.285
0.026111035901939014,0.286
0.03088275674881487,0.287
0.03158679067586359,0.288
0.02868095091621023,0.289
0.02334635960072967,0.29
0.01688285663531406,0.291
0.010252320974083908,0.292
0.003909043539646265,0.293
-0.002109817805485201,0.294
-0.007925596427012753,0.295
-0.013529829755770937,0.296
-0.018597602999048897,0.297
-0.022488174408044934,0.298
-0.024433321522943603,0.299
-0.02383526352112183,0.3
-0.020570208366424654,0.301
-0.015164397505249304,0.302
-0.008698764434513916,0.303
-0.0024115443576064256,0.304
0.0027861226279872393,0.305
0.006558957494697678,0.306
0.009048474720000296,0.307
0.010569677077856126,0.308
0.011323830116139156,0.309
0.011290824834579957,0.31
0.010328196774168696,0.311
0.008373380174065945,0.312
0.00559701038184006,0.313
0.002404607293719225,0.314
-0.0006894913804050505,0.315
-0.003216504461223457,0.316
-0.004844214587016089,0.317
-0.005371423353767064,0.318
-0.004720248373090294,0.319
-0.003038698438073668,0.32
-0.0008183580842884829,0.321
0.001205272423525465,0.322
0.002393929898575072,0.323
0.0025410107666455034,0.324
0.0019654649055884945,0.325
0.0013084731564905238,0.326
0.001153130989488428,0.327
0.0016773350654170351,0.328
0.002509704991542153,0.329
0.0028777133078261314,0.33
0.002024947256154375,0.331
-0.0002850161177280471,0.332
-0.003484319524303084,0.333
-0.006364749475152973,0.334
-0.007625509027462351,0.335
-0.006486519846922182,0.336
-0.0030474840813669983,0.337
0.0017258729764865783,0.338
0.00635969059335765,0.339
0.009461998330843142,0.34
0.01026206810827042,0.341
0.00879231127807401,0.342
0.005659905754835913,0.343
0.0016126878461326056,0.344
-0.0027977098357473626,0.345
-0.007255753923962101,0.346
-0.011482178135824765,0.347
-0.015026465926905697,0.348
-0.017261423804650487,0.349
-0.017621920787906142,0.35
-0.015905141247608456,0.351
-0.012378692648314996,0.352
-0.007629885370120911,0.353
-0.002305493983269015,0.354
0.003076807106363497,0.355
0.008180716747630863,0.356
0.012821814111670986,0.357
0.016886674168528456,0.358
0.02017355119786021,0.359
0.02224194536476699,0.36
0.022472217586122122,0.361
0.020404223294863855,0.362
0.016108082159128595,0.363
0.010228816191185352,0.364
0.0036785277806036625,0.365
-0.0027383109027594517,0.366
-0.008525671816652211,0.367
-0.01344335044335498,0.368
-0.017282603024346855,0.369
-0.01967279189314347,0.37
-0.02010091315019737,0.371
-0.018154302979081445,0.372
-0.013810443282141205,0.373
-0.0076040387579402995,0.374
-0.0006031863623934154,0.375
0.005837933347796495,0.376
0.010490493241419744,0.377
0.012631360496529017,0.378
0.012202608970082912,0.379
0.009716639719351708,0.38
0.006016766976346983,0.381
0.0019936188538854966,0.382
-0.0016823105479743619,0.383
-0.004694880497982455,0.384
-0.007001867518928382,0.385
-0.008639931784152831,0.386
-0.009590994942546562,0.387
-0.009766939176938995,0.388
-0.009047561381202752,0.389
-0.00730012076712224,0.39
-0.004389833508763464,0.391
-0.0002631258156106723,0.392
0.00490140353638466,0.393
0.010569068861457772,0.394
0.015805622727110603,0.395
0.01940471254139313,0.396
0.020291602887480283,0.397
0.018056924729060016,0.398
0.01322909407595714,0.399
0.0070650379194693675,0.4
0.001011352272043279,0.401
-0.003866767548556815,0.402
-0.007233737700310227,0.403
-0.009475459265238727,0.404
-0.01136782140949087,0.405
-0.013573239107137185,0.406
-0.01619476877094187,0.407
-0.018632145509710887,0.408
-0.019832491823116215,0.409
-0.018779213180014215,0.41
-0.01495347298245404,0.411
-0.00857306101528425,0.412
-0.000551887320790804,0.413
0.007726987001605907,0.414
0.01472405966557279,0.415
0.019149406946359148,0.416
0.020399141654725523,0.417
0.018774532379859602,0.418
0.015295109422434335,0.419
0.011196831198232213,0.42
0.007412940761012085,0.421
0.0043126937249196,0.422
0.0017606454114365508,0.423
-0.0006216972084762996,0.424
-0.0031784246571910585,0.425
-0.006089668750963794,0.426
-0.009379068108657641,0.427
-0.012912625718575169,0.428
-0.01631295060971415,0.429
-0.018856804692668396,0.43
-0.019514568773218957,0.431
-0.017249148521181343,0.432
-0.011510081149493317,0.433
-0.002644475693931814,0.434
0.008066918024989501,0.435
0.0187353646728192,0.436
0.027292258794265833,0.437
0.031922764072881096,0.438
0.03155811479462544,0.439
0.02627484887466379,0.44
0.01733720350946729,0.441
0.006780304592013379,0.442
-0.0033314879670914006,0.443
-0.011582785811579885,0.444
-0.017455204696669877,0.445
-0.021127483904718063,0.446
-0.023057766744503282,0.447
-0.023581354879992716,0.448
-0.02269893611950887,0.449
-0.02015697135631861,0.45
-0.015752443188124337,0.451
-0.009662422104207787,0.452
-0.00260103490671437,0.453
0.004346920997865995,0.454
0.010161848033977697,0.455
0.014279340833432665,0.456
0.016674441067770787,0.457
0.01763957990225836,0.458
0.01742838744458013,0.459
0.01602013081362507,0.46
0.013200347777806291,0.461
0.00888801741744085,0.462
0.00342417911675965,0.463
-0.002382353003871034,0.464
-0.007471884037010925,0.465
-0.010914210526792723,0.466
-0.012245865839647041,0.467
-0.011564183920746282,0.468
-0.009360083924044265,0.469
-0.0062651257594861206,0.47
-0.002908155247533911,0.471
8.823585334388499e-05,0.472
0.0021023195357387577,0.473
0.002649797464010671,0.474
0.0016564586571508689,0.475
-0.0003602292304731893,0.476
-0.0024347010040187272,0.477
-0.0036113706687290357,0.478
-0.0034399146080209006,0.479
-0.002162242528616958,0.48
-0.00045879564351851437,0.481
0.001052889666607426,0.482
0.0021910053283874906,0.483
0.0031849353235354643,0.484
0.0043320984720508545,0.485
0.005685198053170996,0.486
0.007034460730720926,0.487
0.008119060767409418,0.488
0.00878797493506667,0.489
0.008954807214522654,0.49
0.008477534026843297,0.491
0.00716599592899351,0.492
0.004933855589094083,0.493
0.001952311788520151,0.494
-0.0013240907322819013,0.495
-0.004295096395381878,0.496
-0.006458080364210587,0.497
-0.007606912570615804,0.498
-0.007853263749617487,0.499
-0.0075179717258225245,0.5
-0.007027240877791041,0.501
-0.006808054255929921,0.502
-0.007107121517554845,0.503
-0.007813818618322206,0.504
-0.008464920263992641,0.505
-0.008470711296017144,0.506
-0.00742763373397856,0.507
-0.00534450949380712,0.508
-0.002643350136274134,0.509
9.326985079325151e-05,0.51
0.0024416651013370993,0.511
0.004269534805984107,0.512
0.0056513396847618315,0.513
0.006726829042467447,0.514
0.007602991521579504,0.515
0.008326048341742113,0.516
0.00892379338863451,0.517
0.009430221376831126,0.518
0.009811139019229616,0.519
0.00986084067233702,0.52
0.009218757471424498,0.521
0.007535909683694898,0.522
0.004678442168919476,0.523
0.00084061409980936,0.524
-0.003532364573355587,0.525
-0.007992976892114792,0.526
-0.012297352724291624,0.527
-0.01635812324421948,0.528
-0.019983961809249922,0.529
-0.022664017604479496,0.53
-0.0236040044855635,0.531
-0.021983865663653693,0.532
-0.01727553032283904,0.533
-0.009499939601201733,0.534
0.000622649129808744,0.535
0.0116674935130042,0.536
0.021741668725000364,0.537
0.028993176307814686,0.538
0.03217335738866037,0.539
0.030927599628386895,0.54
0.02575290370475513,0.541
0.01783084965117707,0.542
0.008858681278790057,0.543
0.0007977695089203596,0.544
-0.004564241155299827,0.545
-0.006178540562740035,0.546
-0.0041915110692856096,0.547
-1.5280451949742197e-05,0.548
0.004156724856696984,0.549
0.006216701002066997,0.55
0.004912458608427246,0.551
0.00019223216865956664,0.552
-0.006894828492131222,0.553
-0.014627847044574935,0.554
-0.021188517981760933,0.555
-0.025202450537193024,0.556
-0.026132411249114494,0.557
-0.024373604593591627,0.558
-0.020900834871331604,0.559
-0.016616037007365133,0.56
-0.011886891938004948,0.561
-0.006600682681195628,0.562
-0.0005670498290121215,0.563
0.006111860572631683,0.564
0.012948102430797035,0.565
0.019211267002996378,0.566
0.024108259174591536,0.567
0.02692741832457231,0.568
0.027193095861950668,0.569
0.024771732283114033,0.57
0.01985265351870337,0.571
0.012911904339658855,0.572
0.00474956739461548,0.573
-0.0035482039394965368,0.574
-0.010852157068690107,0.575
-0.016301456968187494,0.576
-0.01947870890238202,0.577
-0.020450947097515954,0.578
-0.01979008134193773,0.579
-0.018516583476307344,0.58
-0.017787210187493317,0.581
-0.01833161311474838,0.582
-0.01993225304100775,0.583
-0.021289293449976165,0.584
-0.020379754721999675,0.585
-0.015204282047689498,0.586
-0.004709217316032456,0.587
0.010493990862493996,0.588
0.028087118865319106,0.589
0.04481288868626212,0.59
0.05756869930391178,0.591
0.06414481172791062,0.592
0.0633666248554676,0.593
0.05501265202286162,0.594
0.039923045523173516,0.595
0.02009413717052434,0.596
-0.0016492390953595326,0.597
-0.022290587259405577,0.598
-0.03923679137533402,0.599
-0.05077015784311978,0.6
-0.05623702767978008,0.601
-0.05592809734890973,0.602
-0.05075803289355054,0.603
-0.04189290912386215,0.604
-0.030490770303164848,0.605
-0.017684578448466423,0.606
-0.00471756478069357,0.607
0.00699840523093576,0.608
0.01602936546068623,0.609
0.021256573009180765,0.61
0.022270594255088892,0.611
0.019597192664950826,0.612
0.014584950682327149,0.613
0.008976910417925312,0.614
0.004377946271124236,0.615
0.0018569974433754691,0.616
0.001756012928216167,0.617
0.003659142166315277,0.618
0.0065639635669223345,0.619
0.009282346372011417,0.62
0.010855722100784207,0.621
0.01073384734047119,0.622
0.008752324252731272,0.623
0.005109119496085435,0.624
0.00038707171290921507,0.625
-0.004493127754779461,0.626
-0.008457133915166469,0.627
-0.010573163333804264,0.628
-0.010380999066706826,0.629
-0.008092416779988874,0.63
-0.004501014680739246,0.631
-0.0006225472472281832,0.632
0.0026875866311133288,0.633
0.0048930734805992,0.634
0.005740820402531096,0.635
0.005239048171912649,0.636
0.003698442614674186,0.637
0.0016836963042554359,0.638
-0.00020382149376704415,0.639
-0.001551155811571744,0.64
-0.00218270882670646,0.641
-0.002082005872784765,0.642
-0.0013346856583038302,0.643
-0.00014245209604531718,0.644
0.0011294797314795953,0.645
0.0019690612641970633,0.646
0.0018709326389784228,0.647
0.0005211733036663461,0.648
-0.0021408647798770194,0.649
-0.0059432422693691134,0.65
-0.010465085607669605,0.651
-0.014988136565532566,0.652
-0.01854518510816293,0.653
-0.020171044592114353,0.654
-0.019253881459973178,0.655
-0.01575300005892287,0.656
-0.01018252965250615,0.657
-0.0034454419111105195,0.658
0.0033976921237195857,0.659
0.009395703686173205,0.66
0.013907596430385626,0.661
0.016632149194080334,0.662
0.017556199408721593,0.663
0.01703507020412364,0.664
0.015990685833296783,0.665
0.01588283919631683,0.666
0.01824428445077001,0.667
0.023969576021425396,0.668
0.03260759729451067,0.669
0.04191153477021309,0.67
0.04817082971155209,0.671
0.047658088847859124,0.672
0.03849803058120213,0.673
0.021589473005659235,0.674
-3.499525811710694e-05,0.675
-0.022681815567691114,0.676
-0.043202740570892115,0.677
-0.059479801334180266,0.678
-0.07030931877643043,0.679
-0.07503171429313073,0.68
-0.07333400569967358,0.681
-0.06544170777869124,0.682
-0.05252021551394695,0.683
-0.03679607944837745,0.684
-0.02100464478355705,0.685
-0.007361818396301777,0.686
0.0032544106417345276,0.687
0.01131177247941042,0.688
0.017857566082270012,0.689
0.02365351914036584,0.69
0.02883061280130931,0.691
0.033107848049257434,0.692
0.036178341363666676,0.693
0.037921225280221155,0.694
0.03838668084418367,0.695
0.037624437700458487,0.696
0.03549631744412496,0.697
0.03164459765024209,0.698
0.025651961475353834,0.699
0.017308691244363753,0.7
0.006903610949512492,0.701
-0.004551399954873299,0.702
-0.015323621299140949,0.703
-0.023376355340771635,0.704
-0.027144306791387813,0.705
-0.02618221942899571,0.706
-0.021203655696434204,0.707
-0.013604867176090702,0.708
-0.0050011884183053185,0.709
0.0029486689231372955,0.71
0.00865387175666868,0.711
0.010892376509013806,0.712
0.009257965619712831,0.713
0.004504810111869809,0.714
-0.0015543885163851415,0.715
-0.006763154595127632,0.716
-0.009567493477600587,0.717
-0.009521512196691237,0.718
-0.007168853277722255,0.719
-0.0036552646137225837,0.72
-0.00029235666569697635,0.721
0.0018869968004237073,0.722
0.002395900699727076,0.723
0.0012714132717437402,0.724
-0.0011028807092371314,0.725
-0.004172881071335093,0.726
-0.007338752715642013,0.727
-0.010038717442602194,0.728
-0.01179367711686886,0.729
-0.012200638057765095,0.73
-0.01089988846405106,0.731
-0.007593978772020516,0.732
-0.0022034558146581604,0.733
0.004864299553074797,0.734
0.01257973517641894,0.735
0.019566371691216684,0.736
0.024649020640067472,0.737
0.027189052503441648,0.738
0.026953340021937708,0.739
0.023718378976434373,0.74
0.017022053934569237,0.741
0.006349303659721183,0.742
-0.008311742343296092,0.743
-0.025897643656318206,0.744
-0.04404120174006243,0.745
-0.05929195241926668,0.746
-0.06767110774404018,0.747
-0.06549973599748841,0.748
-0.05056154976554949,0.749
-0.023440440678230916,0.75
0.011705050009004018,0.751
0.04786770167688029,0.752
0.07738665283608825,0.753
0.09430740102809858,0.754
0.09576459740628629,0.755
0.08230337315618506,0.756
0.05740071094538948,0.757
0.026401243358219067,0.758
-0.004786797001041761,0.759
-0.030917894878470506,0.76
-0.04835769670039931,0.761
-0.05563747532027817,0.762
-0.05357641337052164,0.763
-0.04487055362219892,0.764
-0.03312217244055967,0.765
-0.021666864450948325,0.766
-0.012752185991519836,0.767
-0.007317503294752997,0.768
-0.005166215811738337,0.769
-0.005230191403979564,0.77
-0.0058952036917839104,0.771
-0.005514568773987684,0.772
-0.003035920162121638,0.773
0.0016091347411279918,0.774
0.007591019866824223,0.775
0.013571820092885538,0.776
0.018096711559756843,0.777
0.019986683014216525,0.778
0.01882885670747014,0.779
0.015294606224487105,0.78
0.01091010382569575,0.781
0.007357117276855064,0.782
0.0057687072040797675,0.783
0.006367813305909883,0.784
0.008495098263778459,0.785
0.01097853328897513,0.786
0.012679520296148356,0.787
0.01283035924715391,0.788
0.010953485775473176,0.789
0.006661846884091451,0.79
-0.00024822712977357964,0.791
-0.009448269111873603,0.792
-0.01989084476505808,0.793
-0.03001344932078256,0.794
-0.03815073831185344,0.795
-0.042916299432966445,0.796
-0.043450504286595276,0.797
-0.03947783845394255,0.798
-0.031188779320079296,0.799
-0.019076483749620326,0.8
-0.0038770783591414505,0.801
0.013339755751032453,0.802
0.03099217167015841,0.803
0.04684895478178536,0.804
0.058143574369887145,0.805
0.06218772997852009,0.806
0.05743622952759616,0.807
0.04439910223982184,0.808
0.02568061864364699,0.809
0.005019390431108324,0.81
-0.014058284238945944,0.811
-0.029137088682363716,0.812
-0.038977154206843875,0.813
-0.043080260256493516,0.814
-0.041415089559832016,0.815
-0.034544416854743965,0.816
-0.02381932384156582,0.817
-0.011275523157284313,0.818
0.0008190605871725252,0.819
0.010602662868066944,0.82
0.01712155897072907,0.821
0.02034499115729489,0.822
0.020708741011722293,0.823
0.018654213222149364,0.824
0.014557379843493009,0.825
0.00893330795197522,0.826
0.0025381861652052236,0.827
-0.0038205379337645905,0.828
-0.009675347343190642,0.829
-0.015203189174449185,0.83
-0.021079320658458082,0.831
-0.027774463679195168,0.832
-0.03471181381136438,0.833
-0.03996162952907662,0.834
-0.040866205579389164,0.835
-0.035331845610032955,0.836
-0.02292313406780138,0.837
-0.005083977262263532,0.838
0.015316673888679236,0.839
0.03464970263936424,0.84
0.04937129576343972,0.841
0.05709194300318805,0.842
0.0575168202019719,0.843
0.05259294072284484,0.844
0.045525575369934984,0.845
0.03925230699624291,0.846
0.03534601135575704,0.847
0.033674671472014264,0.848
0.03255417048563735,0.849
0.029298847731606424,0.85
0.021302753089943827,0.851
0.007395935412382575,0.852
-0.011257483185840137,0.853
-0.031357290147605035,0.854
-0.04881516696645874,0.855
-0.06044602061136586,0.856
-0.06488062331810107,0.857
-0.062499904602140825,0.858
-0.055012419843128636,0.859
-0.044974146131693746,0.86
-0.03515121540767204,0.861
-0.027802577691768967,0.862
-0.024095336223241465,0.863
-0.023750121065308685,0.864
-0.025033917137138872,0.865
-0.02525774960639365,0.866
-0.021690843951276753,0.867
-0.012548568720406038,0.868
0.002280635966658779,0.869
0.020975310832262145,0.87
0.04011619110171314,0.871
0.0555971115356958,0.872
0.06375971334262734,0.873
0.06233376254650379,0.874
0.05116095154431075,0.875
0.03269893174923041,0.876
0.011759190774954522,0.877
-0.005957991179897566,0.878
-0.015939654234110413,0.879
-0.01631182942166101,0.88
-0.007973778243412458,0.881
0.006178498150409173,0.882
0.022165329732884386,0.883
0.035737233901635995,0.884
0.043198929455156784,0.885
0.04225590260238784,0.886
0.03264935748486041,0.887
0.016095151764805714,0.888
-0.004563803904285354,0.889
-0.026365756793338954,0.89
-0.04672236315705024,0.891
-0.06317112256897574,0.892
-0.07282629291388251,0.893
-0.0725493015549289,0.894
-0.060354171136608396,0.895
-0.037074766567412265,0.896
-0.0067869626089079585,0.897
0.02436386936980478,0.898
0.05009977910140469,0.899
0.06570157712148836,0.9
0.06883019993790884,0.901
0.05957622232944711,0.902
0.040273109734800895,0.903
0.01516453216732337,0.904
-0.010430950859831763,0.905
-0.031517343844609066,0.906
-0.04488309406999983,0.907
-0.04988486601475602,0.908
-0.048068020184276965,0.909
-0.041826074027157024,0.91
-0.03301634460548522,0.911
-0.022479167038649068,0.912
-0.010555076645499279,0.913
0.0021180720978343417,0.914
0.014198719002643453,0.915
0.02383438112891219,0.916
0.02942751710512145,0.917
0.03054800647558017,0.918
0.028112612650262003,0.919
0.02351531683357868,0.92
0.01747736871207592,0.921
0.009605840959790331,0.922
-0.0010079298396866404,0.923
-0.014562252020452438,0.924
-0.029482300293472787,0.925
-0.042294053120661375,0.926
-0.04863815958352636,0.927
-0.044752617134070236,0.928
-0.028592240876843096,0.929
-0.0005176899187515424,0.93
0.03607921065282425,0.931
0.07447628818595148,0.932
0.10540637460042349,0.933
0.11913239626626834,0.934
0.10834605882169268,0.935
0.07109511812289689,0.936
0.01251593784672709,0.937
-0.05559419690203417,0.938
-0.11731403511596886,0.939
-0.15681728268912748,0.94
-0.16339845882988854,0.941
-0.13524634585900985,0.942
-0.07992698193514347,0.943
-0.011322926480458427,0.944
0.05534218611198794,0.945
0.10791527808129121,0.946
0.1392706083133072,0.947
0.14678944745698905,0.948
0.13107267127379965,0.949
0.09556831791047908,0.95
0.04701806679784278,0.951
-0.0048868950219141255,0.952
-0.049651475752112983,0.953
-0.07912412049184928,0.954
-0.08990830893671671,0.955
-0.08383647573807536,0.956
-0.06653825176961874,0.957
-0.045085870985439806,0.958
-0.025818836448117933,0.959
-0.012858897459361729,0.96
-0.00741306194748589,0.961
-0.007946486894096981,0.962
-0.011075751580339728,0.963
-0.012843287942639033,0.964
-0.010179063245475345,0.965
-0.0022319365790228664,0.966
0.009107896433489589,0.967
0.01992884581910471,0.968
0.02595073550536733,0.969
0.0243470285796101,0.97
0.015006709467157013,0.971
0.0007872370680748684,0.972
-0.013376759981771354,0.973
-0.022166383348312474,0.974
-0.02160398822958259,0.975
-0.010311640038370068,0.976
0.009771766829829151,0.977
0.03351781492746701,0.978
0.053971108060360616,0.979
0.06462307226409865,0.98
0.06156224368490795,0.981
0.04455120942270272,0.982
0.016873933991460303,0.983
-0.01547706322901019,0.984
-0.04488930250097894,0.985
-0.0638619068442466,0.986
-0.06749901929195667,0.987
-0.05555261794317158,0.988
-0.03248452637134814,0.989
-0.005440295473433484,0.99
0.01856180573489592,0.991
0.03486470728791999,0.992
0.04215263952090043,0.993
0.042186005973888996,0.994
0.038837567583953195,0.995
0.03681514335268177,0.996
0.03991654585410325,0.997
0.04891324627350404,0.998
0.060102846014622895,0.999
0.06611900709962742,1.0
0.0595289645807153,1.001
0.03713801644853777,1.002
0.001714940135556051,1.003
-0.03989135512124099,1.004
-0.08014749696476353,1.005
-0.11299207030025624,1.006
-0.13400002264382282,1.007
-0.1400138238408733,1.008
-0.1297228094428019,1.009
-0.10478970158751803,1.01
-0.06990087604471247,1.011
-0.03128582460507968,1.012
0.005145748459719397,1.013
0.03519303540030336,1.014
0.057068373219903865,1.015
0.07103444144457727,1.016
0.07798471892002477,1.017
0.07796409894797497,1.018
0.0699157673664751,1.019
0.05298423496433457,1.02
0.02819785349279671,1.021
-0.0010146011769730724,1.022
-0.02974046627912245,1.023
-0.052937793451666805,1.024
-0.06641673791516282,1.025
-0.06749674976186373,1.026
-0.0555169820986059,1.027
-0.03200383164462216,1.028
-0.0003109700974275432,1.029
0.035083134601890754,1.03
0.06924566194798402,1.031
0.09733485501908361,1.032
0.11529121257988471,1.033
0.12069134546167909,1.034
0.11312108687696877,1.035
0.09365000124037486,1.036
0.06432454451232124,1.037
0.028957929183507466,1.038
-0.005522400863048732,1.039
-0.029813839396484798,1.04
-0.036142984898182816,1.041
-0.023068201329792003,1.042
0.0021593844593106658,1.043
0.02564211653983342,1.044
0.03272907214157329,1.045
0.014491977829502118,1.046
-0.02888648759165685,1.047
-0.08895197826110317,1.048
-0.15253402827604148,1.049
-0.2057262415351405,1.05
-0.23685722443105417,1.051
-0.23852952880740347,1.052
-0.20911680000941862,1.053
-0.15311329854144393,1.054
-0.07973673030317424,1.055
-0.00030230687504733897,1.056
0.07440299376595069,1.057
0.1357612839091286,1.058
0.177995731310469,1.059
0.19840470806639637,1.06
0.19721216715029385,1.061
0.17688387450567375,1.062
0.14129530079363203,1.063
0.09535139644962677,1.064
0.045179171718936074,1.065
-0.0015862382656221872,1.066
-0.036347986948302644,1.067
-0.051563734498825196,1.068
-0.04361157469632766,1.069
-0.015014033001032562,1.07
0.02508753959204995,1.071
0.06269795783861698,1.072
0.08324193429597268,1.073
0.07751062828031262,1.074
0.04623490261580417,1.075
-0.0001403848012979033,1.076
-0.04673845285873507,1.077
-0.0811375158439805,1.078
-0.09777800197818966,1.079
-0.09816146573930504,1.08
-0.08798311972928914,1.081
-0.07365126701585835,1.082
-0.06002979633241383,1.083
-0.04970639162944041,1.084
-0.043144177326228814,1.085
-0.039363168553683804,1.086
-0.037017361402407516,1.087
-0.03514991785966655,1.088
-0.032920336279641985,1.089
-0.028780777142949212,1.09
-0.020362376402231486,1.091
-0.005408668355419598,1.092
0.01719556373279955,1.093
0.04694739298645728,1.094
0.08152962294517264,1.095
0.11667656744758807,1.096
0.14612807908237746,1.097
0.16198004709635258,1.098
0.15654874075615863,1.099
0.12582580848174998,1.1
0.07193406364269261,1.101
0.002663058939860554,1.102
-0.070714620771268,1.103
-0.13564819710262663,1.104
-0.18030032939682045,1.105
-0.1958539869403068,1.106
-0.17913163107368282,1.107
-0.13422217079719204,1.108
-0.07160452044694406,1.109
-0.004789785989247865,1.11
0.05374797755928429,1.111
0.09533116661598363,1.112
0.11588101094934099,1.113
0.11533292022822333,1.114
0.09641927609982005,1.115
0.06347361718665238,1.116
0.021841780955282115,1.117
-0.02192027962926854,1.118
-0.059791561656065,1.119
-0.08315202201656062,1.12
-0.08504697585163806,1.121
-0.06283093435100497,1.122
-0.01974735601442006,1.123
0.03535341299271063,1.124
0.08999005139867447,1.125
0.13126682356816,1.126
0.14961290200841956,1.127
0.1413124084856713,1.128
0.10857141557445535,1.129
0.05820058036278812,1.13
0.0002364322069686957,1.131
-0.05397803600164584,1.132
-0.09469535511386543,1.133
-0.11648261836043752,1.134
-0.11935457919874742,1.135
-0.10797137387325102,1.136
-0.08914086013370257,1.137
-0.06850854438990035,1.138
-0.04837608797360117,1.139
-0.028129692342157616,1.14
-0.006623366440164731,1.141
0.01539247005082466,1.142
0.034298740578455195,1.143
0.04464672402975808,1.144
0.04180657381734184,1.145
0.02501223725952628,1.146
-0.0012854196720783217,1.147
-0.029146677161030917,1.148
-0.050428706600321414,1.149
-0.0592411734335351,1.15
-0.05316002384558682,1.151
-0.03366145099859827,1.152
-0.00551588918460002,1.153
0.025180774662054258,1.154
0.05333517405035179,1.155
0.07583545570805551,1.156
0.09099829876967729,1.157
0.09788270737226994,1.158
0.09624682853053439,1.159
0.08645868442613791,1.16
0.06879288709459919,1.161
0.04291911715723723,1.162
0.00849215416366585,1.163
-0.03362013726922808,1.164
-0.08043334674291061,1.165
-0.12646207022056993,1.166
-0.16367632936843715,1.167
-0.18225276495522807,1.168
-0.17305426453956868,1.169
-0.13161130065897184,1.17
-0.06155131990882633,1.171
0.024637159069090225,1.172
0.10845202776459437,1.173
0.17156524940154855,1.174
0.20256126533890909,1.175
0.1998413333223654,1.176
0.16956278081799353,1.177
0.1216820040713351,1.178
0.0669670137760172,1.179
0.015436462039498677,1.18
-0.024330756569920724,1.181
-0.04547981981418898,1.182
-0.043578282196653,1.183
-0.018727621379675333,1.184
0.021516865183057912,1.185
0.061107741806072514,1.186
0.07930992727147841,1.187
0.05970591670069018,1.188
-0.0005162988800297485,1.189
-0.08823930008394745,1.19
-0.18062283064398255,1.191
-0.2543849475451111,1.192
-0.2927219526407235,1.193
-0.2885784411488409,1.194
-0.24497645334518128,1.195
-0.17285849276890133,1.196
-0.08697956934125017,1.197
-0.0013733401810979247,1.198
0.07362395660806245,1.199
0.13201577489323682,1.2
0.17129955661798693,1.201
0.19152245342587068,1.202
0.1948957519493237,1.203
0.18536920814481705,1.204
0.16747379319694583,1.205
0.14480321619709632,1.206
0.11901339045364293,1.207
0.08993056613516741,1.208
0.056885083235780357,1.209
0.020503542242588935,1.21
-0.01640929637014223,1.211
-0.04917836963850163,1.212
-0.0720043994979233,1.213
-0.0792726830338057,1.214
-0.06777432575868515,1.215
-0.03894222146929196,1.216
2.1170857091576225e-05,1.217
0.03675597640311386,1.218
0.05664017675592266,1.219
0.048008921351132584,1.22
0.008152239757152437,1.221
-0.05334761229652377,1.222
-0.11711217691553334,1.223
-0.1617550624456309,1.224
-0.1722467119934976,1.225
-0.14421826735838433,1.226
-0.08371130856832368,1.227
-0.004818279417519977,1.228
0.0732002146974538,1.229
0.12993158181273587,1.23
0.14957831721647957,1.231
0.12656494020297368,1.232
0.06774554979306166,1.233
-0.010153412224452703,1.234
-0.08641485649226903,1.235
-0.14269421184403652,1.236
-0.1675742934101137,1.237
-0.1584694342668556,1.238
-0.12096857986918275,1.239
-0.06618939259696828,1.24
-0.007246893360896773,1.241
0.04399298524048836,1.242
0.0796393875126454,1.243
0.09827721180822445,1.244
0.10607118232343095,1.245
0.11434099763719215,1.246
0.13386623851744198,1.247
0.16898249254523706,1.248
0.21414295961585417,1.249
0.25368140151895857,1.25
0.26550079351580186,1.251
0.22976538356001827,1.252
0.13965263670738268,1.253
0.006857421272447951,1.254
-0.14210654804249645,1.255
-0.2755836349523397,1.256
-0.36665442515321056,1.257
-0.3997677824283689,1.258
-0.3736334521926283,1.259
-0.3004553206474567,1.26
-0.20122925616587475,1.261
-0.09830095836968074,1.262
-0.008270197957028696,1.263
0.06161861613952525,1.264
0.1125075342765006,1.265
0.149788566715278,1.266
0.17818548494796374,1.267
0.1981747127301967,1.268
0.20535728356538793,1.269
0.19339786249956373,1.27
0.15867379026990014,1.271
0.10311900579914819,1.272
0.0339561729616014,1.273
-0.038245508869758006,1.274
-0.1017838597322456,1.275
-0.1459609008717057,1.276
-0.16301636459830415,1.277
-0.14957430408445016,1.278
-0.10780518236813365,1.279
-0.04613644372275179,1.28
0.02197636677217114,1.281
0.08188905518963718,1.282
0.1224208280561169,1.283
0.13873986011551165,1.284
0.13238760931163474,1.285
0.10884630312491517,1.286
0.07396921747411915,1.287
0.03153669913623184,1.288
-0.01656975392699509,1.289
-0.06837558216829082,1.29
-0.11982656238942027,1.291
-0.16402145067813684,1.292
-0.1918497267105704,1.293
-0.1937877946893968,1.294
-0.1629195319287552,1.295
-0.09893937887000408,1.296
-0.011525777316176784,1.297
0.07942098460544826,1.298
0.14847455738062176,1.299
0.17362499651031826,1.3
0.1455491243157233,1.301
0.07242365856949001,1.302
-0.021943800265942184,1.303
-0.10567249771117115,1.304
-0.148857531831803,1.305
-0.1325404929746315,1.306
-0.05469297792788258,1.307
0.06786181432258277,1.308
0.20308962697674451,1.309
0.31320500320883016,1.31
0.366958101106119,1.311
0.3490455157994509,1.312
0.26248050939137474,1.313
0.12517418843420802,1.314
-0.03547759519664279,1.315
-0.18870891379140417,1.316
-0.3074974167532849,1.317
-0.37469944753763007,1.318
-0.3848060758604199,1.319
-0.34167717280986143,1.32
-0.256023702071327,1.321
-0.143729621758302,1.322
-0.02351214799656639,1.323
0.086209439522126,1.324
0.1703509588608649,1.325
0.21938118764467474,1.326
0.23007036703443884,1.327
0.2046910408924498,1.328
0.14969195339951633,1.329
0.0748451311406805,1.33
-0.0078022699759660915,1.331
-0.08593499535695698,1.332
-0.14883017174857693,1.333
-0.18812870368057663,1.334
-0.1982631421576794,1.335
-0.1771968975881631,1.336
-0.12705152536590744,1.337
-0.054227757366765085,1.338
0.030855252386308495,1.339
0.11465364652294426,1.34
0.1827653100417631,1.341
0.22328361404684322,1.342
0.22939195323161968,1.343
0.20007884376675836,1.344
0.14005983352399987,1.345
0.0599260359068421,1.346
-0.02451659068634754,1.347
-0.09537727224692816,1.348
-0.1380611432949416,1.349
-0.14616105624403564,1.35
-0.1227398197437065,1.351
-0.07767244314470413,1.352
-0.023764188457346513,1.353
0.0258935954457189,1.354
0.059550232211229015,1.355
0.06950278912317653,1.356
0.05612469332354527,1.357
0.029116429293252064,1.358
0.0027956076880148654,1.359
-0.011405232012138425,1.36
-0.010000394718487819,1.361
0.0018523489267208543,1.362
0.013558118405317801,1.363
0.015029373530709114,1.364
0.0024269688223850336,1.365
-0.02029506122509102,1.366
-0.04471999036920912,1.367
-0.06284539728642026,1.368
-0.07019043117481545,1.369
-0.06615707216082621,1.37
-0.052725435563576985,1.371
-0.03310498467441331,1.372
-0.011075343791423962,1.373
0.009237668817506964,1.374
0.023653515919515936,1.375
0.028452628019667477,1.376
0.021087487754435648,1.377
0.0012325413860209819,1.378
-0.02786072449328625,1.379
-0.05862501025903378,1.38
-0.08039763781509639,1.381
-0.08294101326725897,1.382
-0.06067598331486905,1.383
-0.014634791580916236,1.384
0.04886603634484051,1.385
0.12007576441408811,1.386
0.18638288936628433,1.387
0.23370251461544334,1.388
0.25046882957575556,1.389
0.23205626666530305,1.39
0.1816037172520938,1.391
0.10685258632214285,1.392
0.017099645167541165,1.393
-0.07736718977748279,1.394
-0.1653530528172945,1.395
-0.23610184275975796,1.396
-0.28086970024985813,1.397
-0.29346249524606866,1.398
-0.27034920961870107,1.399
-0.2114028490888009,1.4
-0.12073917115534687,1.401
-0.00696681994461288,1.402
0.11624669385816333,1.403
0.22912423034074642,1.404
0.3074396736837425,1.405
0.3298603381576272,1.406
0.2874875768034568,1.407
0.188462490724533,1.408
0.05530371315906471,1.409
-0.08227216867176237,1.41
-0.19601261259622677,1.411
-0.26683054274693163,1.412
-0.2889229009165554,1.413
-0.26881311107959266,1.414
-0.22039144453838774,1.415
-0.1585078119428294,1.416
-0.09387451934473262,1.417
-0.031700843303269714,1.418
0.025990190605983864,1.419
0.07738499951098621,1.42
0.11980636550113001,1.421
0.1504617718588214,1.422
0.1677685560738097,1.423
0.1720752701540718,1.424
0.16481715067459102,1.425
0.14668145651230985,1.426
0.11711029626453512,1.427
0.07650433546626559,1.428
0.029279200780281654,1.429
-0.015740326823151563,1.43
-0.04871716609512317,1.431
-0.06343515571513109,1.432
-0.06004651655136575,1.433
-0.04476601406917809,1.434
-0.026763957327874843,1.435
-0.013508785819801212,1.436
-0.007267699476994574,1.437
-0.0053987363217678315,1.438
-0.003969753217864739,1.439
-0.0011696190757083092,1.44
0.002119312475773055,1.441
0.0038748980165602856,1.442
0.0026491498399353634,1.443
-0.0014577733177371795,1.444
-0.0068293958474827604,1.445
-0.011407748991423654,1.446
-0.013917607018024277,1.447
-0.014035987762629704,1.448
-0.011716844767868257,1.449
-0.007249045417395734,1.45
-0.002262546219187088,1.451
0.00036587167454847213,1.452
-0.0017306554629407684,1.453
-0.009218316227905511,1.454
-0.021619464748159244,1.455
-0.038209988815930254,1.456
-0.05787567838432696,1.457
-0.07850305386000007,1.458
-0.09702557536839448,1.459
-0.10989148109026611,1.46
-0.11318060402119584,1.461
-0.10242022905422604,1.462
-0.07317629560642137,1.463
-0.023448423652688545,1.464
0.04320603722656248,1.465
0.11659385484478166,1.466
0.1822225537401211,1.467
0.22552596149236964,1.468
0.23558464629332843,1.469
0.20761666802482093,1.47
0.14447721388132923,1.471
0.05655559294787311,1.472
-0.04058944362969052,1.473
-0.13004302993333258,1.474
-0.19702603321194043,1.475
-0.23075869615040417,1.476
-0.22467912039797758,1.477
-0.17629137660101196,1.478
-0.08800356189148124,1.479
0.031067648507411172,1.48
0.1638585946641775,1.481
0.2866177155899112,1.482
0.3732390288929155,1.483
0.401022448950463,1.484
0.35630074381688026,1.485
0.23980353666303963,1.486
0.0696932041860554,1.487
-0.12154417121987839,1.488
-0.2964110255805486,1.489
-0.42325061868494207,1.49
-0.48367349031636975,1.491
-0.47477542912430865,1.492
-0.4067871525511707,1.493
-0.2974489827547492,1.494
-0.16577698346418657,1.495
-0.02824901794996533,1.496
0.1017773054681574,1.497
0.21274149414244797,1.498
0.29356306367805035,1.499
0.33367787347721545,1.5
0.32560761949339795,1.501
0.2703204674584983,1.502
0.18151273367802107,1.503
0.08304595166926422,1.504
-0.0005457423157111911,1.505
-0.053935615315416414,1.506
-0.07527612329610582,1.507
-0.07419233534108566,1.508
-0.06568972432005657,1.509
-0.062323304525957156,1.51
-0.06840765891456928,1.511
-0.07961922348047588,1.512
-0.08685861569807653,1.513
-0.08080112390674841,1.514
-0.05534133322370125,1.515
-0.010268670340951129,1.516
0.04643631676671351,1.517
0.09845697438765198,1.518
0.1263031773145249,1.519
0.11712589474649987,1.52
0.0724451407741194,1.521
0.007608563223037788,1.522
-0.055867242914499314,1.523
-0.0990074761913868,1.524
-0.11083454458741156,1.525
-0.09012501821201431,1.526
-0.044422489673323164,1.527
0.012759101785193558,1.528
0.06543213079840202,1.529
0.09897294172490474,1.53
0.10447275750111454,1.531
0.08190162172391936,1.532
0.039356339764944355,1.533
-0.011200830375280987,1.534
-0.05838570009353422,1.535
-0.0938518948934059,1.536
-0.11283940000097126,1.537
-0.11382752847627814,1.538
-0.09819365319282486,1.539
-0.0698775904841675,1.54
-0.034513395058748834,1.541
0.0019963682870710532,1.542
0.03473956678425053,1.543
0.0602706922470565,1.544
0.07657306567669075,1.545
0.0832156299245113,1.546
0.08169398342773215,1.547
0.07502379783192067,1.548
0.0662551643628333,1.549
0.05694646000291749,1.55
0.04658424804720224,1.551
0.03310771259224058,1.552
0.014458127062129516,1.553
-0.009413917056399315,1.554
-0.03562604084202719,1.555
-0.05963697383908662,1.556
-0.07760107837546992,1.557
-0.08774428798321915,1.558
-0.09028174454054749,1.559
-0.08658518650939036,1.56
-0.0780634880757469,1.561
-0.06529977508750219,1.562
-0.048217171496305326,1.563
-0.02719212446264748,1.564
-0.003893315209656018,1.565
0.019173976295927847,1.566
0.04007573032922862,1.567
0.0585548491879976,1.568
0.07593366999974416,1.569
0.09388657748732294,1.57
0.11249089534014187,1.571
0.1281324217880444,1.572
0.13323941727124575,1.573
0.11982789972056626,1.574
0.0852623125838904,1.575
0.035768402861757385,1.576
-0.015525726168540907,1.577
-0.055062183314991825,1.578
-0.07509251760488925,1.579
-0.07574652366173602,1.58
-0.06305986007563193,1.581
-0.045487449979642304,1.582
-0.030866703025236596,1.583
-0.024127593607331035,1.584
-0.025914052119879266,1.585
-0.03307693030722561,1.586
-0.041287824897776916,1.587
-0.048131765999184895,1.588
-0.05415473178855307,1.589
-0.06114175190678608,1.59
-0.06964574437153635,1.591
-0.0782264816488928,1.592
-0.08455990099799321,1.593
-0.0864067647452781,1.594
-0.08137124985919386,1.595
-0.06657810978405544,1.596
-0.03942127138027591,1.597
0.0007411463173469297,1.598
0.05086471464330445,1.599
0.10376450969491062,1.6
0.14981038610953235,1.601
0.18013882855715527,1.602
0.18934707503459133,1.603
0.17629037560576988,1.604
0.14372110306600744,1.605
0.09751995419413986,1.606
0.04501601438496556,1.607
-0.007020838063041946,1.608
-0.05310288426176889,1.609
-0.08860465135233701,1.61
-0.10984868102659158,1.611
-0.11506545576893766,1.612
-0.10500231645531057,1.613
-0.0827566431250782,1.614
-0.05342066860428655,1.615
-0.023216863547966933,1.616
0.002480910338538859,1.617
0.02123153890268025,1.618
0.034003928231753126,1.619
0.04353098658145986,1.62
0.05150093755370906,1.621
0.056554121505733114,1.622
0.054964315489769114,1.623
0.04385451587532799,1.624
0.02403403796044664,1.625
-0.00024996659493110743,1.626
-0.023795048148932883,1.627
-0.042448874040731235,1.628
-0.053609062125181815,1.629
-0.05613725182522694,1.63
-0.05052759557315725,1.631
-0.03890812858774316,1.632
-0.024332862022427057,1.633
-0.009883308207397055,1.634
0.0017517281763508093,1.635
0.00839938838647068,1.636
0.008652183827698492,1.637
0.002235708448471567,1.638
-0.009652573145100941,1.639
-0.024093534709883943,1.64
-0.03650646787633316,1.641
-0.04147007247695702,1.642
-0.03446909858307396,1.643
-0.013978378820742932,1.644
0.017117154550381108,1.645
0.0516075806757717,1.646
0.0799258429072664,1.647
0.09362985144536864,1.648
0.0890793408288891,1.649
0.0692461793825249,1.65
0.04214432790004476,1.651
0.01667467346025385,1.652
-0.0013279832596815836,1.653
-0.01068225575495722,1.654
-0.014098595013221787,1.655
-0.01620124157801311,1.656
-0.021269181743026104,1.657
-0.03135554582737179,1.658
-0.045363868561684645,1.659
-0.05950031832028447,1.66
-0.06898313966100386,1.661
-0.07010296560732712,1.662
-0.06154391907669624,1.663
-0.04454886778815836,1.664
-0.022186283975092168,1.665
0.001846550914401842,1.666
0.024310379066941726,1.667
0.042768882382624135,1.668
0.055283458186623884,1.669
0.06030419061648911,1.67
0.057128834009502805,1.671
0.046527778093635286,1.672
0.031018580790788106,1.673
0.014353662634409773,1.674
0.00018445897047785482,1.675
-0.009392618117540706,1.676
-0.014421751639312592,1.677
-0.01645453103924195,1.678
-0.017323161771067578,1.679
-0.018161485970083786,1.68
-0.01899095319186159,1.681
-0.018774877758663315,1.682
-0.015800975521458607,1.683
-0.008364131092502891,1.684
0.00431412241035994,1.685
0.02129223586138707,1.686
0.03979349673497291,1.687
0.0560197955461945,1.688
0.06634964447814531,1.689
0.0679075971199812,1.69
0.05856837579353736,1.691
0.03744009305478604,1.692
0.00567851730662105,1.693
-0.03324108819102966,1.694
-0.07366851498145788,1.695
-0.10815252246905713,1.696
-0.12863961031895504,1.697
-0.1290400757420495,1.698
-0.10830553574993713,1.699
-0.07162704602371109,1.7
-0.02833131602175276,1.701
0.012287432473451662,1.702
0.044509132978369725,1.703
0.06697851005412579,1.704
0.08080208889220973,1.705
0.08696994312804016,1.706
0.08512628925156493,1.707
0.07424394385530098,1.708
0.05424343615544242,1.709
0.02725628711786283,1.71
-0.0021526261061961564,1.711
-0.028021224835527235,1.712
-0.04497175132324154,1.713
-0.05008914604953065,1.714
-0.04375579044909588,1.715
-0.029340050214583073,1.716
-0.012019941388598476,1.717
0.0029782405486914717,1.718
0.01211694121972105,1.719
0.014467492266570103,1.72
0.011480232211901802,1.721
0.005872045092517733,1.722
0.0003379147245322256,1.723
-0.003252209762022369,1.724
-0.004075868871555979,1.725
-0.0022312987603416525,1.726
0.0015614873573188324,1.727
0.00630206453638532,1.728
0.010949013999320668,1.729
0.014472448765217987,1.73
0.015818929971430015,1.731
0.01404105634210394,1.732
0.00872412037263073,1.733
0.00044198370842360766,1.734
-0.009216510677857734,1.735
-0.018191953436558043,1.736
-0.024708732603186404,1.737
-0.02764641873903206,1.738
-0.026416534928957697,1.739
-0.02095130850106277,1.74
-0.012056593210200719,1.741
-0.0014617325441420273,1.742
0.00883386988754313,1.743
0.017283452580477386,1.744
0.022898713724289397,1.745
0.02499823233047538,1.746
0.023287345329910503,1.747
0.01830291281035479,1.748
0.01161458691502964,1.749
0.00536456895822157,1.75
0.0013388548535965292,1.751
0.00015420158075008723,1.752
0.001063841897648742,1.753
0.0024942226169593954,1.754
0.0029709836993945136,1.755
0.0018252823911538638,1.756
-0.0007297377285240911,1.757
-0.004040659750593958,1.758
-0.007491596936850261,1.759
-0.010748515073594762,1.76
-0.013939044729976483,1.761
-0.01769323847228953,1.762
-0.022678725301941902,1.763
-0.028875739569240277,1.764
-0.03522138601863014,1.765
-0.03977130724649262,1.766
-0.040200681269938934,1.767
-0.034500783140970326,1.768
-0.021716458631936872,1.769
-0.0025019068259508836,1.77
0.020792445745075647,1.771
0.04465412391931075,1.772
0.06526340114711719,1.773
0.07906957401231382,1.774
0.0829784884203495,1.775
0.07483060748806891,1.776
0.05458950216235177,1.777
0.025326594374578827,1.778
-0.007364582330946671,1.779
-0.03734222843053864,1.78
-0.059686735142033,1.781
-0.07135540434328315,1.782
-0.07103555538485025,1.783
-0.0588106572891231,1.784
-0.0361061749337827,1.785
-0.006006534225756728,1.786
0.02646457378006009,1.787
0.05469807858881324,1.788
0.07185484132579469,1.789
0.07295996815281171,1.79
0.05675984183121886,1.791
0.02640930656139828,1.792
-0.011223017610403212,1.793
-0.04744696926867058,1.794
-0.07437241005537334,1.795
-0.08724190494183603,1.796
-0.08545393664206263,1.797
-0.07205566452921303,1.798
-0.052220523096830805,1.799
-0.031220199740143364,1.8
-0.012380175091096719,1.801
0.0038627586043566207,1.802
0.01895452831130404,1.803
0.034151710623688436,1.804
0.049084240238778366,1.805
0.061653487937888746,1.806
0.06888282536162153,1.807
0.06827321715289496,1.808
0.05936146901383987,1.809
0.044623235411671285,1.81
0.028749691538729426,1.811
0.016612402919075564,1.812
0.01119173387394063,1.813
0.012356569774140675,1.814
0.01686322178129002,1.815
0.01968429402132169,1.816
0.01622495954325712,1.817
0.004372584042011026,1.818
-0.014692180999996014,1.819
-0.037252533444570086,1.82
-0.0586533151356276,1.821
-0.07460582553363701,1.822
-0.08185555891556813,1.823
-0.07870367646722945,1.824
-0.06553795212579469,1.825
-0.04490771599736832,1.826
-0.02088317700448175,1.827
0.0020124304920377035,1.828
0.01990082477588057,1.829
0.030491443455469263,1.83
0.03359894430017442,1.831
0.030859799745693087,1.832
0.024822917926162646,1.833
0.01807310480712568,1.834
0.012739549383671847,1.835
0.010264970377764311,1.836
0.0112032871375851,1.837
0.014975905773229218,1.838
0.019759491339030405,1.839
0.02287118678101044,1.84
0.021813863088847894,1.841
0.015423891327464394,1.842
0.004332819721881172,1.843
-0.00928766654069975,1.844
-0.022282246421745974,1.845
-0.03129136283816302,1.846
-0.03377044630152014,1.847
-0.02894032323441547,1.848
-0.018158604353971614,1.849
-0.004428122410886664,1.85
0.008732031314774557,1.851
0.01847036949590497,1.852
0.023227507734047033,1.853
0.022716600546741343,1.854
0.01779283822618501,1.855
0.010377027604802209,1.856
0.0030165675519531867,1.857
-0.0019547614354222184,1.858
-0.0030847750966218426,1.859
0.00011872345088140537,1.86
0.00735432690558596,1.861
0.0173883716461211,1.862
0.02771991506545629,1.863
0.03464045039297888,1.864
0.03422560245643482,1.865
0.024163648831867876,1.866
0.005312917759998445,1.867
-0.018232795960379286,1.868
-0.04068914505516673,1.869
-0.05680434802068885,1.87
-0.0635893700896409,1.871
-0.06084193935606761,1.872
-0.0505584964674769,1.873
-0.0358803707383383,1.874
-0.020105095083871986,1.875
-0.005881403205484077,1.876
0.005336796538746057,1.877
0.013357937594896733,1.878
0.01884387438173323,1.879
0.022758614737696962,1.88
0.025987692229571202,1.881
0.029126120627410202,1.882
0.03224390542008096,1.883
0.03462877055999088,1.884
0.03483816403546619,1.885
0.0313297423214103,1.886
0.023340502896114834,1.887
0.01136538922173287,1.888
-0.002972815214973296,1.889
-0.01735723382507617,1.89
-0.02921729012261253,1.891
-0.03619054410725022,1.892
-0.03665987836867077,1.893
-0.030162783216666846,1.894
-0.017510989807478176,1.895
-0.0007785237819335306,1.896
0.016825052395971797,1.897
0.03156437608736976,1.898
0.04028026970016436,1.899
0.041350150139996024,1.9
0.03498554892669081,1.901
0.02290218123273483,1.902
0.00776440895347129,1.903
-0.0072988340387176295,1.904
-0.01926655409597159,1.905
-0.026064327356153084,1.906
-0.02733204762678889,1.907
-0.02459032178501351,1.908
-0.02063284642276384,1.909
-0.018488935737762488,1.91
-0.02049867727835062,1.911
-0.02770928629038939,1.912
-0.03943230750616377,1.913
-0.05287216846313479,1.914
-0.06314895153580932,1.915
-0.06424255767206365,1.916
-0.050931133380620004,1.917
-0.02109126748010584,1.918
0.02264084265160787,1.919
0.0727162649570954,1.92
0.11826302316385325,1.921
0.147917309856194,1.922
0.15310127054639183,1.923
0.13088224774813706,1.924
0.08536377953902255,1.925
0.026800769662779972,1.926
-0.03151089741619078,1.927
-0.0774984671355648,1.928
-0.10385808667734128,1.929
-0.1093077482690311,1.93
-0.0974541000562031,1.931
-0.07443079100148163,1.932
-0.04663301617108972,1.933
-0.019308697486540537,1.934
0.003905727726180632,1.935
0.020872692283040117,1.936
0.03070530747227079,1.937
0.03355209492964363,1.938
0.03038792331653202,1.939
0.022816428474625918,1.94
0.012882827159528511,1.941
0.002854392382493284,1.942
-0.0050255018233548695,1.943
-0.008776452245748424,1.944
-0.006931322707024025,1.945
0.0011147558804745993,1.946
0.014612585127329391,1.947
0.031004134142772432,1.948
0.04590473272593949,1.949
0.053987991389535535,1.95
0.05089932930077327,1.951
0.03539545486545687,1.952
0.010287735926535122,1.953
-0.01857818770767126,1.954
-0.044722915055515594,1.955
-0.06333582144269709,1.956
-0.0723584432387468,1.957
-0.07241000347012475,1.958
-0.06606890639420115,1.959
-0.05675842180050178,1.96
-0.047463691447517865,1.961
-0.03966330004069323,1.962
-0.03292139442977166,1.963
-0.025296925554834426,1.964
-0.014295078106742628,1.965
0.0019987902107256174,1.966
0.023964275838404783,1.967
0.05000854962595226,1.968
0.07671998567434665,1.969
0.09949878096481646,1.97
0.11342347360730394,1.971
0.11414682693976758,1.972
0.09922821546759904,1.973
0.06990817683064607,1.974
0.03161426519864064,1.975
-0.008019947549317454,1.976
-0.0421765878375299,1.977
-0.06664252474389344,1.978
-0.0797522180564351,1.979
-0.08157284839290037,1.98
-0.07344238513103349,1.981
-0.057885038105555064,1.982
-0.03833470821374029,1.983
-0.018415500192362443,1.984
-0.0011123081791968791,1.985
0.011710312078879738,1.986
0.01933935879936522,1.987
0.021994625560005237,1.988
0.020561983661101787,1.989
0.016340457545741607,1.99
0.010775039414106392,1.991
0.005172128792344996,1.992
0.00048544639078953674,1.993
-0.002751716455333142,1.994
-0.004395779560320059,1.995
-0.0046321694533215,1.996
-0.003872903974358352,1.997
-0.0026112187838232726,1.998
-0.0012965872434576938,1.999
-0.000269644880317633,2.0
0.0002646583238259804,2.001
0.0002620714212208775,2.002
-0.00011518626770457722,2.003
-0.00042554474717561134,2.004
7.986077312493325e-05,2.005
0.0022912486462117144,2.006
0.006845201876465984,2.007
0.013619838532562881,2.008
0.021311572766209555,2.009
0.027394166935625457,2.01
0.028741898101378695,2.011
0.022909564197175807,2.012
0.009563331239745867,2.013
-0.008841422131717099,2.014
-0.027718210914890934,2.015
-0.04200878930397197,2.016
-0.047896949434650796,2.017
-0.04382526707772445,2.018
-0.03071505461381154,2.019
-0.011667920189500022,2.02
0.008703126051331268,2.021
0.02542784928656637,2.022
0.034707725380686526,2.023
0.03513703082713918,2.024
0.02801686402525277,2.025
0.01671177139805727,2.026
0.005240538060298356,2.027
-0.003368495839178648,2.028
-0.008032078997182569,2.029
-0.009411246015593419,2.03
-0.009020508706244117,2.031
-0.008331336183089297,2.032
-0.008206673659804936,2.033
-0.008744116662780188,2.034
-0.009452643455517036,2.035
-0.009601802887182488,2.036
-0.008582532268155094,2.037
-0.006172748068952054,2.038
-0.0026429428749339752,2.039
0.0013311253469741322,2.04
0.004922085390603671,2.041
0.007476495111429681,2.042
0.008723252234097208,2.043
0.008711928584485367,2.044
0.007576452819481986,2.045
0.005373664525887924,2.046
0.0021213677540339463,2.047
-0.0020229791575035803,2.048
-0.006579854664659934,2.049
-0.010715539855634575,2.05
-0.013411274813662319,2.051
-0.013704983625294393,2.052
-0.01083825853051026,2.053
-0.004307112134525128,2.054
0.005965007288109414,2.055
0.019135202706807332,2.056
0.03284757329867074,2.057
0.04324595474169236,2.058
0.04619139731662872,2.059
0.03926714540029681,2.06
0.02319327551499294,2.061
0.0016342408563307133,2.062
-0.0203642326896167,2.063
-0.03823980900929744,2.064
-0.04909011835058755,2.065
-0.05193210939275773,2.066
-0.04745567267352507,2.067
-0.03761628778221477,2.068
-0.025053703171659027,2.069
-0.012314103075070231,2.07
-0.001146384840454772,2.071
0.007812374362631747,2.072
0.014895241818110801,2.073
0.02092562808590238,2.074
0.02657119293558953,2.075
0.031725627410253025,2.076
0.03525356833361718,2.077
0.03540998656601969,2.078
0.03075340700422282,2.079
0.021048022755885624,2.08
0.007749554116765968,2.081
-0.00633585888158931,2.082
-0.01829377028430256,2.083
-0.026340605939461765,2.084
-0.030042788954584284,2.085
-0.02975674962002413,2.086
-0.026212237109883827,2.087
-0.0204599497966969,2.088
-0.013776022881447504,2.089
-0.007338069024263943,2.09
-0.0018889867712863226,2.091
0.002396400591950358,2.092
0.005825052645696167,2.093
0.008955488251290656,2.094
0.012328095273051641,2.095
0.016238764997969477,2.096
0.020570407168291196,2.097
0.02464580305841514,2.098
0.027139831810945134,2.099
0.02629971061592156,2.1
0.02070078966644015,2.101
0.010263963701645389,2.102
-0.0031992237177430045,2.103
-0.01642817858707044,2.104
-0.02601676339072484,2.105
-0.02992151241531838,2.106
-0.02830680565139915,2.107
-0.023221531274642583,2.108
-0.01741679206845552,2.109
-0.013119085009199971,2.11
-0.011255634191138855,2.111
-0.011159996493212324,2.112
-0.010864530953405496,2.113
-0.008080471892143188,2.114
-0.001396754696826976,2.115
0.00905663272540966,2.116
0.021671143759101688,2.117
0.03383613916758539,2.118
0.042620591444445126,2.119
0.04556264912033717,2.12
0.04144219047705847,2.121
0.030801472727163808,2.122
0.015853361386289726,2.123
-0.0003071515468479831,2.124
-0.014781056621607216,2.125
-0.02566556074391072,2.126
-0.03223250704497032,2.127
-0.03457340554216201,2.128
-0.03319084577595565,2.129
-0.02888735552788802,2.13
-0.02275690167715419,2.131
-0.01599980013889621,2.132
-0.009643463118885032,2.133
-0.004335439694675565,2.134
-0.000281183708619001,2.135
0.0026391951971912546,2.136
0.004670172813125907,2.137
0.006071426650657774,2.138
0.007139730322402597,2.139
0.008240948712963988,2.14
0.009742479780981545,2.141
0.011843120734249708,2.142
0.014373990115707957,2.143
0.01668752326963607,2.144
0.017745189076927122,2.145
0.016465161787457685,2.146
0.012271375281203898,2.147
0.0055610618402005575,2.148
-0.002253459388253247,2.149
-0.009192316230332707,2.15
-0.013421511280629479,2.151
-0.013962000623633725,2.152
-0.01113486171426315,2.153
-0.006451388724956494,2.154
-0.0018664632515001897,2.155
0.0011634986281042316,2.156
0.002165963658383812,2.157
0.0014985614093739532,2.158
-9.149906083540118e-05,2.159
-0.0018256223451831287,2.16
-0.003070889024164679,2.161
-0.0034109319351301078,2.162
-0.002704854976924616,2.163
-0.001148722078060232,2.164
0.0007343390280652335,2.165
0.0022518596677767134,2.166
0.002804542344423133,2.167
0.0021226998796965656,2.168
0.00039773387935944035,2.169
-0.0017450712971793228,2.17
-0.0034644059484195623,2.171
-0.004003868688275139,2.172
-0.0028958557814996,2.173
-3.636073520093889e-05,2.174
0.004254817978168569,2.175
0.009168322845190997,2.176
0.013477918125744144,2.177
0.01585902048412364,2.178
0.015345515126827823,2.179
0.011672455509751321,2.18
0.005342301310388562,2.181
-0.0025330985827165245,2.182
-0.010462672316268178,2.183
-0.016825872571530467,2.184
-0.02018380993608628,2.185
-0.019650157165206426,2.186
-0.015232320239851422,2.187
-0.007954448072524985,2.188
0.00038116462435703225,2.189
0.0076652412882824185,2.19
0.01194525377882559,2.191
0.011833182397528843,2.192
0.00694636742344817,2.193
-0.0016783966860384266,2.194
-0.011565592048069472,2.195
-0.019524957189162768,2.196
-0.02291991770557838,2.197
-0.02073739460445709,2.198
-0.013793464038261549,2.199
-0.004099470263300809,2.2
0.006022685253234229,2.201
0.014574183359735239,2.202
0.020180618622271218,2.203
0.022233552463662827,2.204
0.020967621429738632,2.205
0.01735730241939932,2.206
0.012738223856920727,2.207
0.008319931521951934,2.208
0.004861281576371325,2.209
0.002587594536107455,2.21
0.0012608460295418689,2.211
0.000363373152818497,2.212
-0.0006321429542165729,2.213
-0.0020374150542672373,2.214
-0.0038623779412691006,2.215
-0.005859513399728015,2.216
-0.0076578580299226,2.217
-0.008897579599181898,2.218
-0.009284204847106197,2.219
-0.008586733745297954,2.22
-0.006648696516249509,2.221
-0.0034453931149218205,2.222
0.0007840622716232832,2.223
0.005350826240087343,2.224
0.00906939453392896,2.225
0.010571130891728843,2.226
0.008890795740623762,2.227
0.003922243014715413,2.228
-0.0035440959387533296,2.229
-0.012073599437684742,2.23
-0.019843322547277456,2.231
-0.024819949543456135,2.232
-0.02504574439174271,2.233
-0.019317038859679177,2.234
-0.008078861269130953,2.235
0.0063437977686142885,2.236
0.020684100874487073,2.237
0.03205900610536508,2.238
0.03859890094763113,2.239
0.03935210727505798,2.24
0.034161753215755805,2.241
0.02378311230783512,2.242
0.00992921289753986,2.243
-0.00500115156329291,2.244
-0.01847449686583994,2.245
-0.028452980675029743,2.246
-0.03382009571976455,2.247
-0.03446429869973566,2.248
-0.031116752822499174,2.249
-0.025056435525838326,2.25
-0.017720750501474453,2.251
-0.010310771090666837,2.252
-0.003560527849123943,2.253
0.0022441305225859233,2.254
0.007056736692216511,2.255
0.010824600364810097,2.256
0.013411408599086747,2.257
0.014733526871454324,2.258
0.01489508017708542,2.259
0.014152811330193511,2.26
0.01277908335154014,2.261
0.01095447270744291,2.262
0.008745928972972612,2.263
0.006170697973930976,2.264
0.0032931744744764866,2.265
0.00027214252302779144,2.266
-0.002655682699696174,2.267
-0.00521369048444858,2.268
-0.007135756422362681,2.269
-0.008225645938803058,2.27
-0.008405389802727026,2.271
-0.007753237359843285,2.272
-0.00651720742669205,2.273
-0.00505370080416746,2.274
-0.003680245630852321,2.275
-0.0025107662534007767,2.276
-0.0013702040504417127,2.277
0.00014777718274154187,2.278
0.0025048238097457776,2.279
0.0060050855782384244,2.28
0.010544200973488408,2.281
0.015333082750586887,2.282
0.018848554550152788,2.283
0.019289400413571592,2.284
0.015469482776506295,2.285
0.007659502488836342,2.286
-0.0022672117280310897,2.287
-0.011593967507688171,2.288
-0.01797902474107148,2.289
-0.020443632277933502,2.29
-0.019574979835268645,2.291
-0.01687591241079524,2.292
-0.01378060226034131,2.293
-0.010938711437116182,2.294
-0.008066002896874955,2.295
-0.004352637676493635,2.296
0.0008610068042299659,2.297
0.007532994562922738,2.298
0.014716713042477328,2.299
0.020762949112656304,2.3
0.023915280258366912,2.301
0.023113004578583115,2.302
0.018554672606215926,2.303
0.011601182615030093,2.304
0.004040417120054246,2.305
-0.0027950957873341844,2.306
-0.00845847310793581,2.307
-0.013142368407865349,2.308
-0.017084583001860824,2.309
-0.020123007550347502,2.31
-0.021628152350141993,2.311
-0.02078352278300186,2.312
-0.01709450524809258,2.313
-0.010836565678279127,2.314
-0.003062403446161114,2.315
0.004843070074164811,2.316
0.011638227062188863,2.317
0.016430507600556112,2.318
0.018704945445773648,2.319
0.018326177102335726,2.32
0.015517023399365538,2.321
0.010813803306208587,2.322
0.005017634782381601,2.323
-0.0009143772825365461,2.324
-0.0061012960134737265,2.325
-0.009989786160428667,2.326
-0.012397095421540733,2.327
-0.013334203249491427,2.328
-0.012874502300594037,2.329
-0.01121153153570398,2.33
-0.008758938605668225,2.331
-0.006115915969641387,2.332
-0.0039053330087862074,2.333
-0.00256760260648372,2.334
-0.002124826752536759,2.335
-0.0020274208406557298,2.336
-0.001320096428142074,2.337
0.0008797658604614044,2.338
0.004935114343076501,2.339
0.01056496895016419,2.34
0.01699379705509226,2.341
0.023165046648202743,2.342
0.02792082121197494,2.343
0.030127269736902777,2.344
0.028782859468484974,2.345
0.02324858813861087,2.346
0.01363722785639536,2.347
0.0011342942805459416,2.348
-0.01207035628591808,2.349
-0.02336461059727597,2.35
-0.030589622371446808,2.351
-0.032748424922804435,2.352
-0.03019329912618182,2.353
-0.024311381385489862,2.354
-0.016947913758451606,2.355
-0.009803922618367801,2.356
-0.004024674075242137,2.357
-8.97699591790186e-05,2.358
0.002061423713865409,2.359
0.002821912318555375,2.36
0.0027434171198298814,2.361
0.0024264491741533656,2.362
0.0024562068893979037,2.363
0.003342096205762433,2.364
0.0054189236441706335,2.365
0.008737378663990844,2.366
0.013015599521861586,2.367
0.017662875776967193,2.368
0.02181499919754422,2.369
0.024367522154059497,2.37
0.02412059214382996,2.371
0.020146532898178263,2.372
0.01225606026298423,2.373
0.0012426360058958072,2.374
-0.011264159761736628,2.375
-0.023211722472301865,2.376
-0.032590888718008165,2.377
-0.03783524089291254,2.378
-0.03810902443640061,2.379
-0.03342603542835551,2.38
-0.02458058435684681,2.381
-0.012967389053988598,2.382
-0.0003558996108698882,2.383
0.01136306877253221,2.384
0.02044537818988478,2.385
0.025588134819859422,2.386
0.02623250989200644,2.387
0.022736267364133308,2.388
0.01628498679960963,2.389
0.008570156406824011,2.39
0.0013386602622898524,2.391
-0.004064953323017297,2.392
-0.006992253203912007,2.393
-0.007503199356739292,2.394
-0.006143889416405837,2.395
-0.003645758363357963,2.396
-0.0007030142132689306,2.397
0.002111922597520384,2.398
0.004361495376769551,2.399
0.005771574369604071,2.4
0.006278928626076842,2.401
0.006031417456770009,2.402
0.005294338374543931,2.403
0.004308325838459447,2.404
0.0032034814837482144,2.405
0.002011182857387056,2.406
0.0007154349007254905,2.407
-0.0007067477624991444,2.408
-0.0022533683500851943,2.409
-0.003879112960424544,2.41
-0.00550102094323587,2.411
-0.0070046493320226975,2.412
-0.008223577952475313,2.413
-0.008923211598569885,2.414
-0.008876509554090794,2.415
-0.008034901844816771,2.416
-0.006626559937378383,2.417
-0.005032417499827543,2.418
-0.0035173617684899155,2.419
-0.0020474984100827378,2.42
-0.0003517874735694454,2.421
0.0018098460860494245,2.422
0.0043682930090944245,2.423
0.006843113561809423,2.424
0.008435155711200211,2.425
0.008241382760231532,2.426
0.00557940347354207,2.427
0.00037483608159629756,2.428
-0.006575875966865022,2.429
-0.01362908074943829,2.43
-0.018631705573344582,2.431
-0.019550063795902517,2.432
-0.01523884001229375,2.433
-0.005980110052963284,2.434
0.0065005532961179766,2.435
0.01951506264694775,2.436
0.030203556848244727,2.437
0.03633019304248414,2.438
0.036737619501525626,2.439
0.031423672094954426,2.44
0.02146941369952292,2.441
0.00889199923860062,2.442
-0.0037596489969335613,2.443
-0.014141822078980773,2.444
-0.02084710293059938,2.445
-0.023661123263402153,2.446
-0.023249581225772097,2.447
-0.020605585850957224,2.448
-0.016647885296317,2.449
-0.012091844634748732,2.45
-0.007481277020966558,2.451
-0.0032621145097942715,2.452
0.0001680535869359409,2.453
0.00249493834655687,2.454
0.0035987437017741385,2.455
0.0036291352451782726,2.456
0.002953409936363729,2.457
0.001995740678132562,2.458
0.0010680995190227294,2.459
0.000294431999390906,2.46
-0.0003536501388796228,2.461
-0.0009529561143416198,2.462
-0.0015296950166513656,2.463
-0.0020439400217629475,2.464
-0.002435541314439342,2.465
-0.0026270757976653717,2.466
-0.002471762367428797,2.467
-0.00174312665914674,2.468
-0.00021370661871626014,2.469
0.0022305524210093275,2.47
0.005511865930148573,2.471
0.009347306328159955,2.472
0.013269260197287991,2.473
0.016614785181850663,2.474
0.018504375317827688,2.475
0.01798652383952035,2.476
0.014439426961623834,2.477
0.007991943745214275,2.478
-0.00036446527201543976,2.479
-0.009057763372293661,2.48
-0.016454839284889066,2.481
-0.02136566544929338,2.482
-0.023309968733677074,2.483
-0.02246873887506319,2.484
-0.01943670938229017,2.485
-0.014958056104439935,2.486
-0.009746933144063318,2.487
-0.004427177565782188,2.488
0.00043464784431190254,2.489
0.004291072184331237,2.49
0.006653725457214513,2.491
0.007244705528236251,2.492
0.006207830821921364,2.493
0.004227443435782457,2.494
0.002403628458135916,2.495
0.0018878903412829044,2.496
0.0034520751731906348,2.497
0.007173577030419952,2.498
0.012311714092878864,2.499
0.017410165462530165,2.5
0.020705912980968,2.501
0.020832213471738942,2.502
0.017487170900221043,2.503
0.011604673349975511,2.504
0.00490202991074273,2.505
-0.0008799775748961281,2.506
-0.0046230198570300736,2.507
-0.006159242297182784,2.508
-0.0062412177146788424,2.509
-0.0061138508368682315,2.51
-0.006832796004044611,2.511
-0.00876184204444764,2.512
-0.011575659890932115,2.513
-0.014642817572050566,2.514
-0.017392495337813774,2.515
-0.01941769152107637,2.516
-0.020407944968534715,2.517
-0.020122284644900703,2.518
-0.018423748104350664,2.519
-0.01529361358274045,2.52
-0.010841811010504444,2.521
-0.005324840727472169,2.522
0.0008733090828294991,2.523
0.007274985565818542,2.524
0.013324190162813285,2.525
0.018399674690888813,2.526
0.021843010984397428,2.527
0.023068488313096096,2.528
0.021818510969561687,2.529
0.018427966737048322,2.53
0.01381327708026806,2.531
0.00909502505993243,2.532
0.00512217776986953,2.533
0.0022404808680924733,2.534
0.0003641708548282324,2.535
-0.0008295920751027272,2.536
-0.0017254491308032454,2.537
-0.0026374008904244384,2.538
-0.0037206703957118415,2.539
-0.004941849625105678,2.54
-0.006111119241234192,2.541
-0.00695888612274591,2.542
-0.0072236295899284824,2.543
-0.006729859849832529,2.544
-0.005444588327513047,2.545
-0.003494418293073442,2.546
-0.001143724705356842,2.547
0.0012440550980561392,2.548
0.0032569230342149084,2.549
0.004516321683282322,2.55
0.004777951960412915,2.551
0.003994009917877262,2.552
0.0022940068898355944,2.553
-0.00010566443352354559,2.554
-0.002984519959410633,2.555
-0.006109517447643564,2.556
-0.009144740974970797,2.557
-0.011590848947668871,2.558
-0.012893242541829974,2.559
-0.01270592928665593,2.56
-0.011084555577236676,2.561
-0.008438729629102054,2.562
-0.005315958548844767,2.563
-0.0021753993677107565,2.564
0.0007428489263836209,2.565
0.0034063382957203203,2.566
0.0058559498053774375,2.567
0.008038289067523094,2.568
0.009723706620577666,2.569
0.010548245640526454,2.57
0.01013103859292283,2.571
0.008255126283670686,2.572
0.005103116535100841,2.573
0.0013974638356832859,2.574
-0.0017361028486479891,2.575
-0.0031236517846069383,2.576
-0.0018913990365733396,2.577
0.0022979798785477943,2.578
0.00911139276826916,2.579
0.017516283264582128,2.58
0.02588268208147774,2.581
0.03227976420098486,2.582
0.034964544137058476,2.583
0.032850008533915946,2.584
0.025719290416517375,2.585
0.014197731455957936,2.586
-0.00037543032484935456,2.587
-0.016139681436378655,2.588
-0.03100238985346871,2.589
-0.04297072026193184,2.59
-0.05044642917083817,2.591
-0.05249653922231129,2.592
-0.04908562980093159,2.593
-0.04113605892703539,2.594
-0.030329674011654532,2.595
-0.018691064359858917,2.596
-0.008036703434072989,2.597
0.0005048271511372005,2.598
0.006633753456879271,2.599
0.0106630244449759,2.6
0.01316224960374616,2.601
0.014671842477728202,2.602
0.015575407057288465,2.603
0.016076341498729035,2.604
0.016200416084082268,2.605
0.01583180241120574,2.606
0.014807959173547394,2.607
0.013026888043498412,2.608
0.010504892598589964,2.609
0.007389937916285341,2.61
0.003951385939461851,2.611
0.0005334368524533963,2.612
-0.0024946761735398374,2.613
-0.004722614289122459,2.614
-0.005644655051040258,2.615
-0.0046521695818589354,2.616
-0.0011525938736914065,2.617
0.005109646261389908,2.618
0.013612999486211246,2.619
0.022782890415950007,2.62
0.030190967255507784,2.621
0.03333582736307855,2.622
0.030673152991213985,2.623
0.02229172563013462,2.624
0.009881324862372661,2.625
-0.003917092579789717,2.626
-0.016429009746283425,2.627
-0.025737017921033258,2.628
-0.031069958164236862,2.629
-0.03270828383440277,2.63
-0.03152163720819028,2.631
-0.028424172842103523,2.632
-0.0240489838692887,2.633
-0.018759220825669578,2.634
-0.012876049047178382,2.635
-0.006877930650574841,2.636
-0.0013957093225898632,2.637
0.002961820035163076,2.638
0.0057962422002946325,2.639
0.007028748150894709,2.64
0.006916545901630812,2.641
0.005970509682073607,2.642
0.004785056424850322,2.643
0.0038465726735050446,2.644
0.0034071049218166788,2.645
0.0034756983739661286,2.646
0.003916217042331335,2.647
0.004566667614011472,2.648
0.0052929027423456445,2.649
0.005982838722414394,2.65
0.006538028944289043,2.651
0.006868896243385901,2.652
0.0068780820051878525,2.653
0.006456278476618716,2.654
0.005522002885558682,2.655
0.0040870918295711385,2.656
0.0022802075525238637,2.657
0.0002941458479265782,2.658
-0.0016841387703031363,2.659
-0.0034919575716520867,2.66
-0.004977817666204595,2.661
-0.0060072799848123835,2.662
-0.0064916920726196675,2.663
-0.006422215459202471,2.664
-0.00588276854077136,2.665
-0.005022946692566306,2.666
-0.004011951329912943,2.667
-0.0030097071215177545,2.668
-0.0021576196601162333,2.669
-0.0015555251926275882,2.67
-0.0012224546639289515,2.671
-0.001076812255820225,2.672
-0.0009318108973013945,2.673
-0.0004945459351132631,2.674
0.0005940668873505907,2.675
0.0026612518020920004,2.676
0.0058710951425292104,2.677
0.010081438809141311,2.678
0.014721062628495065,2.679
0.0187740366449799,2.68
0.021020723439108817,2.681
0.020565837873006833,2.682
0.0173347288345721,2.683
0.012112897383480028,2.684
0.006065051045711956,2.685
8.000073317652166e-05,2.686
-0.00556671787023099,2.687
-0.011002090690672055,2.688
-0.016287620934643598,2.689
-0.02114240524081742,2.69
-0.024982677263616936,2.691
-0.02714361001732476,2.692
-0.02713784910068676,2.693
-0.024847479326929045,2.694
-0.020599872167318654,2.695
-0.015121180535339635,2.696
-0.009351733717129603,2.697
-0.004144857742164052,2.698
3.678132694890168e-05,2.699
0.003263443055361076,2.7
0.006009606545601461,2.701
0.00881320840145444,2.702
0.011920649710629111,2.703
0.015106181825467522,2.704
0.017754229112645698,2.705
0.01915046076224217,2.706
0.018796957482436507,2.707
0.01659270840841565,2.708
0.012878501465136446,2.709
0.008376275952466363,2.71
0.00398188713547754,2.711
0.0004602149166962622,2.712
-0.0017851652524973408,2.713
-0.0027595530025652524,2.714
-0.002770426993898239,2.715
-0.0022580654628964678,2.716
-0.0016400484419643578,2.717
-0.001220717159485402,2.718
-0.0011764066161083513,2.719
-0.0015623484900106988,2.72
-0.002309385751090705,2.721
-0.003245269826117516,2.722
-0.00414303644466227,2.723
-0.004765748070739127,2.724
-0.0049241153961094575,2.725
-0.004552769627743257,2.726
-0.003740165188714859,2.727
-0.00266804101486561,2.728
-0.0015150387093396322,2.729
-0.0004101423019569967,2.73
0.0005576536567187732,2.731
0.001329268491545607,2.732
0.001879932248221349,2.733
0.002214972698670231,2.734
0.0023540693787003127,2.735
0.0023059850728395143,2.736
0.0020481659807442417,2.737
0.0015427920639431722,2.738
0.0007794961112176285,2.739
-0.00018980375856638112,2.74
-0.001245525272885665,2.741
-0.0022378660024750586,2.742
-0.0030414385006902315,2.743
-0.0035770353211414946,2.744
-0.0037890010195557825,2.745
-0.0036195794372311774,2.746
-0.003030146903469951,2.747
-0.002062576744531063,2.748
-0.0008782124727331404,2.749
0.0002789073085267998,2.75
0.0011898552357925735,2.751
0.0017609785887324472,2.752
0.0020251768780619323,2.753
0.00206200591032659,2.754
0.0019327214502942534,2.755
0.0016661131689181033,2.756
0.001279390075505815,2.757
0.0008195864158867888,2.758
0.00038870555148936864,2.759
0.00011284959631687285,2.76
7.17643177055544e-05,2.761
0.00024621842750165856,2.762
0.0005240149141484534,2.763
0.0007669704679794735,2.764
0.0008904202911627678,2.765
0.0008929410182315351,2.766
0.0008273265657157007,2.767
0.0007460051632326112,2.768
0.0006562463189433512,2.769
0.0005143715191912452,2.77
0.00027369698893162905,2.771
-4.804120439204334e-05,2.772
-0.0003573375232893074,2.773
-0.0005530962918985296,2.774
-0.0006079485026175044,2.775
-0.0005888593197538868,2.776
-0.0006022986711974363,2.777
-0.0007034888846000376,2.778
-0.0008449435797082395,2.779
-0.0009121075243183181,2.78
-0.000810088014571074,2.781
-0.0005375443321355945,2.782
-0.00020187392151379573,2.783
4.1134897434425455e-05,2.784
6.481042270765407e-05,2.785
-0.00020846778173966312,2.786
-0.0008177555372925463,2.787
-0.0017357640465980912,2.788
-0.0028193605030503045,2.789
-0.003803093982442718,2.79
-0.004354181805452943,2.791
-0.004167034959501178,2.792
-0.0030678707161634253,2.793
-0.0010972292821206065,2.794
0.001448668914329428,2.795
0.00404506455500317,2.796
0.006083417546702498,2.797
0.007103179452518863,2.798
0.006956031021256493,2.799
0.005795837313098429,2.8
0.003970401889332836,2.801
0.0019277578592967405,2.802
0.00011857931858689702,2.803
-0.0011462038565316897,2.804
-0.001801676238360542,2.805
-0.0020053203770887167,2.806
-0.002011567411206196,2.807
-0.002031749713633213,2.808
-0.0021407748470031146,2.809
-0.002260888798680642,2.81
-0.0022239061838561546,2.811
-0.0018739525760530272,2.812
-0.0011442600172997305,2.813
-7.495667700959807e-05,2.814
0.0011984730302540218,2.815
0.002457428341080027,2.816
0.0034301516306967533,2.817
0.0038670323345605163,2.818
0.0036373958407858696,2.819
0.002772547338276896,2.82
0.0014311821109311345,2.821
-0.0001672306734444105,2.822
-0.0018060376105439664,2.823
-0.0033020035850173245,2.824
-0.004503949893108478,2.825
-0.005304424827398833,2.826
-0.005661721583208926,2.827
-0.0056054654497908335,2.828
-0.0052205216646692,2.829
-0.004592891699039404,2.83
-0.0037358650501799775,2.831
-0.0025675674592350287,2.832
-0.0009792438056051333,2.833
0.001052236483782521,2.834
0.003390602997106969,2.835
0.005733412080532086,2.836
0.007666508344124678,2.837
0.008783386399868993,2.838
0.008827914205798423,2.839
0.0077800071910373875,2.84
0.005837840214675033,2.841
0.003314609089952969,2.842
0.000524309870910689,2.843
-0.0022746410275334195,2.844
-0.004874758558884336,2.845
-0.007091983897610689,2.846
-0.008743202344407864,2.847
-0.009636271675690278,2.848
-0.009575091176188162,2.849
-0.008393363039647508,2.85
-0.006036521801422887,2.851
-0.0026689508450944404,2.852
0.0012762111397088426,2.853
0.005167559045254444,2.854
0.008349635418139842,2.855
0.010340180511568924,2.856
0.010942004232362341,2.857
0.01022245829520056,2.858
0.008416121651927351,2.859
0.005838563037513006,2.86
0.0028590923093912207,2.861
-0.00011128243636797273,2.862
-0.002686943923928025,2.863
-0.004602274592156038,2.864
-0.0057639980155756235,2.865
-0.0062393450923708136,2.866
-0.006183455118895796,2.867
-0.00574059493556824,2.868
-0.0049918092300418535,2.869
-0.003986862997951511,2.87
-0.0028086578554821135,2.871
-0.0015889516918942148,2.872
-0.0004665520334353713,2.873
0.00045920923545192665,2.874
0.0011431594353193465,2.875
0.0015912958297374519,2.876
0.0018646472888027466,2.877
0.0020630694106251106,2.878
0.0022656268808223536,2.879
0.002472761695294681,2.88
0.0026029035162463336,2.881
0.0025439054969155243,2.882
0.0022140066409146106,2.883
0.0015900471189905245,2.884
0.0007076053845430246,2.885
-0.0003442836899843658,2.886
-0.0014361976388930773,2.887
-0.0024268379369506822,2.888
-0.0031926112257088146,2.889
-0.003641612385366654,2.89
-0.003715167854016514,2.891
-0.0033884120177386165,2.892
-0.0026754670120844896,2.893
-0.0016374700029373264,2.894
-0.00038805862163069943,2.895
0.0009156208365474619,2.896
0.0021079306886618086,2.897
0.0030550216367444443,2.898
0.003673797897309964,2.899
0.003937544986791511,2.9
0.003869281898597477,2.901
0.0035148641449465018,2.902
0.0029171258433362606,2.903
0.002114785660851895,2.904
0.0011621177988310597,2.905
0.0001536064738098276,2.906
-0.0007641022808963393,2.907
-0.0014241151657583063,2.908
-0.0017204946787235562,2.909
-0.001675109394821731,2.91
-0.00142793573060018,2.911
-0.0011680311801909827,2.912
-0.0010648113096402329,2.913
-0.0012288110458938658,2.914
-0.0016883351227518766,2.915
-0.00236519391696222,2.916
-0.0030620494118385852,2.917
-0.003490348266341202,2.918
-0.0033465079394556967,2.919
-0.002426131130743116,2.92
-0.0007492757775470573,2.921
0.0013821719715780716,2.922
0.003459513013612471,2.923
0.004935757504966775,2.924
0.005418900055038249,2.925
0.004831300094287336,2.926
0.003429927862815349,2.927
0.0016463121006212236,2.928
-0.00012349378667525908,2.929
-0.00162837712960961,2.93
-0.002752686492525629,2.931
-0.003466167031709481,2.932
-0.003789767129456116,2.933
-0.0037735879935246177,2.934
-0.003477686848739596,2.935
-0.002956444598263078,2.936
-0.0022527874450148614,2.937
-0.0014092360067003988,2.938
-0.00048420742631550667,2.939
0.00044512055689851257,2.94
0.0012952371786227404,2.941
0.001987238354051668,2.942
0.0024546024622436264,2.943
0.0026707802116247353,2.944
0.0026879263975845965,2.945
0.002631798568513648,2.946
0.0026284311901710383,2.947
0.0027116408951968216,2.948
0.0027854830772015148,2.949
0.0026751822388446705,2.95
0.0022346110854155844,2.951
0.0014426747352525257,2.952
0.00042800640866962075,2.953
