VaMe,time
-6.64133416874409e-05,0.001
-0.0005457494150689452,0.002
-0.0010511091143340953,0.003
-0.001540037932859051,0.004
-0.0019169087684366528,0.005
-0.002095387692443035,0.006
-0.002051687967881358,0.007
-0.0018378732895886062,0.008
-0.0015581819128309712,0.009
-0.0013093667257905329,0.01
-0.0011259530817719183,0.011
-0.0009845813641631848,0.012
-0.0008423175614730364,0.013
-0.0006634230753229459,0.014
-0.0004404698921927276,0.015
-0.0002208708452805058,0.016
-0.0001029364676260338,0.017
-0.00016186406297118028,0.018
-0.000363107433498157,0.019
-0.0005667597788583883,0.02
-0.000620029023787154,0.021
-0.00044589943591465516,0.022
-7.673787790804274e-05,0.023
0.00035936376503002595,0.024
0.0006990930355502041,0.025
0.000843486170917597,0.026
0.0008318896276599587,0.027
0.000823343677208004,0.028
0.0009945507533636602,0.029
0.0014351825313425911,0.03
0.0021086178286674364,0.031
0.0028774849423663165,0.032
0.003565594246062472,0.033
0.004021943261366883,0.034
0.004152894655828379,0.035
0.003924532118289497,0.036
0.0033641935836563634,0.037
0.002565916392372372,0.038
0.0016643084555955758,0.039
0.000769365469713374,0.04
-8.533445777849989e-05,0.041
-0.0009421077647113169,0.042
-0.0018808797953937407,0.043
-0.0029771856293498112,0.044
-0.004269058673256472,0.045
-0.0057186945558641575,0.046
-0.007165720220697338,0.047
-0.008314066270018206,0.048
-0.008792712590169133,0.049
-0.008265840592837055,0.05
-0.006548625117633998,0.051
-0.0037031158119835276,0.052
-8.010633102642064e-05,0.053
0.003724731827234631,0.054
0.006996934404254465,0.055
0.009067973926445679,0.056
0.00947135007541676,0.057
0.008066750382885585,0.058
0.005115542516319773,0.059
0.001267751170863306,0.06
-0.002580425597635199,0.061
-0.00553046053618768,0.062
-0.006942173201238111,0.063
-0.006625484826783757,0.064
-0.004887836269151595,0.065
-0.002406764081227533,0.066
2.6819468187778045e-05,0.067
0.001781426828264091,0.068
0.002566017408718958,0.069
0.0024906224049882145,0.07
0.0019975044148707447,0.071
0.0016527877064147058,0.072
0.0018724620140410995,0.073
0.0027178712151010357,0.074
0.0038641807082971623,0.075
0.004768698402220694,0.076
0.004964277950033568,0.077
0.004303640965413102,0.078
0.0030063447290518542,0.079
0.0015303820564930737,0.08
0.0003688876223980953,0.081
-0.00015975373621870706,0.082
-3.6972118887859434e-05,0.083
0.00048008212697359576,0.084
0.000996465943316718,0.085
0.0011553774668879538,0.086
0.0007680570637892899,0.087
-0.00016303423084199518,0.088
-0.0015073618709127484,0.089
-0.0030893129354858744,0.09
-0.004743436250880351,0.091
-0.0063121249220164455,0.092
-0.00760110299470069,0.093
-0.008368076024887997,0.094
-0.008375481684111378,0.095
-0.007459274415673396,0.096
-0.005571957041778117,0.097
-0.002783828574781281,0.098
0.0007427261072472811,0.099
0.004739857240438375,0.1
0.008760680343509446,0.101
0.012143674829304866,0.102
0.014112024884839456,0.103
0.013991634546553073,0.104
0.011468187878060632,0.105
0.006779940979356267,0.106
0.0007194802666751012,0.107
-0.005582475546536795,0.108
-0.010949459531460601,0.109
-0.014407929617610706,0.11
-0.01539694740663481,0.111
-0.013919504534641799,0.112
-0.010545868634807318,0.113
-0.006221926856557458,0.114
-0.0019512692733593517,0.115
0.0014972016915479368,0.116
0.0037367912293540056,0.117
0.0047515543237541345,0.118
0.004783766768257527,0.119
0.004191707706142241,0.12
0.0033267460915255057,0.121
0.00244800296547796,0.122
0.001687860810779447,0.123
0.0010830345300087362,0.124
0.0006582867568047513,0.125
0.0005156098372069025,0.126
0.0008728728981563308,0.127
0.002022097311940718,0.128
0.004212698593930072,0.129
0.007469578266550572,0.13
0.011373248761064386,0.131
0.014929794719484347,0.132
0.016739617299042293,0.133
0.01552967822943658,0.134
0.010784694081434293,0.135
0.003067822637887368,0.136
-0.0061365533860821275,0.137
-0.014900324815422701,0.138
-0.02139718064410634,0.139
-0.024348264995814467,0.14
-0.02331161918949264,0.141
-0.018787362910140756,0.142
-0.012061979588243912,0.143
-0.004775239508046357,0.144
0.0016116649961756767,0.145
0.006184450116917928,0.146
0.008658531871427552,0.147
0.009237531684397813,0.148
0.008382157760972274,0.149
0.006623990141224164,0.15
0.00448077319885047,0.151
0.0024131538838769897,0.152
0.0007646447406320505,0.153
-0.00028763956608741014,0.154
-0.0007272210295559533,0.155
-0.0006600101571642424,0.156
-0.0002939954741688238,0.157
8.572093255312805e-05,0.158
0.00020831046115267908,0.159
-5.572450335782425e-05,0.16
-0.0006407654315312542,0.161
-0.0013302021490780283,0.162
-0.0018346151717637856,0.163
-0.0018830081311508248,0.164
-0.0013274799085962934,0.165
-0.0002171986142544473,0.166
0.001201878885771746,0.167
0.002553849889048267,0.168
0.003450565069776608,0.169
0.003653319639992748,0.17
0.0031861627544882386,0.171
0.002294140720924115,0.172
0.0013053761599598097,0.173
0.0005268976442202975,0.174
0.00018611540091256865,0.175
0.0003666255006144741,0.176
0.0009635227435741244,0.177
0.001717062998612493,0.178
0.0023098055286953027,0.179
0.0024698683098715295,0.18
0.002047290033593687,0.181
0.001050395939040642,0.182
-0.0003662239995171793,0.183
-0.0019683263647166166,0.184
-0.003543560492216027,0.185
-0.004970794740328952,0.186
-0.006204334716345531,0.187
-0.0072000246596522505,0.188
-0.007865155594524716,0.189
-0.008071245087125738,0.19
-0.007673422269904081,0.191
-0.00651631522136016,0.192
-0.004493531189320452,0.193
-0.0016460820324716138,0.194
0.0017811666393569483,0.195
0.005341636754181375,0.196
0.008459993039046166,0.197
0.010590095337913512,0.198
0.011394683168109605,0.199
0.010863113935353535,0.2
0.009312083786173878,0.201
0.007246879352501876,0.202
0.005158172318762221,0.203
0.003374356548082633,0.204
0.002010205350618762,0.205
0.00099558114836381,0.206
0.00014895160707681065,0.207
-0.0007428915465877564,0.208
-0.0018312704245315595,0.209
-0.0031048048692603252,0.21
-0.004364939366053965,0.211
-0.005316340069391845,0.212
-0.005694024356917296,0.213
-0.00535457053989946,0.214
-0.0043287169360378824,0.215
-0.0028458163242157954,0.216
-0.0013271233000986234,0.217
-0.00034675063683864605,0.218
-0.0005540384144312037,0.219
-0.0025077484916368265,0.22
-0.006397101284327663,0.221
-0.011767826209882737,0.222
-0.01743647333118241,0.223
-0.021701850431544118,0.224
-0.02286033903266806,0.225
-0.019873480863220844,0.226
-0.012844429483327065,0.227
-0.0030170015495902328,0.228
0.007660115647296045,0.229
0.017190347759128564,0.23
0.024196922575990668,0.231
0.02828786053901903,0.232
0.02989960954972845,0.233
0.029780685608839383,0.234
0.028431192798926096,0.235
0.025780075808127235,0.236
0.0213416380040779,0.237
0.014785459040232493,0.238
0.006456345431077623,0.239
-0.002578896981301764,0.24
-0.010913964809214768,0.241
-0.017260111001710564,0.242
-0.020764509415595725,0.243
-0.02119511769772304,0.244
-0.018985557997467657,0.245
-0.015071284275606915,0.246
-0.010586224199897647,0.247
-0.006597808268455864,0.248
-0.0038910841774116435,0.249
-0.0027663622080980246,0.25
-0.002986772562360552,0.251
-0.003949077468635268,0.252
-0.004957344876691373,0.253
-0.005458216347035082,0.254
-0.005139546260597719,0.255
-0.0038977684200413357,0.256
-0.0017912870739745226,0.257
0.000982183168250827,0.258
0.004133193448285305,0.259
0.007340952446795408,0.26
0.01026575243203998,0.261
0.012488151957118615,0.262
0.013471835671353937,0.263
0.012704694590749648,0.264
0.009983654230615127,0.265
0.005609878010811592,0.266
0.00033580189681668265,0.267
-0.0048775375483260915,0.268
-0.009127080266213521,0.269
-0.011736765583962564,0.27
-0.012325819267287623,0.271
-0.010859707991470756,0.272
-0.007711694959033095,0.273
-0.003643000364624304,0.274
0.0003814012660827517,0.275
0.0034898642990651685,0.276
0.005179956222413153,0.277
0.005449332385136221,0.278
0.0047038590604270665,0.279
0.0034955174115109513,0.28
0.002261012180049747,0.281
0.0011899466152489916,0.282
0.0002434863181091744,0.283
-0.0007375513945774484,0.284
-0.0019015727571782834,0.285
-0.003240177735687553,0.286
-0.004483471216324543,0.287
-0.005170527419465967,0.288
-0.0048934732800824,0.289
-0.0035201243799215104,0.29
-0.0012345092184052212,0.291
0.0015838519313525628,0.292
0.004521286607320543,0.293
0.007241055355520544,0.294
0.00952639782501556,0.295
0.01126813612127256,0.296
0.012384521574536263,0.297
0.012672374880915807,0.298
0.011695887847057834,0.299
0.008884858022570767,0.3
0.003870677195008035,0.301
-0.0031327953274460545,0.302
-0.01114137349418003,0.303
-0.018519274810366332,0.304
-0.02338953807698826,0.305
-0.024229534058366666,0.306
-0.020428502236411353,0.307
-0.012541223011499195,0.308
-0.0021289225857152316,0.309
0.008700129053148552,0.31
0.017819621554538947,0.311
0.023502664837417805,0.312
0.024733607720908393,0.313
0.02145791741553521,0.314
0.014623266259308201,0.315
0.005880149254837046,0.316
-0.00291883564220017,0.317
-0.010186780540106419,0.318
-0.014921636067302341,0.319
-0.016843916589387338,0.32
-0.01633006676966709,0.321
-0.014159759887573635,0.322
-0.011162589122785926,0.323
-0.007924062477687744,0.324
-0.0047297231827472825,0.325
-0.0017393753208461106,0.326
0.0008306954713157149,0.327
0.002693608689387254,0.328
0.0036277247996125994,0.329
0.003628032673745464,0.33
0.0029390514144288214,0.331
0.0019421662046027115,0.332
0.0010180916150793222,0.333
0.000502030381814643,0.334
0.0006796738684062129,0.335
0.0017179110548570199,0.336
0.0035647757168681083,0.337
0.005905558118208031,0.338
0.00819797188160746,0.339
0.009796402436619757,0.34
0.010153770311681864,0.341
0.009041603936261836,0.342
0.00665990379744483,0.343
0.0035060068143849933,0.344
8.520165690315768e-05,0.345
-0.003284604106575362,0.346
-0.006436939775596398,0.347
-0.00916503019309805,0.348
-0.011064540677146696,0.349
-0.011580410272826436,0.35
-0.010270691260758968,0.351
-0.007110986339667707,0.352
-0.00262944760739593,0.353
0.002193382242061846,0.354
0.00619004956700591,0.355
0.008376598947355375,0.356
0.008341425287708641,0.357
0.006410414280672443,0.358
0.0034353288583973576,0.359
0.00039716421093757815,0.36
-0.0019039378051949405,0.361
-0.0029885562995742247,0.362
-0.0026923294694501895,0.363
-0.0010990741450298616,0.364
0.0014539721539168391,0.365
0.00427733796754084,0.366
0.006338027889754958,0.367
0.0066104981219659385,0.368
0.004669365867557677,0.369
0.001067847094413553,0.37
-0.002843967556198506,0.371
-0.005554456611297257,0.372
-0.006073498908596324,0.373
-0.004310912262806315,0.374
-0.0010334819333823405,0.375
0.0024999803689293018,0.376
0.005013857989941146,0.377
0.005603105700863907,0.378
0.003922173847848366,0.379
0.0001646707517588955,0.38
-0.005095734800125873,0.381
-0.011076755166665782,0.382
-0.016845803704665152,0.383
-0.02126934797081396,0.384
-0.02305216841393057,0.385
-0.021099386450018805,0.386
-0.015124080090458267,0.387
-0.006045874585022901,0.388
0.004188313127125308,0.389
0.013287668240135988,0.39
0.019438837600510468,0.391
0.021887044581077923,0.392
0.021034550037619757,0.393
0.018053214364239192,0.394
0.014261986457691824,0.395
0.010585886893896251,0.396
0.007319508656264339,0.397
0.004277118849666309,0.398
0.0012002963834086694,0.399
-0.001857881122356508,0.4
-0.004404184553226867,0.401
-0.005711614173314424,0.402
-0.005265988214503306,0.403
-0.003188988317945109,0.404
-0.0003242136894647757,0.405
0.0021636179895960193,0.406
0.003431933263967676,0.407
0.003337801121201509,0.408
0.0023302577403002656,0.409
0.001081143933634299,0.41
0.00014497909424021887,0.411
-0.00023291065173053498,0.412
-0.00016976695562994146,0.413
-8.338231390760207e-05,0.414
-0.0005177209486264369,0.415
-0.0019051561250331794,0.416
-0.004355214122944254,0.417
-0.007528579949200667,0.418
-0.010659611969616067,0.419
-0.01278617728758798,0.42
-0.01311766908663093,0.421
-0.011369273600151617,0.422
-0.007899433047644589,0.423
-0.003564111281810035,0.424
0.0006354780225607471,0.425
0.0038843918983480575,0.426
0.0056821322391977635,0.427
0.005808376369271286,0.428
0.004295705435029609,0.429
0.00144904250874458,0.43
-0.00217971291727158,0.431
-0.005873454246503122,0.432
-0.008835957154318948,0.433
-0.01031863303900398,0.434
-0.009847401850116438,0.435
-0.007467197104092954,0.436
-0.0037844574958405004,0.437
0.00032395971632088696,0.438
0.0041755767357644896,0.439
0.007612048176633697,0.44
0.011046940380812208,0.441
0.015274770491919339,0.442
0.0210724388164473,0.443
0.028604888394473345,0.444
0.03683434092096299,0.445
0.04334895586752027,0.446
0.04500206703493546,0.447
0.03931824714042602,0.448
0.02589016276084155,0.449
0.0067702930858486625,0.45
-0.0143748291249259,0.451
-0.03367673719401972,0.452
-0.04821036919236404,0.453
-0.05650497744782507,0.454
-0.058502243758105935,0.455
-0.0551513102491346,0.456
-0.047834080823910066,0.457
-0.037869718425813666,0.458
-0.026310951442756997,0.459
-0.014024520909891964,0.46
-0.0018440597300272833,0.461
0.00938564981114336,0.462
0.018911761782945125,0.463
0.026233521361325455,0.464
0.03117903984940287,0.465
0.0338379598461197,0.466
0.03438689994142465,0.467
0.0329269890560393,0.468
0.02948509163173123,0.469
0.024188863636924785,0.47
0.017434393955862215,0.471
0.009910446814985506,0.472
0.002508195797058877,0.473
-0.003862160542842116,0.474
-0.008536267753723265,0.475
-0.01131103392223047,0.476
-0.01245960073634161,0.477
-0.012529674273451153,0.478
-0.012056870420096918,0.479
-0.011401692400916156,0.48
-0.010819244151423517,0.481
-0.010626551945349514,0.482
-0.0112431226618536,0.483
-0.01302697814382318,0.484
-0.01599602069280002,0.485
-0.019581018038429234,0.486
-0.0225416884136173,0.487
-0.02313169277931172,0.488
-0.01948177212180404,0.489
-0.010122672974663452,0.49
0.005339963707055642,0.491
0.02546224365091274,0.492
0.046542541692204134,0.493
0.06321846955362052,0.494
0.07028620932839333,0.495
0.06490972836165484,0.496
0.04787824875913337,0.497
0.02322703842228982,0.498
-0.0034083213410265748,0.499
-0.026765012628044715,0.5
-0.043378335139738315,0.501
-0.05204690674975741,0.502
-0.05341859315678294,0.503
-0.049113600599699304,0.504
-0.040910981991749154,0.505
-0.03034318575778985,0.506
-0.018705805613944804,0.507
-0.007239676384355409,0.508
0.002814352513424926,0.509
0.010443370692688416,0.51
0.015206790007006449,0.511
0.017350113779977538,0.512
0.017575216342142094,0.513
0.016690869410195788,0.514
0.01539457080008231,0.515
0.014200565189303902,0.516
0.013393583468904107,0.517
0.012988442705267686,0.518
0.01275177474542645,0.519
0.012278495982961773,0.52
0.011081837486813307,0.521
0.008704981619609318,0.522
0.004868240617206028,0.523
-0.00040009177645239976,0.524
-0.006713629911711045,0.525
-0.013360277414540751,0.526
-0.019395489640957587,0.527
-0.02381124307164014,0.528
-0.025792586114515813,0.529
-0.024995817370532573,0.53
-0.021690477721834397,0.531
-0.016616727109304993,0.532
-0.010611093324418518,0.533
-0.00429453554728842,0.534
0.001916069364952652,0.535
0.007567759041004392,0.536
0.012084927665150761,0.537
0.015068340785065618,0.538
0.016730454234043634,0.539
0.01791574075627491,0.54
0.019493589022859296,0.541
0.02160307293228621,0.542
0.02343862362248363,0.543
0.023742332551846882,0.544
0.021567101069255887,0.545
0.01679852203132274,0.546
0.010199845677960537,0.547
0.0030149659414826055,0.548
-0.0036225372868954734,0.549
-0.009132819988184751,0.55
-0.013566156966820826,0.551
-0.01733681915170199,0.552
-0.02082670127932856,0.553
-0.024095694266885383,0.554
-0.026815104924351525,0.555
-0.02839071177865901,0.556
-0.028166113214288187,0.557
-0.02562124948413537,0.558
-0.020529419777197532,0.559
-0.013042345320543563,0.56
-0.0036872761104914564,0.561
0.006687524735521453,0.562
0.01693180356465823,0.563
0.025539813039706535,0.564
0.030707463915305794,0.565
0.030759968367360908,0.566
0.02488153531253506,0.567
0.013780430086762734,0.568
-7.038501344401216e-05,0.569
-0.01290224501082669,0.57
-0.020797749699754814,0.571
-0.020926934629289053,0.572
-0.012298443942493822,0.573
0.0039575861472904055,0.574
0.024589371727864136,0.575
0.04465983158472763,0.576
0.05865198986449126,0.577
0.06206928989031865,0.578
0.05290953227592273,0.579
0.03232269325261149,0.58
0.004162933813531282,0.581
-0.02628121719070629,0.582
-0.053777860836124014,0.583
-0.07426963581842455,0.584
-0.08534148924316437,0.585
-0.08621203826363362,0.586
-0.07752005652766851,0.587
-0.061032004246021176,0.588
-0.039330625217143124,0.589
-0.015459886945653258,0.59
0.007492245417619359,0.591
0.026790615594752355,0.592
0.04041140677700958,0.593
0.0474055561427337,0.594
0.04819290223034279,0.595
0.04455825364028171,0.596
0.0391186092672387,0.597
0.03433156892373474,0.598
0.031469921109988946,0.599
0.0300705257930614,0.6
0.02823804611758495,0.601
0.02379608622495172,0.602
0.01563753548384969,0.603
0.0043960854682009365,0.604
-0.007877035155193222,0.605
-0.018659188288554642,0.606
-0.025930379253082086,0.607
-0.0287149734225489,0.608
-0.027053115484782713,0.609
-0.021658354391875696,0.61
-0.013677493303670577,0.611
-0.004705307590481639,0.612
0.0032086778131316185,0.613
0.007942289930055116,0.614
0.008077647706283308,0.615
0.0035899666192908495,0.616
-0.00404046954004777,0.617
-0.012382018794166321,0.618
-0.018982318819515467,0.619
-0.022196608940496187,0.62
-0.021515954917240503,0.621
-0.017322336491623718,0.622
-0.010396691196075976,0.623
-0.0016351945936241418,0.624
0.007928024289932363,0.625
0.017052972172086213,0.626
0.02436696918907536,0.627
0.028586218599318716,0.628
0.028860160058355674,0.629
0.0250923751934335,0.63
0.017962974865560297,0.631
0.008617593511155444,0.632
-0.001647900769263285,0.633
-0.011495814221620538,0.634
-0.01961848115984924,0.635
-0.024911098724080098,0.636
-0.026601816206550888,0.637
-0.024253376975907334,0.638
-0.01782807347859505,0.639
-0.007957178297295805,0.64
0.0037614634668297385,0.641
0.014749457143982464,0.642
0.02201380889012476,0.643
0.023312875744815727,0.644
0.01829652057245248,0.645
0.0087523664304076,0.646
-0.002298875949698946,0.647
-0.012021996948452867,0.648
-0.01872407072490787,0.649
-0.021915218770794984,0.65
-0.02178491833680733,0.651
-0.018689610446702202,0.652
-0.013038448091042005,0.653
-0.005410969389040257,0.654
0.003520759530454785,0.655
0.01320431393233766,0.656
0.023117317312032096,0.657
0.032384057861283025,0.658
0.03952716310913926,0.659
0.04263186771482919,0.66
0.03995251150111412,0.661
0.030699097703762564,0.662
0.015552530121636965,0.663
-0.0033129327625548884,0.664
-0.02266062264746303,0.665
-0.0388995592964721,0.666
-0.04882552216136808,0.667
-0.05033539159022562,0.668
-0.04312829538204515,0.669
-0.02903902760261032,0.67
-0.011559690505190632,0.671
0.005240345905948379,0.672
0.017769946320012605,0.673
0.023625770907353086,0.674
0.02193609204235298,0.675
0.013462146906455393,0.676
0.0006582985791110124,0.677
-0.01239053027817567,0.678
-0.02071549171047591,0.679
-0.02024019337519702,0.68
-0.009833208112259961,0.681
0.007759237291829249,0.682
0.026826531525921578,0.683
0.040948575842684125,0.684
0.045395257768650686,0.685
0.038641029831628995,0.686
0.02262863672090119,0.687
0.001937321854710382,0.688
-0.017863666861380946,0.689
-0.03210067804025037,0.69
-0.03831057140378979,0.691
-0.036556011392161414,0.692
-0.028787713378583397,0.693
-0.017735699780544362,0.694
-0.00601972073717779,0.695
0.004251139001530025,0.696
0.01153232282210573,0.697
0.014733724055650294,0.698
0.013159050559705465,0.699
0.006744975066510132,0.7
-0.0034279184462920062,0.701
-0.01485261802659872,0.702
-0.023998589463002665,0.703
-0.0273070149877074,0.704
-0.022314970839501562,0.705
-0.00840214618263015,0.706
0.01306455661514418,0.707
0.03895996468364163,0.708
0.06473047228372733,0.709
0.08488584344461078,0.71
0.09380309680350327,0.711
0.08697951654324834,0.712
0.06288141132523563,0.713
0.02466629359504828,0.714
-0.019875629678546176,0.715
-0.06080339320594152,0.716
-0.08968388234254418,0.717
-0.10245044920232396,0.718
-0.10002763242772328,0.719
-0.08674012199849483,0.72
-0.06785248232614445,0.721
-0.04761165416149345,0.722
-0.028419015276790038,0.723
-0.0111280145353741,0.724
0.004107162497730465,0.725
0.017205864097271904,0.726
0.028007328811590876,0.727
0.03632022082955383,0.728
0.041897963672486487,0.729
0.044344076768450785,0.73
0.04316079373618151,0.731
0.03802291091646962,0.732
0.029181196514334748,0.733
0.01782234339576552,0.734
0.006080918677749199,0.735
-0.0035299148953286197,0.736
-0.009090278221727336,0.737
-0.010070680143642544,0.738
-0.007467589932000446,0.739
-0.0032999414100322345,0.74
0.00026809420439810486,0.741
0.0019165240995713804,0.742
0.0017769378898217195,0.743
0.0012215448374124545,0.744
0.0020161075122759396,0.745
0.005340739716083587,0.746
0.011014730529365148,0.747
0.01717168142493217,0.748
0.02071168414760331,0.749
0.018684186183342697,0.75
0.010043488610890884,0.751
-0.003334057591575726,0.752
-0.01702651676993173,0.753
-0.02562862932626928,0.754
-0.0249016887720414,0.755
-0.013761179771275394,0.756
0.004856153106262365,0.757
0.024964845371638254,0.758
0.039869090058833476,0.759
0.04438690661705604,0.76
0.0361277145240186,0.761
0.01601817480320325,0.762
-0.011883766603424911,0.763
-0.04152930862707795,0.764
-0.06663543709463203,0.765
-0.08226492722233579,0.766
-0.08584680008248836,0.767
-0.07757828283620247,0.768
-0.06012177092316287,0.769
-0.037750161481961794,0.77
-0.015283438477178226,0.771
0.0029235679926934216,0.772
0.013933222389296339,0.773
0.017255185593120517,0.774
0.015518970755376555,0.775
0.013747860449720133,0.776
0.01698954275464018,0.777
0.027596907718123627,0.778
0.04387156835032981,0.779
0.06087576299751613,0.78
0.07289290590400947,0.781
0.07603654340911171,0.782
0.06955989355670406,0.783
0.05549475794030777,0.784
0.03731692522123209,0.785
0.018622050048856635,0.786
0.0024089535952036903,0.787
-0.009148878155906382,0.788
-0.014873641814806961,0.789
-0.014739956488839913,0.79
-0.00986206488806177,0.791
-0.00237720505747414,0.792
0.004778022729343302,0.793
0.008428624877745233,0.794
0.005985660627535908,0.795
-0.00385328610432254,0.796
-0.02064302227569716,0.797
-0.04195334088936819,0.798
-0.06360397177417677,0.799
-0.08063717483626856,0.8
-0.08880697747070285,0.801
-0.08589155095036921,0.802
-0.07227222149347609,0.803
-0.050739003204661695,0.804
-0.02579505447055539,0.805
-0.0025516856331700886,0.806
0.014873079737648887,0.807
0.02494621557368375,0.808
0.02912857807126348,0.809
0.03058884218083707,0.81
0.03219492579863312,0.811
0.03515238656489873,0.812
0.038808464086278895,0.813
0.04136836632622188,0.814
0.04096576293815165,0.815
0.03655397762354352,0.816
0.028358119628612437,0.817
0.017893777346381617,0.818
0.007694777962048921,0.819
0.0007824904534921662,0.82
-0.00026507153017637353,0.821
0.005536772762879813,0.822
0.016861115839442463,0.823
0.03018079494312148,0.824
0.040607620813321005,0.825
0.04336694123992949,0.826
0.03563195284647035,0.827
0.017803452413630034,0.828
-0.00661590192807447,0.829
-0.032381101548541735,0.83
-0.05416496292258661,0.831
-0.06780811352755804,0.832
-0.07100757231543221,0.833
-0.06356573622372286,0.834
-0.047354051644890906,0.835
-0.02599824602360091,0.836
-0.00419182639656305,0.837
0.013345481120820256,0.838
0.023134072160355783,0.839
0.024122724344029504,0.84
0.018143992469844147,0.841
0.009029484521864336,0.842
0.0007108352744181439,0.843
-0.004426443127342498,0.844
-0.005976565665728602,0.845
-0.004967102899185641,0.846
-0.003140366639110917,0.847
-0.0024792769712909217,0.848
-0.004867210374479875,0.849
-0.01156169140509669,0.85
-0.02235878312796977,0.851
-0.03487908033483333,0.852
-0.04465279631889602,0.853
-0.04622543153743772,0.854
-0.03494498948756762,0.855
-0.008767611654414626,0.856
0.03053807077415234,0.857
0.07697783713144028,0.858
0.12088459550598576,0.859
0.15082796595567416,0.86
0.15685681193318157,0.861
0.13427841596977313,0.862
0.08629090263870158,0.863
0.02357133574479523,0.864
-0.039499635077729536,0.865
-0.09004638395092013,0.866
-0.12051966272435041,0.867
-0.12956876021115407,0.868
-0.12057865219765092,0.869
-0.09932896463032864,0.87
-0.07174531835899615,0.871
-0.04230739018246258,0.872
-0.013585727644723078,0.873
0.012982816486945,0.874
0.035806053551993906,0.875
0.05241491658351099,0.876
0.05984539706820023,0.877
0.056001291754580344,0.878
0.04125869403385766,0.879
0.01916552497006352,0.88
-0.0044902257600811036,0.881
-0.023984153918700124,0.882
-0.03613171880407718,0.883
-0.041477975882219936,0.884
-0.04349566909233175,0.885
-0.04605647201256498,0.886
-0.050429306864850164,0.887
-0.05389537546614348,0.888
-0.051176994212851025,0.889
-0.03768500607433818,0.89
-0.012421838699422667,0.891
0.021131859566095767,0.892
0.056373037953722,0.893
0.08601159813577412,0.894
0.10416370793175296,0.895
0.10760403087396424,0.896
0.09642909700398566,0.897
0.07408590833507347,0.898
0.046368287960638625,0.899
0.019530618432838414,0.9
-0.0016267299405265086,0.901
-0.014918428250461994,0.902
-0.02085317844575776,0.903
-0.02172269954578897,0.904
-0.02026857168328735,0.905
-0.018621616817604603,0.906
-0.017867028521073046,0.907
-0.018138211982068622,0.908
-0.01891874713485696,0.909
-0.01941687331631072,0.91
-0.019013174452849713,0.911
-0.01762878485878964,0.912
-0.015829941865374144,0.913
-0.014624967493579376,0.914
-0.015016117626256995,0.915
-0.01751707772364041,0.916
-0.022040816922425824,0.917
-0.028300038555141,0.918
-0.03622589723695946,0.919
-0.045930454361270794,0.92
-0.05713273004900722,0.921
-0.06815441897037412,0.922
-0.07522177917766139,0.923
-0.07312650794199761,0.924
-0.05734360502958497,0.925
-0.026591032663153737,0.926
0.015568075170354329,0.927
0.06109969578393813,0.928
0.09987213022012612,0.929
0.12306468251709737,0.93
0.12633875587992122,0.931
0.11159411839090548,0.932
0.08615679210849407,0.933
0.05949639884074548,0.934
0.039629886342953106,0.935
0.03094842657094876,0.936
0.03328018828276222,0.937
0.04194467278940348,0.938
0.04940440951930749,0.939
0.04851168390860338,0.94
0.035636303525197505,0.941
0.01160764839875698,0.942
-0.01973629914288795,0.943
-0.05384358242771001,0.944
-0.08691833951678427,0.945
-0.11579211283840543,0.946
-0.13680178488931413,0.947
-0.14534273483632468,0.948
-0.1372688332997983,0.949
-0.11150528683155317,0.95
-0.0718448002411728,0.951
-0.026341775275457814,0.952
0.015378742869631964,0.953
0.045286389724478834,0.954
0.05923241193957902,0.955
0.057795512120864645,0.956
0.04569457420825786,0.957
0.03008628932382039,0.958
0.01821601001376784,0.959
0.01507239754290288,0.96
0.021801537534776077,0.961
0.03540954532323011,0.962
0.04985307137821498,0.963
0.05828752433435078,0.964
0.05583471320216677,0.965
0.04157883659223393,0.966
0.01857857456396101,0.967
-0.007899905940591933,0.968
-0.03248913767080983,0.969
-0.05088095632281052,0.97
-0.0597629381402282,0.971
-0.05644487257374537,0.972
-0.03949761437454339,0.973
-0.010476739925588913,0.974
0.02481565349981143,0.975
0.0571566697670842,0.976
0.07703943782221045,0.977
0.07839837373460964,0.978
0.0604853893109343,0.979
0.027386717699868827,0.98
-0.013464036886005674,0.981
-0.053025743522879164,0.982
-0.08264925192045539,0.983
-0.09589704392725884,0.984
-0.0897074607446309,0.985
-0.06495856804365245,0.986
-0.026566313613782408,0.987
0.017126728371746884,0.988
0.05617021665913488,0.989
0.08182271380146644,0.99
0.08908287097160884,0.991
0.07778152290776848,0.992
0.05208696838919372,0.993
0.019078303682642222,0.994
-0.013018611112856297,0.995
-0.03685772385152222,0.996
-0.047966862105510356,0.997
-0.04597241812436849,0.998
-0.034530020356795636,0.999
-0.019870658315933272,1.0
-0.008348929865242168,1.001
-0.004043427162773075,1.002
-0.007623171107987081,1.003
-0.01685819926640839,1.004
-0.028083180809523274,1.005
-0.03750512066089164,1.006
-0.04182767588519687,1.007
-0.03860429105978781,1.008
-0.02678773672457253,1.009
-0.007252188711130573,1.01
0.017208487958875578,1.011
0.04244666457237179,1.012
0.06374024840453234,1.013
0.07671674825036465,1.014
0.0785819778450957,1.015
0.0692529192756936,1.016
0.0514940828388837,1.017
0.02967719542248811,1.018
0.007944366938913561,1.019
-0.010988581902345305,1.02
-0.026026235230375578,1.021
-0.03733812009862726,1.022
-0.045699373943771486,1.023
-0.05158666089266024,1.024
-0.05446386538677468,1.025
-0.05281554277582722,1.026
-0.04500207547627917,1.027
-0.030455248758228425,1.028
-0.010468606434676085,1.029
0.011948055964860347,1.03
0.033004334020634636,1.031
0.04929166009230167,1.032
0.05869295088875643,1.033
0.06071137191458301,1.034
0.056094794915910795,1.035
0.04597772052202244,1.036
0.031072941241443688,1.037
0.01140311526242768,1.038
-0.01304439954059511,1.039
-0.04058958489986869,1.04
-0.0662899881199197,1.041
-0.08268799359140613,1.042
-0.08325336388957459,1.043
-0.06621291437512815,1.044
-0.035961761665948715,1.045
-0.0014290928436586634,1.046
0.02717226932200709,1.047
0.04170709464118887,1.048
0.03849412805024502,1.049
0.01922311883725787,1.05
-0.00914369959230171,1.051
-0.03563440262972403,1.052
-0.04857581599372568,1.053
-0.04011133831876704,1.054
-0.009492459861101253,1.055
0.036380808185719545,1.056
0.08507852551444248,1.057
0.12229754267068083,1.058
0.13577954558546648,1.059
0.11884753480603685,1.06
0.07300848856440734,1.061
0.008454936246258649,1.062
-0.05844116552203814,1.063
-0.11014021241406548,1.064
-0.13359170257837077,1.065
-0.12411495231281611,1.066
-0.08606211107997092,1.067
-0.030783794865050947,1.068
0.02681122022529018,1.069
0.07213220536849216,1.07
0.09436803341213326,1.071
0.08880242266193701,1.072
0.057503565670042035,1.073
0.008309047477606031,1.074
-0.04727895581577339,1.075
-0.09641993819145016,1.076
-0.12722957427953197,1.077
-0.13123028108821028,1.078
-0.10568089317971802,1.079
-0.054878994576220225,1.08
0.010423244289238211,1.081
0.07556341523151935,1.082
0.1256035703766268,1.083
0.14888943458392231,1.084
0.1397218951494348,1.085
0.09972635803651446,1.086
0.03782077637307477,1.087
-0.031424559062345446,1.088
-0.09149576760272127,1.089
-0.12896176774953652,1.09
-0.1373292491595725,1.091
-0.1179073381017933,1.092
-0.07821732898946493,1.093
-0.02923524438969117,1.094
0.018089017744738315,1.095
0.05628789548479804,1.096
0.0830668679699835,1.097
0.100381445544447,1.098
0.11194643496283939,1.099
0.12077110383483791,1.1
0.12751350636180453,1.101
0.12968691847222166,1.102
0.12195785867272799,1.103
0.09829316957449524,1.104
0.05577297038281143,1.105
-0.002349962308319095,1.106
-0.0669155066565534,1.107
-0.12613346791691268,1.108
-0.16945546816333656,1.109
-0.19012851843168008,1.11
-0.18604785708856128,1.111
-0.15948412169902357,1.112
-0.116101477062899,1.113
-0.06350796871714971,1.114
-0.009858939635081382,1.115
0.03715376117391845,1.116
0.07105319560684112,1.117
0.08726279845636678,1.118
0.08386642298837298,1.119
0.06240135522185426,1.12
0.028109151876912025,1.121
-0.010944123045943041,1.122
-0.04565221059439917,1.123
-0.0679064998657401,1.124
-0.07244060717606184,1.125
-0.05804689285813038,1.126
-0.02778163617169262,1.127
0.011778171042645577,1.128
0.05189576853369223,1.129
0.08349062781017097,1.13
0.09939501086405288,1.131
0.0966017875245457,1.132
0.07743408455152154,1.133
0.048861829628773445,1.134
0.020225976324304257,1.135
0.00035531293355070884,1.136
-0.004944025432534049,1.137
0.005518238431292321,1.138
0.027835141397381954,1.139
0.05371115442176314,1.14
0.07246750097848753,1.141
0.07428798882041152,1.142
0.05381006228046318,1.143
0.012351197814877713,1.144
-0.04237608175301952,1.145
-0.09859863016092155,1.146
-0.14341452226045345,1.147
-0.16546081699126203,1.148
-0.15770930752811965,1.149
-0.12042218152459694,1.15
-0.06250467051867814,1.151
0.0006171090387072433,1.152
0.05236812442753846,1.153
0.08129134160029143,1.154
0.08498459151310063,1.155
0.0697076661037343,1.156
0.046349761968773336,1.157
0.02519034505180033,1.158
0.011837154757745992,1.159
0.0059118131921101075,1.16
0.002899429027863808,1.161
-0.0022600939842271515,1.162
-0.012427751801958141,1.163
-0.027582733917345458,1.164
-0.0453030270073983,1.165
-0.0613219847255931,1.166
-0.07013841211545155,1.167
-0.06625927072881842,1.168
-0.04624107324420808,1.169
-0.010782661036744644,1.17
0.03431528863487106,1.171
0.07905345025407282,1.172
0.11196685964331872,1.173
0.12399259570372557,1.174
0.11196329005371732,1.175
0.07993104051702356,1.176
0.03751884545472189,1.177
-0.0038905851712668473,1.178
-0.03514113795728386,1.179
-0.05166150919295584,1.18
-0.0537961093309029,1.181
-0.04570271405876804,1.182
-0.03331344942828163,1.183
-0.02178366236913841,1.184
-0.013465897019822686,1.185
-0.007620764942058965,1.186
-0.0018615059221688606,1.187
0.0058826428460888695,1.188
0.015909342797655372,1.189
0.026169960818614498,1.19
0.03286136162180399,1.191
0.03221112663827998,1.192
0.02257187443898915,1.193
0.005392346178392397,1.194
-0.015679329130698024,1.195
-0.03676977686947553,1.196
-0.05519942652402138,1.197
-0.06960980697366709,1.198
-0.07936623009383753,1.199
-0.08404440744466136,1.2
-0.0832014887720144,1.201
-0.07615799917623343,1.202
-0.061808387397937786,1.203
-0.038820740939516506,1.204
-0.00637481297806241,1.205
0.034681904371362544,1.206
0.08063034288259363,1.207
0.12436267815502781,1.208
0.1563245660504949,1.209
0.16726637599779826,1.21
0.15214129235671883,1.211
0.11292129355914365,1.212
0.05812003222681014,1.213
-0.000478987378565477,1.214
-0.05145160357893075,1.215
-0.08631994785892484,1.216
-0.10106542317274667,1.217
-0.0965308015297137,1.218
-0.07759159009833912,1.219
-0.0513691104864123,1.22
-0.025077679157865053,1.221
-0.004211775699858028,1.222
0.008420829414007028,1.223
0.01277214011237071,1.224
0.010931843642311923,1.225
0.0060759810809744375,1.226
0.0013647249290699719,1.227
-0.0008987392029602325,1.228
0.0002642921294341834,1.229
0.004422364687751197,1.23
0.009988042208650598,1.231
0.014737081597931209,1.232
0.016501401754833285,1.233
0.013930726488587291,1.234
0.00711477099009881,1.235
-0.0022642904164161103,1.236
-0.01144509001805482,1.237
-0.017641655076273008,1.238
-0.019202853163355103,1.239
-0.016238746633693166,1.24
-0.010311541678654052,1.241
-0.0035136101119234305,1.242
0.002320182986604598,1.243
0.0059513911994920924,1.244
0.006846089943761048,1.245
0.005231964720051881,1.246
0.002036794834990435,1.247
-0.0014336368739264291,1.248
-0.004020459901012415,1.249
-0.005163799062912769,1.25
-0.0050587832263499395,1.251
-0.004415587655912231,1.252
-0.0038772647167999103,1.253
-0.003480241398153146,1.254
-0.002649492840652387,1.255
-0.0006848178637464007,1.256
0.002759305160728578,1.257
0.007414260280660504,1.258
0.012286850521842715,1.259
0.015804359766190167,1.26
0.01639702528993848,1.261
0.013287258025715672,1.262
0.006900217775861779,1.263
-0.0013694921681650428,1.264
-0.009774063632807051,1.265
-0.016776897862912192,1.266
-0.021264065432414773,1.267
-0.022417784619550563,1.268
-0.01953611868887779,1.269
-0.01212224648522359,1.27
-0.00031114605530796653,1.271
0.014746669618855138,1.272
0.03097720023953201,1.273
0.04576259277663002,1.274
0.05613580983366108,1.275
0.05900494094105234,1.276
0.05196788644110501,1.277
0.034525186935643916,1.278
0.008917256656825875,1.279
-0.02000183832285144,1.28
-0.04608561515485514,1.281
-0.0640022174789042,1.282
-0.07096037654154977,1.283
-0.06713898893145549,1.284
-0.05499855439957301,1.285
-0.038208470771826625,1.286
-0.020614475745422623,1.287
-0.005243601311385206,1.288
0.006576182656881342,1.289
0.015507767288874506,1.29
0.023491603443444795,1.291
0.032304810833449604,1.292
0.04223921696191859,1.293
0.051580741760807056,1.294
0.057075061066095424,1.295
0.0552352324789078,1.296
0.04401260783075839,1.297
0.023993358881953104,1.298
-0.0016189935150440892,1.299
-0.028162975140388548,1.3
-0.050979558237967425,1.301
-0.06647133075968664,1.302
-0.07264322415005821,1.303
-0.06931702925704322,1.304
-0.058060400175910944,1.305
-0.041586091738192194,1.306
-0.022695124053116432,1.307
-0.0034010332733527583,1.308
0.015194646996971692,1.309
0.032271273363906186,1.31
0.046535409291400105,1.311
0.05616678005617512,1.312
0.05953695946714495,1.313
0.055938669469997336,1.314
0.04580163539898803,1.315
0.030522228104332926,1.316
0.01223120104603647,1.317
-0.00629804950508512,1.318
-0.021830018605576,1.319
-0.031400459275048594,1.32
-0.03344627313210405,1.321
-0.0284848825926899,1.322
-0.01876936285703156,1.323
-0.007209686440383712,1.324
0.003681594283813233,1.325
0.012269430670494132,1.326
0.01764683611943696,1.327
0.01931141969314264,1.328
0.017272483361072847,1.329
0.012422822924333509,1.33
0.006353744085613341,1.331
0.0005418978756738586,1.332
-0.004324146309548833,1.333
-0.008423556307905044,1.334
-0.012381704752825105,1.335
-0.01661135922242609,1.336
-0.020821791505168545,1.337
-0.02405560184286722,1.338
-0.025140032246041017,1.339
-0.023161787388665884,1.34
-0.01780317875942037,1.341
-0.00956894397058046,1.342
0.00017176573692468378,1.343
0.009498234359825577,1.344
0.01654568665421069,1.345
0.020095041412809714,1.346
0.01988116190878815,1.347
0.01648946897166467,1.348
0.010912154470763937,1.349
0.004077915365110094,1.35
-0.00335208109772051,1.351
-0.010888110186479668,1.352
-0.017966324189818333,1.353
-0.02372207154167915,1.354
-0.02685803295070831,1.355
-0.025606978627157342,1.356
-0.0179745549644304,1.357
-0.002580947649809554,1.358
0.020014085527019863,1.359
0.04619856433597198,1.36
0.06933043020245425,1.361
0.08163182040949028,1.362
0.07756804739746753,1.363
0.05668799105291864,1.364
0.02394313135160404,1.365
-0.012448727457317815,1.366
-0.043962203255169766,1.367
-0.06418762571856405,1.368
-0.07032691454582421,1.369
-0.06361016998547887,1.37
-0.048362552484958375,1.371
-0.0300792697785071,1.372
-0.013542464637611225,1.373
-0.0017030410207316282,1.374
0.004595722273449428,1.375
0.006257176936061623,1.376
0.005215082246749313,1.377
0.0036623006997112866,1.378
0.0034379624764920643,1.379
0.0056314641285367395,1.38
0.010327219371172317,1.381
0.01647170151958671,1.382
0.022058259339663912,1.383
0.024784502758566418,1.384
0.02300546650058125,1.385
0.016535466954405522,1.386
0.006786859038007589,1.387
-0.0039177952521230325,1.388
-0.013367028042827708,1.389
-0.02009461514935825,1.39
-0.023322036835775745,1.391
-0.022555288652910146,1.392
-0.01752343385558654,1.393
-0.008698886255883062,1.394
0.00215095654546523,1.395
0.01213299522771881,1.396
0.018268006126068423,1.397
0.01879004510151691,1.398
0.013941728480898547,1.399
0.0058937403157438145,1.4
-0.0021100191906907335,1.401
-0.006968635285661569,1.402
-0.006870436200339814,1.403
-0.0020003569570621786,1.404
0.005530794815068867,1.405
0.012550343092964121,1.406
0.016116709783320013,1.407
0.01477147006953949,1.408
0.009103863350449439,1.409
0.0011517218723402691,1.41
-0.006845919194986136,1.411
-0.013325865421384373,1.412
-0.01759856146497802,1.413
-0.019666041712694465,1.414
-0.019883388282294655,1.415
-0.018614060213487764,1.416
-0.0160821289259878,1.417
-0.012491283068545628,1.418
-0.008219250186567634,1.419
-0.0038426179868723464,1.42
2.8384831056782742e-05,1.421
0.002931579174679223,1.422
0.004640813341948755,1.423
0.0052449477110495125,1.424
0.0052950437784143505,1.425
0.0058721928641960845,1.426
0.008319470842527906,1.427
0.013634143053251158,1.428
0.021903464313373883,1.429
0.03207125216557761,1.43
0.04192558892944024,1.431
0.04831493804463393,1.432
0.04793152261388269,1.433
0.03867240968444366,1.434
0.020883420085335332,1.435
-0.0023564007011033605,1.436
-0.02621565705898754,1.437
-0.045932987981840666,1.438
-0.058432323867465524,1.439
-0.06277950900500329,1.44
-0.0596140034116157,1.441
-0.05044439203108885,1.442
-0.03732214087214973,1.443
-0.022713201518797684,1.444
-0.00914021008145512,1.445
0.0014542919415959257,1.446
0.008232665685452488,1.447
0.011568641008172825,1.448
0.01272532957053854,1.449
0.013286608159718633,1.45
0.014645094617492808,1.451
0.0177037619283149,1.452
0.022642091732557344,1.453
0.028678713531248443,1.454
0.034080743835768576,1.455
0.036660876180499805,1.456
0.034673086528133897,1.457
0.02762368059846289,1.458
0.016451655260025434,1.459
0.00307388454008124,1.46
-0.010220000806473957,1.461
-0.0212292111253218,1.462
-0.02820896821032284,1.463
-0.030187311343227913,1.464
-0.02719416535403935,1.465
-0.020354138419369883,1.466
-0.011710571616672865,1.467
-0.0036357048667539603,1.468
0.002025240162138712,1.469
0.004588208459734549,1.47
0.0045150711323161345,1.471
0.0027810887871979914,1.472
0.00015605362129388054,1.473
-0.002995307140122898,1.474
-0.006340964684554416,1.475
-0.009192860318405651,1.476
-0.010605557231707727,1.477
-0.009899221604987492,1.478
-0.00712234254052466,1.479
-0.0030533457075644236,1.48
0.0012461130170251381,1.481
0.004960119446371923,1.482
0.0077376067217139076,1.483
0.00954177203880769,1.484
0.010398253308772141,1.485
0.010282469286230172,1.486
0.009176101495322027,1.487
0.007223770347581028,1.488
0.0048815119225442,1.489
0.0028955235068068223,1.49
0.002062819336650957,1.491
0.002922292090299226,1.492
0.005506390941876422,1.493
0.00919660634765468,1.494
0.012800606584503894,1.495
0.01496203186936282,1.496
0.014720218546131056,1.497
0.011839059793885828,1.498
0.006724650567532925,1.499
7.955762144364421e-05,1.5
-0.007363254256816155,1.501
-0.014792182040645325,1.502
-0.021154067829594565,1.503
-0.02528709042402345,1.504
-0.02637070629478296,1.505
-0.024300629697592,1.506
-0.019721180496436116,1.507
-0.013760007619530753,1.508
-0.007618415201266993,1.509
-0.00220731173276934,1.51
0.0020157994348390658,1.511
0.005017803430975391,1.512
0.007047348087861685,1.513
0.008431274036165764,1.514
0.009405851687772268,1.515
0.010075389824829894,1.516
0.010474006605354405,1.517
0.01063763847052343,1.518
0.010634982917237835,1.519
0.01055028401887171,1.52
0.010401962915915856,1.521
0.009983431376713058,1.522
0.008718955251937669,1.523
0.0057999096952003025,1.524
0.0007602584861110495,1.525
-0.0058453041114707605,1.526
-0.012276187059026295,1.527
-0.01628562526741824,1.528
-0.01637255282141198,1.529
-0.012726054500737537,1.53
-0.007085324544059679,1.531
-0.0016910889959000663,1.532
0.0018380810100195166,1.533
0.003089153012501699,1.534
0.0027475718589801915,1.535
0.0019836835717752617,1.536
0.001816817696906214,1.537
0.002819167013093102,1.538
0.004972011685486421,1.539
0.007481540154473062,1.54
0.008840719700982089,1.541
0.0074319303807386895,1.542
0.0024766120772753406,1.543
-0.005278576209433936,1.544
-0.013610016864669451,1.545
-0.01950624301020779,1.546
-0.020162386484093166,1.547
-0.014056011639402979,1.548
-0.001812698012373809,1.549
0.013558355951958591,1.55
0.02734588390261162,1.551
0.034721441520977704,1.552
0.03274051828204964,1.553
0.02170226723667438,1.554
0.005011570436644058,1.555
-0.012193816899880758,1.556
-0.02476524689356052,1.557
-0.02903158747137459,1.558
-0.023807781649436786,1.559
-0.010778170504335412,1.56
0.0058103387469159865,1.561
0.020209986811822456,1.562
0.02701162777786606,1.563
0.023222315736055297,1.564
0.009457986552802763,1.565
-0.01043406884964299,1.566
-0.030960258649176724,1.567
-0.04680669104254253,1.568
-0.05411126068243029,1.569
-0.05101714920284312,1.57
-0.03778146358989882,1.571
-0.016703710128113926,1.572
0.008123554458189452,1.573
0.03152501068873632,1.574
0.04860811818228548,1.575
0.05637277938659358,1.576
0.05464448014554953,1.577
0.04568599650293692,1.578
0.03277605041414886,1.579
0.01875735399500392,1.58
0.005405899075134954,1.581
-0.006307366666953861,1.582
-0.01566521187456831,1.583
-0.021980271388147333,1.584
-0.024807133505436212,1.585
-0.024213837135856998,1.586
-0.020698048132688673,1.587
-0.014826687859173016,1.588
-0.007093140003646872,1.589
0.0017600262482656498,1.59
0.01030256447090108,1.591
0.016515276484916568,1.592
0.018597417286590416,1.593
0.015820737205823297,1.594
0.008757987682481556,1.595
-0.0010838105819190105,1.596
-0.011800617521710376,1.597
-0.021505827695417874,1.598
-0.02864294250734254,1.599
-0.03226876906540305,1.6
-0.03218055990519832,1.601
-0.02880529310585582,1.602
-0.022952131840184697,1.603
-0.015530886196742163,1.604
-0.007311509135869907,1.605
0.0011832676051629109,1.606
0.009613655965997933,1.607
0.01767587145875288,1.608
0.025011293340728633,1.609
0.031208888977350552,1.61
0.035812552875952454,1.611
0.038268732727582924,1.612
0.03791191526701295,1.613
0.03414137767345663,1.614
0.026808977375169258,1.615
0.0166132717051773,1.616
0.0051602730979965076,1.617
-0.005431883630199755,1.618
-0.013134627782762122,1.619
-0.01654902953331366,1.62
-0.015359853486387465,1.621
-0.010666139162529793,1.622
-0.004920589749658104,1.623
-0.0011825013482420388,1.624
-0.001787770459706867,1.625
-0.007205433946692866,1.626
-0.015895623318616207,1.627
-0.0251199466581183,1.628
-0.032050611910464565,1.629
-0.034666920093391236,1.63
-0.03219648790072065,1.631
-0.025056775458138895,1.632
-0.014468302849233328,1.633
-0.002033369788385017,1.634
0.010523094629134295,1.635
0.021479063229273967,1.636
0.029261294652933926,1.637
0.032699458608966205,1.638
0.03128911439756547,1.639
0.025307441279615584,1.64
0.01576924935291051,1.641
0.004288966161140016,1.642
-0.007158654345518657,1.643
-0.016612057038144154,1.644
-0.02251924224668793,1.645
-0.023975778357716814,1.646
-0.020794527648072863,1.647
-0.013506832532693195,1.648
-0.0033208737404315063,1.649
0.00799469323315296,1.65
0.018345688449093206,1.651
0.025733330302366412,1.652
0.028849885666941945,1.653
0.027566318433184377,1.654
0.02288510523241615,1.655
0.01628201816602352,1.656
0.008906683884473413,1.657
0.001184097344065764,1.658
-0.007095392470273379,1.659
-0.016407555152136075,1.66
-0.02696212570386847,1.661
-0.03810740053807697,1.662
-0.04798075480033286,1.663
-0.05379016791910646,1.664
-0.05275399825008224,1.665
-0.04322930304489776,1.666
-0.02547534188150834,1.667
-0.0017697069133005643,1.668
0.024083929293704256,1.669
0.04762551749644045,1.67
0.06481194002774832,1.671
0.07309075914863551,1.672
0.07201605520592905,1.673
0.06305504577668898,1.674
0.048735850196818774,1.675
0.03164142768521676,1.676
0.0138065600540873,1.677
-0.0033222958619825394,1.678
-0.018719107249935526,1.679
-0.03169586462466838,1.68
-0.04187303740482517,1.681
-0.04908879108710553,1.682
-0.05321981242667432,1.683
-0.05400292812311353,1.684
-0.05099605671340602,1.685
-0.043783498470272714,1.686
-0.03237277298933254,1.687
-0.017506232733994802,1.688
-0.0006209469321995046,1.689
0.016508732936022404,1.69
0.03214948008607764,1.691
0.04475927955252175,1.692
0.05298964340566661,1.693
0.05581118696220761,1.694
0.052744842013395646,1.695
0.043964244121408286,1.696
0.03028452669446794,1.697
0.013149733875896581,1.698
-0.005454243646673097,1.699
-0.023256601648301775,1.7
-0.03810790937257347,1.701
-0.048395407596649946,1.702
-0.05328230762810384,1.703
-0.052699191715140876,1.704
-0.047176168080618634,1.705
-0.03764924832990563,1.706
-0.02528184945768106,1.707
-0.011292478887224344,1.708
0.0031895713401054776,1.709
0.017207555367505553,1.71
0.02991505917833711,1.711
0.04028949340131054,1.712
0.04682146570376113,1.713
0.04771678902401589,1.714
0.041853061872872035,1.715
0.029850948644105875,1.716
0.01436444194492965,1.717
-0.0006494056217890815,1.718
-0.011295901908547111,1.719
-0.015169881203499219,1.72
-0.012363010661961382,1.721
-0.005570521530063505,1.722
0.0011008682724124139,1.723
0.004140797882934681,1.724
0.0021656794996895473,1.725
-0.0038432753182473973,1.726
-0.011468869346454663,1.727
-0.018257350614388806,1.728
-0.022654900524599605,1.729
-0.024036199795427645,1.73
-0.022331201978771115,1.731
-0.017947995061405486,1.732
-0.011920287415116968,1.733
-0.005696470715961112,1.734
-0.0005106308664963904,1.735
0.003070567613268491,1.736
0.005078641216752002,1.737
0.0058334894526156115,1.738
0.005766163463059668,1.739
0.005409906618247447,1.74
0.005398268161661428,1.741
0.006368242662103921,1.742
0.008784792907782968,1.743
0.012760173366160229,1.744
0.017909806418436574,1.745
0.023250829184142865,1.746
0.027222234068146414,1.747
0.028028271928727665,1.748
0.024401534251660435,1.749
0.016421915429480603,1.75
0.005742060080384322,1.751
-0.005042351596328095,1.752
-0.013517835298102875,1.753
-0.01843275152364953,1.754
-0.01997603477500175,1.755
-0.019255810358903704,1.756
-0.01750130543626626,1.757
-0.01561145437691816,1.758
-0.014148745327782672,1.759
-0.013466471292647733,1.76
-0.013696722086013044,1.761
-0.014599267046836412,1.762
-0.015480613946166392,1.763
-0.015319444681001061,1.764
-0.013086785215922518,1.765
-0.008184031483133089,1.766
-0.0007958721909412763,1.767
0.008079915581838178,1.768
0.01693182081611304,1.769
0.02414350481712437,1.77
0.028358231295736985,1.771
0.028776963988122576,1.772
0.025316440221537225,1.773
0.018579965869211183,1.774
0.009734552894398556,1.775
0.0003113886439771082,1.776
-0.008144756134624936,1.777
-0.014464058498150101,1.778
-0.01804491044005913,1.779
-0.018823558350820543,1.78
-0.017174445271822134,1.781
-0.01379430274552813,1.782
-0.00952599319979422,1.783
-0.005174481989754579,1.784
-0.0013933745037158064,1.785
0.0013839524160278152,1.786
0.0029961941703094794,1.787
0.0035565820212678646,1.788
0.0033986674428387077,1.789
0.0029869051270615702,1.79
0.00280471790018137,1.791
0.003217642351579997,1.792
0.0043289312188358854,1.793
0.005936396203552555,1.794
0.007657455121180845,1.795
0.00909443020122438,1.796
0.009904495236241121,1.797
0.009795378726519047,1.798
0.008524619789236163,1.799
0.005954281829608072,1.8
0.002183897686849694,1.801
-0.0022855769733710852,1.802
-0.0065068140376878135,1.803
-0.009301476677404653,1.804
-0.009681105063529436,1.805
-0.0072832476978748045,1.806
-0.002657987408452552,1.807
0.002798165957767235,1.808
0.007373831123904011,1.809
0.009766133638502981,1.81
0.009532955872994171,1.811
0.007069480631127547,1.812
0.003230449362853011,1.813
-0.001138564338298621,1.814
-0.005470747249020534,1.815
-0.009412783406500414,1.816
-0.012602551272058326,1.817
-0.014585312767495758,1.818
-0.014958440445022925,1.819
-0.013591572903988275,1.82
-0.01074025482533152,1.821
-0.006984611138534698,1.822
-0.0030275635937990182,1.823
0.0005259852310672635,1.824
0.003280160459153662,1.825
0.005040711219351205,1.826
0.00576651988402863,1.827
0.005535933355537317,1.828
0.004570585096856484,1.829
0.0033235034714913423,1.83
0.0025026549956777043,1.831
0.002874306185668601,1.832
0.004885503049205059,1.833
0.008289432428756042,1.834
0.011973302713700531,1.835
0.014204509639023923,1.836
0.013343110745120007,1.837
0.00864819945858929,1.838
0.0006358121747260659,1.839
-0.009163433261175503,1.84
-0.018723124053976265,1.841
-0.025959838492187907,1.842
-0.029098244701860385,1.843
-0.02716786676072682,1.844
-0.020451715340789104,1.845
-0.010407974735906683,1.846
0.0009619720634191294,1.847
0.011846009069459663,1.848
0.021094954831363883,1.849
0.028321422554486723,1.85
0.0336123910387767,1.851
0.03697062465618279,1.852
0.03782412741886437,1.853
0.03503860375008968,1.854
0.027561885646117425,1.855
0.015263251007599177,1.856
-0.0006747756019529996,1.857
-0.018025701070489737,1.858
-0.03414844277129785,1.859
-0.046568587090489236,1.86
-0.05335617638230643,1.861
-0.053385577904313156,1.862
-0.046476539962679295,1.863
-0.033326464205339634,1.864
-0.015369261914570493,1.865
0.005207807674893995,1.866
0.025369049827700572,1.867
0.041448303490153694,1.868
0.0499681211608292,1.869
0.04880648047101083,1.87
0.038010185540893554,1.871
0.019829617512970816,1.872
-0.0018270957482964415,1.873
-0.022194493812300906,1.874
-0.03663070246738523,1.875
-0.04172215742847447,1.876
-0.03623605409457512,1.877
-0.0215618841797865,1.878
-0.001422884559206706,1.879
0.019136623683727014,1.88
0.03518866673823922,1.881
0.043233788182361045,1.882
0.04193124720128905,1.883
0.03217557530436235,1.884
0.016691152229142595,1.885
-0.0007362578787951363,1.886
-0.016303227786663058,1.887
-0.027218926802929696,1.888
-0.03229943437241275,1.889
-0.03193792353017795,1.89
-0.02762326253083305,1.891
-0.021273866994851433,1.892
-0.014587916629097832,1.893
-0.008636938379315728,1.894
-0.0038503703148532126,1.895
-0.0002768898549009674,1.896
0.0021356851528143237,1.897
0.003444726541204147,1.898
0.0038107424552716526,1.899
0.0036175879697826563,1.9
0.0034997761142513623,1.901
0.004270080592488314,1.902
0.0067245434777498305,1.903
0.011337712404170197,1.904
0.017934437054558064,1.905
0.025466059730636082,1.906
0.032100632753155486,1.907
0.035760999483479314,1.908
0.03487623726151515,1.909
0.02889399136970584,1.91
0.01834445013012165,1.911
0.00459251526925495,1.912
-0.01051683669324511,1.913
-0.025011761185196966,1.914
-0.03703359795641926,1.915
-0.044892310641001916,1.916
-0.047167305927149863,1.917
-0.04318206060429961,1.918
-0.03364118376654381,1.919
-0.02074147510391341,1.92
-0.0074565690612759744,1.921
0.0035498230749419304,1.922
0.010708225203973423,1.923
0.013723470528566454,1.924
0.013302743623122037,1.925
0.010740397256605012,1.926
0.007543615047719972,1.927
0.005131078366607142,1.928
0.00458625281020365,1.929
0.006451525796211602,1.93
0.010573195493822844,1.931
0.016037049379079016,1.932
0.021262751986720372,1.933
0.024347532316265425,1.934
0.023671537642339584,1.935
0.018563629999244543,1.936
0.009672940484693159,1.937
-0.0012008220257307865,1.938
-0.011750073080160897,1.939
-0.019942664490871526,1.94
-0.0245846284088358,1.941
-0.025487692019412735,1.942
-0.02329975418127118,1.943
-0.019140466618169535,1.944
-0.014161893735711011,1.945
-0.00918308011225821,1.946
-0.004556336545413925,1.947
-0.0003045835731796583,1.948
0.003608341085922102,1.949
0.007072557522566259,1.95
0.009730658640081222,1.951
0.01092518403937107,1.952
0.009872783679196799,1.953
0.0062869483404644575,1.954
0.0010985481531603839,1.955
-0.003467351644648631,1.956
-0.0046875878232274055,1.957
-0.0005546702617333598,1.958
0.00915924792604266,1.959
0.022411340690835693,1.96
0.035250226125840466,1.961
0.043006598647869675,1.962
0.0419347419528516,1.963
0.030731333237568246,1.964
0.011258881066799054,1.965
-0.012007354129858261,1.966
-0.03361787019480324,1.967
-0.04904986999223003,1.968
-0.05595809638534122,1.969
-0.05431133838221539,1.97
-0.0456780249434957,1.971
-0.032364684167572884,1.972
-0.016880871611498042,1.973
-0.0016835700440077492,1.974
0.011037589159936445,1.975
0.019642664727472822,1.976
0.023354124801404284,1.977
0.02242142928292135,1.978
0.017951156089415752,1.979
0.011501703632449312,1.98
0.004750628149802774,1.981
-0.0006777216004159181,1.982
-0.0033797134346441023,1.983
-0.002401203906948954,1.984
0.0025162975342192927,1.985
0.010708949730755575,1.986
0.020461116498938614,1.987
0.029170659319659436,1.988
0.033998864269155805,1.989
0.03283180275998846,1.99
0.025039008277077904,1.991
0.011657924635492157,1.992
-0.004996792325745819,1.993
-0.022047041327853057,1.994
-0.03674728312850554,1.995
-0.04691425901351932,1.996
-0.05108696235330693,1.997
-0.048643467163680024,1.998
-0.040013066973970085,1.999
-0.026757628051649905,2.0
-0.011244086142700383,2.001
0.0040093898893515285,2.002
0.016995434411855356,2.003
0.026594565261145682,2.004
0.03253635010944743,2.005
0.035054182690149746,2.006
0.03448021070034666,2.007
0.031029562392325776,2.008
0.024917653757018387,2.009
0.016691638307493765,2.01
0.007424928744431555,2.011
-0.0014794656130358165,2.012
-0.008758056199556047,2.013
-0.01368608172992795,2.014
-0.016180568964007793,2.015
-0.0166173161878515,2.016
-0.015548873552561555,2.017
-0.013522434986492906,2.018
-0.01102731364841677,2.019
-0.008484691249035885,2.02
-0.006231786982076975,2.021
-0.004501536621860751,2.022
-0.0034146777177849258,2.023
-0.002989612293393309,2.024
-0.0031363762979437207,2.025
-0.003602617679652935,2.026
-0.0038921599568324176,2.027
-0.0032462360920891427,2.028
-0.0008033459568897529,2.029
0.004033360181229344,2.03
0.011152651506433025,2.031
0.01948253545105237,2.032
0.02720687612034915,2.033
0.032487402790685946,2.034
0.03429042696296257,2.035
0.03274301397324009,2.036
0.028796754195310283,2.037
0.023457288058149048,2.038
0.017072180603560718,2.039
0.009167400208525925,2.04
-0.0010110328127155628,2.041
-0.01365538233396961,2.042
-0.027851288640771646,2.043
-0.041610087934386836,2.044
-0.05243614721615038,2.045
-0.05820298395298491,2.046
-0.057926074273902416,2.047
-0.052019576633581074,2.048
-0.04196541441929249,2.049
-0.02966671525477883,2.05
-0.016822963992022856,2.051
-0.004593196453195527,2.052
0.006366421418973192,2.053
0.01567475868853283,2.054
0.02306814960226651,2.055
0.028375509266387707,2.056
0.031531797763915924,2.057
0.032593322280910136,2.058
0.03175710113568896,2.059
0.02934076559273283,2.06
0.025710770824220807,2.061
0.021216698265404982,2.062
0.01618137173520583,2.063
0.010934052508072488,2.064
0.005841102093816455,2.065
0.0012800943735625412,2.066
-0.0024546603446440355,2.067
-0.005236291813982586,2.068
-0.007078647707756907,2.069
-0.007972270854626165,2.07
-0.007690244316122131,2.071
-0.0057501880183421184,2.072
-0.0016144692069508656,2.073
0.004969218161624013,2.074
0.013637297407041685,2.075
0.023157808603342277,2.076
0.03131863202359476,2.077
0.03520175762655748,2.078
0.03207790309895409,2.079
0.020602632594410728,2.08
0.0015646902814692011,2.081
-0.02219876322916041,2.082
-0.04654388613876084,2.083
-0.0670595870526674,2.084
-0.0800854222795332,2.085
-0.08347975940570868,2.086
-0.0769254303459735,2.087
-0.061654522216353876,2.088
-0.03982192270011344,2.089
-0.013960055785348412,2.09
0.013261529777308401,2.091
0.03904138759446906,2.092
0.06041628594463601,2.093
0.07448519363207931,2.094
0.07909237921126522,2.095
0.07368314590873089,2.096
0.059700553975612004,2.097
0.040200874740590885,2.098
0.018889989514616318,2.099
-0.0009278145207336196,2.1
-0.017020176397460007,2.101
-0.0283303267595726,2.102
-0.03464599234246961,2.103
-0.036144041743951444,2.104
-0.03311307991572551,2.105
-0.025984665853959678,2.106
-0.015574832550208154,2.107
-0.003310005202766553,2.108
0.008748539003996263,2.109
0.018212669690959474,2.11
0.023028747953729597,2.111
0.022201080775037862,2.112
0.016159016817572494,2.113
0.0066188430961188595,2.114
-0.003962806439791166,2.115
-0.013139786811779918,2.116
-0.019145562214046036,2.117
-0.021240494526335748,2.118
-0.019670991744029354,2.119
-0.015364822634455395,2.12
-0.009570537488829769,2.121
-0.0035592394767919584,2.122
0.0016192158330311818,2.123
0.005310900349303899,2.124
0.0072956312638833044,2.125
0.007704183544939123,2.126
0.006887657119566385,2.127
0.0052780890543123685,2.128
0.003281839461325771,2.129
0.00123710481554893,2.13
-0.000596997758785367,2.131
-0.0020532689784757744,2.132
-0.003041741576614283,2.133
-0.003480551418675283,2.134
-0.003219714794593273,2.135
-0.002059443537268638,2.136
9.71395237185905e-05,2.137
0.00306057101012821,2.138
0.00629041353042505,2.139
0.009026321567932323,2.14
0.01057493122462274,2.141
0.010591373695051722,2.142
0.009200900529673806,2.143
0.00692062723749195,2.144
0.004405260023688669,2.145
0.0021237300943178425,2.146
0.00017606931909176337,2.147
-0.0016283323836181532,2.148
-0.00352976835007928,2.149
-0.005609578825763669,2.15
-0.007727678278499308,2.151
-0.009592472605533012,2.152
-0.010893992967912831,2.153
-0.011426193312009812,2.154
-0.01112615922028016,2.155
-0.010020493000927423,2.156
-0.008173973195876025,2.157
-0.005716538458901835,2.158
-0.002878565994550344,2.159
6.456559464928576e-05,2.16
0.0029104248415772116,2.161
0.0055984136411755875,2.162
0.008160684885576756,2.163
0.010586903311961552,2.164
0.012696743552501806,2.165
0.014112697428866736,2.166
0.014357225301709686,2.167
0.0129976149252773,2.168
0.009788172900096667,2.169
0.004859977678705387,2.17
-0.0011105170152592542,2.171
-0.00698718122571444,2.172
-0.011548589136949297,2.173
-0.01391617698276205,2.174
-0.013839744022143314,2.175
-0.01173855213307152,2.176
-0.008441380606417892,2.177
-0.004763968526514347,2.178
-0.001213521750534792,2.179
0.002045377470480532,2.18
0.005039465923464327,2.181
0.007791377908535629,2.182
0.010219847190442522,2.183
0.01214325652569303,2.184
0.013264079334739895,2.185
0.01314525498482831,2.186
0.011365033054994622,2.187
0.007861632046083368,2.188
0.0031426408008032895,2.189
-0.0019047284946882874,2.19
-0.006479325808418044,2.191
-0.010247627896435088,2.192
-0.013352457301897137,2.193
-0.016066577835346575,2.194
-0.01837579355446119,2.195
-0.01981644400356818,2.196
-0.019709990763654733,2.197
-0.017598397482699136,2.198
-0.013531389232925009,2.199
-0.00806653133728407,2.2
-0.002082625625248957,2.201
0.0034701052718419433,2.202
0.007822718888761137,2.203
0.01058044837370672,2.204
0.011786104353334962,2.205
0.011844023649939358,2.206
0.011338180565420717,2.207
0.010781480139582923,2.208
0.010385355149813393,2.209
0.009986669113125611,2.21
0.0091822996469057,2.211
0.007588475899866035,2.212
0.005106467610182394,2.213
0.002068511928061592,2.214
-0.0008411826345391633,2.215
-0.0028436474254331834,2.216
-0.003326345940990916,2.217
-0.0019951193479165364,2.218
0.0010630013207170634,2.219
0.005340681871951316,2.22
0.009891854559957216,2.221
0.01342106150930591,2.222
0.014583500553232941,2.223
0.01245246299982166,2.224
0.006912146858788336,2.225
-0.001227141740736597,2.226
-0.010396826329049178,2.227
-0.018655832991811026,2.228
-0.024213864060317385,2.229
-0.025962263761496948,2.23
-0.023825578105298954,2.231
-0.01873300139653873,2.232
-0.012188544962171366,2.233
-0.005692389319092183,2.234
-0.00031865199517052637,2.235
0.0034480877756854524,2.236
0.005670059755658603,2.237
0.006755094338058124,2.238
0.0071933004345408865,2.239
0.007381062222130891,2.24
0.0075551202489173306,2.241
0.007745518835060453,2.242
0.007759253060232641,2.243
0.007292908804985203,2.244
0.006136550380664893,2.245
0.004313147612278117,2.246
0.0020712447402208133,2.247
-0.0002112849706779715,2.248
-0.00211504397036535,2.249
-0.0032629886669564394,2.25
-0.003432686039189745,2.251
-0.0026361902679473983,2.252
-0.0011085753927546117,2.253
0.0007663648171523763,2.254
0.002533520883568162,2.255
0.0037331526580112883,2.256
0.003969302536397025,2.257
0.0029791225738185836,2.258
0.0007060023770783684,2.259
-0.002633103929289417,2.26
-0.006508344822059211,2.261
-0.010103247407217436,2.262
-0.01246609535418726,2.263
-0.01275873999424627,2.264
-0.010466473492256309,2.265
-0.005498807655654668,2.266
0.001759417819543278,2.267
0.010399462325768383,2.268
0.01898816517231022,2.269
0.025712697783082723,2.27
0.02877371926510478,2.271
0.0269882095611823,2.272
0.020307313071091807,2.273
0.009924043078678016,2.274
-0.0021044496402616644,2.275
-0.013521942323792346,2.276
-0.022493959349826086,2.277
-0.027953184290046996,2.278
-0.029657078552780724,2.279
-0.02804552177909317,2.28
-0.023974920722979513,2.281
-0.018419067869046804,2.282
-0.012242760523876527,2.283
-0.006081164502838544,2.284
-0.0003066300091251427,2.285
0.00489840155378527,2.286
0.009389908511542432,2.287
0.012982173873421236,2.288
0.015533638258670737,2.289
0.0170772478174502,2.29
0.017806849616434594,2.291
0.017881937403878646,2.292
0.01721678759652335,2.293
0.015488498153775485,2.294
0.012400286123894266,2.295
0.007976606342123745,2.296
0.0026516881169811875,2.297
-0.002892576644822972,2.298
-0.007993538897598866,2.299
-0.012175583201644314,2.3
-0.015129313990196801,2.301
-0.016602722559201054,2.302
-0.01634768003988703,2.303
-0.014153446304805901,2.304
-0.009929158761831237,2.305
-0.003825304900718212,2.306
0.0035817618659455975,2.307
0.011116705595367923,2.308
0.01709916647383133,2.309
0.019874585142443328,2.31
0.01851109047569816,2.311
0.013176088152883634,2.312
0.005045387222800621,2.313
-0.004085660746327457,2.314
-0.012330005210000964,2.315
-0.01821315728287768,2.316
-0.020967808539292147,2.317
-0.020556425380414824,2.318
-0.01749331827993614,2.319
-0.012581305609866476,2.32
-0.006687794158465882,2.321
-0.0006338325908931708,2.322
0.004843919202019554,2.323
0.009134488899666525,2.324
0.011820993836637853,2.325
0.012758756625179273,2.326
0.01211199479965415,2.327
0.010303481457870549,2.328
0.00789719096900945,2.329
0.005453888561658074,2.33
0.003385877759215094,2.331
0.001861870995435671,2.332
0.0008114179008156155,2.333
2.0266257806471577e-05,2.334
-0.000742664096340712,2.335
-0.0016285242136396172,2.336
-0.0026624053190773276,2.337
-0.003739997244465345,2.338
-0.004659530244622215,2.339
-0.005166122986007524,2.34
-0.00500280744944389,2.341
-0.00400194686947241,2.342
-0.0022046553117402615,2.343
8.769190967156554e-05,2.344
0.0024069095910584978,2.345
0.004290337218510397,2.346
0.005398890664077555,2.347
0.0055642198433212536,2.348
0.004818703349062158,2.349
0.003401445699344081,2.35
0.0016987192609407968,2.351
0.00012380530810053998,2.352
-0.0010099397434889053,2.353
-0.0015901338638493487,2.354
-0.0017434978299939324,2.355
-0.0017523596857829875,2.356
-0.0019036251614789085,2.357
-0.002399080354690894,2.358
-0.0033318576169672743,2.359
-0.0046588719258994675,2.36
-0.0061828455433442595,2.361
-0.007593902150199967,2.362
-0.008556162224734922,2.363
-0.008782421011365315,2.364
-0.008069887327605435,2.365
-0.006324981858753818,2.366
-0.003614644184184983,2.367
-0.00021834917739873693,2.368
0.0033963096157774634,2.369
0.006674226396282423,2.37
0.00907860833005349,2.371
0.01021824304278592,2.372
0.010019915360325673,2.373
0.008798500293523064,2.374
0.007089749790592217,2.375
0.005371430343184929,2.376
0.003898243899419187,2.377
0.0027249115448195215,2.378
0.0018287172115265145,2.379
0.001189858969187889,2.38
0.000780268799290083,2.381
0.000526077078474254,2.382
