VaMe,time
-0.00038834499639733817,0.001
5.751422866592138e-05,0.002
0.0006510012665513316,0.003
0.0014400429723629997,0.004
0.0023383903443373985,0.005
0.003164304449407487,0.006
0.00374131953609398,0.007
0.004004301543406464,0.008
0.004022933852331424,0.009
0.00393647334103199,0.01
0.003882112572350694,0.011
0.003957233317416633,0.012
0.00417492423671843,0.013
0.004408736036505444,0.014
0.00440009002693342,0.015
0.003861726881272545,0.016
0.002624370629752338,0.017
0.000756085959268602,0.018
-0.001399814053331803,0.019
-0.0033063733872129965,0.02
-0.004418543461523614,0.021
-0.0043842603382343625,0.022
-0.0031588162584341435,0.023
-0.0010040678618676113,0.024
0.0015825714987846339,0.025
0.003991062061492477,0.026
0.005674922186458223,0.027
0.006314761050751484,0.028
0.005871978692316842,0.029
0.004508550524801568,0.03
0.0024637721582589033,0.031
1.4414135968742838e-06,0.032
-0.002577277547493517,0.033
-0.004955491749983067,0.034
-0.006880190428293034,0.035
-0.008216582518939483,0.036
-0.008932481558909487,0.037
-0.009055633126269603,0.038
-0.008657568580045861,0.039
-0.0078466365088335,0.04
-0.00672045180603979,0.041
-0.00531805089756212,0.042
-0.003655355786512562,0.043
-0.0018247441909708994,0.044
-5.301554273913835e-05,0.045
0.0013400294216144143,0.046
0.002055327302427032,0.047
0.0019451423125433898,0.048
0.0010954856913943482,0.049
-0.00018020850363181085,0.05
-0.0014215641461705665,0.051
-0.0021546254972477996,0.052
-0.002041945430992018,0.053
-0.0009652978295199367,0.054
0.0009930309708020746,0.055
0.003614185465198774,0.056
0.00661086422728005,0.057
0.009688575245764455,0.058
0.012556314898961165,0.059
0.014867530187647837,0.06
0.016189414041113865,0.061
0.016104340563936965,0.062
0.01436443077114983,0.063
0.010945433086997445,0.064
0.006030953989931848,0.065
5.4023896106689985e-05,0.066
-0.006245885399391219,0.067
-0.011895400379814508,0.068
-0.01592277266916551,0.069
-0.017652600699565587,0.07
-0.016914092775972608,0.071
-0.014063437918587725,0.072
-0.00982827956431294,0.073
-0.0050923654385047245,0.074
-0.0007174999535274385,0.075
0.0026137522542448942,0.076
0.004533327590995329,0.077
0.004999974578460604,0.078
0.004178656729758153,0.079
0.0023376685950350657,0.08
-0.00016888928223981618,0.081
-0.002906641510078781,0.082
-0.005407798790411735,0.083
-0.007262430127008628,0.084
-0.008209030893308213,0.085
-0.008150767769395276,0.086
-0.0070851834570159885,0.087
-0.005005952508559557,0.088
-0.0018618462543025939,0.089
0.0023561756838087738,0.09
0.007433081030496574,0.091
0.01279943424630699,0.092
0.017557381625191826,0.093
0.020659372713158246,0.094
0.021213326071998478,0.095
0.01883220616187262,0.096
0.01383221714706177,0.097
0.0071505059330313325,0.098
4.4171848907060106e-05,0.099
-0.006291586420155019,0.1
-0.011038355097160125,0.101
-0.013882497997871904,0.102
-0.014948286608440218,0.103
-0.01462213162513845,0.104
-0.013365031983917863,0.105
-0.011571547041936527,0.106
-0.009495807793747167,0.107
-0.007245993375564724,0.108
-0.004841075497411883,0.109
-0.0023100028577050474,0.11
0.00022880336237590844,0.111
0.002566398750814432,0.112
0.004468156868943438,0.113
0.0057520615260616,0.114
0.006330974161790993,0.115
0.006200453103798481,0.116
0.005410041195557426,0.117
0.00406600603470499,0.118
0.0023511383919515554,0.119
0.0005118926606048975,0.12
-0.0011817727071224864,0.121
-0.0024670504060530993,0.122
-0.0031206624262185363,0.123
-0.0030160842245510345,0.124
-0.002170095000179803,0.125
-0.0007307209248292903,0.126
0.0010572936891586312,0.127
0.0028665121517341963,0.128
0.004338304461380285,0.129
0.0051905441974408485,0.13
0.005298245630006107,0.131
0.004719481894239326,0.132
0.0036799949756925387,0.133
0.002479535919845674,0.134
0.0013285967156502552,0.135
0.0002374658902611471,0.136
-0.0009385094102000992,0.137
-0.0023449581151944693,0.138
-0.0039905822359288775,0.139
-0.0056969119966423865,0.14
-0.0071444499138950505,0.141
-0.007978082791479239,0.142
-0.007900357939025566,0.143
-0.006705617731868915,0.144
-0.004277036013511368,0.145
-0.0006000125705253649,0.146
0.004166212722044204,0.147
0.00955398165266708,0.148
0.014688243514098604,0.149
0.01839330977926107,0.15
0.019553787925298244,0.151
0.01754682488287931,0.152
0.012503037693937317,0.153
0.005307674574728519,0.154
-0.002646736878789316,0.155
-0.009899505979956844,0.156
-0.015373551370242523,0.157
-0.01863129830426546,0.158
-0.01985067712932593,0.159
-0.01958769295240655,0.16
-0.01847181795189459,0.161
-0.01694371013885645,0.162
-0.015092404109742134,0.163
-0.01265514172974429,0.164
-0.009202964921428018,0.165
-0.004414771367596873,0.166
0.0017019892756345275,0.167
0.008729843587014511,0.168
0.01591494240168762,0.169
0.022304926045003903,0.17
0.026842646522722377,0.171
0.02846596455485022,0.172
0.026350322270879845,0.173
0.020276486102404966,0.174
0.010886208269240692,0.175
-0.00038748921172418113,0.176
-0.011673808997101841,0.177
-0.02110520082169084,0.178
-0.027167734680005738,0.179
-0.02888088728467931,0.18
-0.02588201018069703,0.181
-0.018525507314152263,0.182
-0.007966897645729016,0.183
0.0038949556490142237,0.184
0.014710009329449077,0.185
0.0222213531782568,0.186
0.02495465576498465,0.187
0.022738235834426017,0.188
0.016707939553195664,0.189
0.008783711038672365,0.19
0.0009634676359414634,0.191
-0.005211296620883739,0.192
-0.008886377302953245,0.193
-0.009869054462426417,0.194
-0.008482760592537587,0.195
-0.005429043783754703,0.196
-0.001686906551081826,0.197
0.001605896700551474,0.198
0.003385257811328164,0.199
0.0030159693991162416,0.2
0.0005866943327768542,0.201
-0.0030777832327371257,0.202
-0.006728485023786014,0.203
-0.00916989216559919,0.204
-0.00967770014360256,0.205
-0.008211304952360306,0.206
-0.005366107680933074,0.207
-0.002055930020077563,0.208
0.0009272334030551281,0.209
0.0031892404616983574,0.21
0.004716172694490208,0.211
0.005689496331467794,0.212
0.00629879994526798,0.213
0.006621403565806844,0.214
0.006599085166835198,0.215
0.006095833973886883,0.216
0.0049549999636756365,0.217
0.003038995242239566,0.218
0.00031151951334213975,0.219
-0.0030408711531003316,0.22
-0.006544191150738157,0.221
-0.009523957033532836,0.222
-0.011312505739905936,0.223
-0.011444622248975035,0.224
-0.009775852864308562,0.225
-0.006532016044029513,0.226
-0.002247178443798402,0.227
0.002441783177309219,0.228
0.0070134889430611335,0.229
0.011098158616550207,0.23
0.01430931771190369,0.231
0.01607225913578684,0.232
0.015683749002688308,0.233
0.01262427928062016,0.234
0.0069122834658295875,0.235
-0.000733862826323349,0.236
-0.00901481748444048,0.237
-0.016354112966656915,0.238
-0.021234657031119333,0.239
-0.022514959137400307,0.24
-0.019709680240652682,0.241
-0.01315538156386346,0.242
-0.003981119888078083,0.243
0.006087984091991827,0.244
0.015008388333853534,0.245
0.020824680607563813,0.246
0.02226914569347749,0.247
0.019287170841958894,0.248
0.013097753682981796,0.249
0.00573189929633388,0.25
-0.0007312144118847714,0.251
-0.004899281642891014,0.252
-0.006443477452325927,0.253
-0.006011351354668655,0.254
-0.0047904104215746295,0.255
-0.003928849001230303,0.256
-0.004061846304106883,0.257
-0.005142125031364153,0.258
-0.006600053584526839,0.259
-0.007657104424257254,0.26
-0.007616120585652437,0.261
-0.006098529593252043,0.262
-0.0032113080931829375,0.263
0.00043558216624216565,0.264
0.003911657848324641,0.265
0.006308590973147227,0.266
0.00710198613212643,0.267
0.00634711108973378,0.268
0.0046024465772459425,0.269
0.0026184000743980133,0.27
0.0009581471592119429,0.271
-0.0002405465650237169,0.272
-0.001251631425076351,0.273
-0.002541284390584518,0.274
-0.004485863336787288,0.275
-0.007140036096960996,0.276
-0.010081400615505448,0.277
-0.012393287715747771,0.278
-0.012934527710336152,0.279
-0.010877313502859743,0.28
-0.006176921518315544,0.281
0.0003360376117978039,0.282
0.0072400926851961984,0.283
0.01302136291000896,0.284
0.016594691965831698,0.285
0.017634248872162236,0.286
0.01656951042851556,0.287
0.014269100666205355,0.288
0.011581113141547313,0.289
0.008974870565511819,0.29
0.006482403829399281,0.291
0.003916433926667017,0.292
0.001145712101962644,0.293
-0.001772487781381144,0.294
-0.0046446525657874264,0.295
-0.007265965206045204,0.296
-0.009477264204731446,0.297
-0.011121956250408675,0.298
-0.011989877079201863,0.299
-0.011842813145327894,0.3
-0.010519548679298453,0.301
-0.008060165558414708,0.302
-0.004795846741324089,0.303
-0.0013327574065370316,0.304
0.0015982645645525929,0.305
0.0033623481656000773,0.306
0.0036330522997595183,0.307
0.0025099554382894927,0.308
0.00045764377293907937,0.309
-0.0019303962091574024,0.31
-0.004210308778796838,0.311
-0.006214184102887317,0.312
-0.007915647808188875,0.313
-0.009101253691909431,0.314
-0.009111671289964719,0.315
-0.006958586281089539,0.316
-0.0018419658247061617,0.317
0.006248375400172731,0.318
0.01620862274935502,0.319
0.025945201994471034,0.32
0.03291845275998719,0.321
0.034927647868711054,0.322
0.03087815993370967,0.323
0.021230579509679756,0.324
0.00791656799005854,0.325
-0.006223375761021176,0.326
-0.01827401693044909,0.327
-0.026107787689832854,0.328
-0.028958050968057997,0.329
-0.02750404000319756,0.33
-0.023488809741735815,0.331
-0.018982404005019007,0.332
-0.01554188660197084,0.333
-0.013668882020080993,0.334
-0.012806142332096024,0.335
-0.011792687673991695,0.336
-0.009514389941895853,0.337
-0.005443906671886659,0.338
0.0001399110459431077,0.339
0.006276483766247146,0.34
0.011731055242468782,0.341
0.015587643727767057,0.342
0.017719139550482203,0.343
0.018752097525277688,0.344
0.019553664238844908,0.345
0.020649228628865528,0.346
0.02189709915630634,0.347
0.022506988358020574,0.348
0.021367194554002673,0.349
0.017594369794953064,0.35
0.011073293905936336,0.351
0.002626438206255771,0.352
-0.006298676307618802,0.353
-0.014167138801252803,0.354
-0.01981764864934143,0.355
-0.02268925653355657,0.356
-0.022822287921894016,0.357
-0.020734293170765902,0.358
-0.01722491453592686,0.359
-0.01313761454045281,0.36
-0.00914499218824875,0.361
-0.005640042145084384,0.362
-0.0027658449974307655,0.363
-0.000507128383417942,0.364
0.0012575243377274542,0.365
0.002719023286788523,0.366
0.004042498822732438,0.367
0.0052618389402795465,0.368
0.006271367977469008,0.369
0.0069261889642107275,0.37
0.007167611486787196,0.371
0.007080362638018393,0.372
0.006860468717756748,0.373
0.0067364222387395435,0.374
0.00683745738747505,0.375
0.007011944454728127,0.376
0.006788232122734583,0.377
0.00565243831434605,0.378
0.0034316341348453886,0.379
0.0004047493264038138,0.38
-0.0029050485768959623,0.381
-0.005982639317690413,0.382
-0.008402798277332818,0.383
-0.00979166318740442,0.384
-0.009846038256034117,0.385
-0.008469602942460453,0.386
-0.005908865209285367,0.387
-0.0027292304104330274,0.388
0.00038952948625521394,0.389
0.0028868474077792692,0.39
0.004431341524166998,0.391
0.004892748638507127,0.392
0.004279000745926885,0.393
0.002727971774125867,0.394
0.0005185245011914103,0.395
-0.0019820219323256924,0.396
-0.004419191828567744,0.397
-0.0065115273296661716,0.398
-0.00803534790860923,0.399
-0.008795486973496455,0.4
-0.008653465193773009,0.401
-0.007618299090002357,0.402
-0.00590641024856286,0.403
-0.003846113261993303,0.404
-0.001679645655196633,0.405
0.0005429760080546231,0.406
0.0029025505083066006,0.407
0.0054435640175406145,0.408
0.008028856224996229,0.409
0.010351968864400499,0.41
0.012109132195237316,0.411
0.013180392873233726,0.412
0.013663829995408688,0.413
0.01374123561980254,0.414
0.013484434254633242,0.415
0.012756825893937082,0.416
0.011309704266827819,0.417
0.008993116088090036,0.418
0.005883052283890677,0.419
0.0022360370586835777,0.42
-0.0016476931302487018,0.421
-0.005527409039250624,0.422
-0.009225811417088252,0.423
-0.012557141790631632,0.424
-0.015259027039977077,0.425
-0.01698999715037115,0.426
-0.017406589734819164,0.427
-0.016296085620521893,0.428
-0.013721309557518355,0.429
-0.010110279484672342,0.43
-0.006187091185130189,0.431
-0.0027013419615686575,0.432
-0.00012394812835695113,0.433
0.0014396439924395637,0.434
0.0021162823459970103,0.435
0.0021082575542707466,0.436
0.0015975548679118183,0.437
0.0007119449428704814,0.438
-0.0004073780900142497,0.439
-0.0014805247168831496,0.44
-0.0020534293940802674,0.441
-0.0016384728294776987,0.442
1.9841290930004766e-08,0.443
0.0025678863153453784,0.444
0.00521060924414005,0.445
0.006842183732587047,0.446
0.006675533579087378,0.447
0.0046708850918543736,0.448
0.0016836314375830552,0.449
-0.0007647046537046098,0.45
-0.0010005123279862253,0.451
0.002196831802991638,0.452
0.009031430031698342,0.453
0.01826470424647084,0.454
0.027238667878023134,0.455
0.03271690619115319,0.456
0.032306580195909165,0.457
0.02556035544522769,0.458
0.01405542029394849,0.459
0.0005495363014042613,0.46
-0.012169708393269524,0.461
-0.022149472675497626,0.462
-0.028571909980244756,0.463
-0.031582508056209484,0.464
-0.031890191284560505,0.465
-0.030308669310766773,0.466
-0.027382749144379822,0.467
-0.023243670866009182,0.468
-0.017765896517333197,0.469
-0.01095689538330111,0.47
-0.003302165341115193,0.471
0.004228758336287693,0.472
0.010518343085568198,0.473
0.014711173733527785,0.474
0.01643264615742597,0.475
0.015764161481966268,0.476
0.013108866042607734,0.477
0.009073093783100018,0.478
0.004354883466323089,0.479
-0.0004104661066602133,0.48
-0.004794591989979814,0.481
-0.008598711926877878,0.482
-0.011709406397431753,0.483
-0.013884754955438556,0.484
-0.01468418515863486,0.485
-0.013621631252138297,0.486
-0.010396966006831394,0.487
-0.005079417390138446,0.488
0.001814146883391794,0.489
0.00940022661225195,0.49
0.016658346884909494,0.491
0.022745029037409117,0.492
0.027241536877121608,0.493
0.030114432237228293,0.494
0.031398556813835105,0.495
0.030925613566858277,0.496
0.028332429961859133,0.497
0.023283351910523907,0.498
0.015773464267595547,0.499
0.006387056493586276,0.5
-0.0036972417862404195,0.501
-0.013057260584325981,0.502
-0.020542867285980686,0.503
-0.025622957921364427,0.504
-0.02836524500798546,0.505
-0.029126590731413573,0.506
-0.0282055095427881,0.507
-0.02567399955786526,0.508
-0.02147951934401585,0.509
-0.015768920153594573,0.51
-0.009217756673750906,0.511
-0.003048021034004415,0.512
0.0014382260789799267,0.513
0.0035834606569201156,0.514
0.003796296260467893,0.515
0.0032637687050194064,0.516
0.003130408434401889,0.517
0.0037814329464735557,0.518
0.004745612385569966,0.519
0.00514028871816414,0.52
0.0042351557946187285,0.521
0.0018666495113836197,0.522
-0.0014129433655493365,0.523
-0.004514588269496137,0.524
-0.00621220859897336,0.525
-0.005529316303224132,0.526
-0.001977975155835511,0.527
0.004296313999783526,0.528
0.012395644818265482,0.529
0.02065828285937191,0.53
0.02693112970013733,0.531
0.029226776858207373,0.532
0.02655183530146814,0.533
0.019389375182997264,0.534
0.00948866876167326,0.535
-0.0008871464067392107,0.536
-0.009799988730184192,0.537
-0.016144239970088962,0.538
-0.019679165818984885,0.539
-0.020733905702617746,0.54
-0.019819879337366716,0.541
-0.01734164908710769,0.542
-0.01354839970262616,0.543
-0.00874461801900309,0.544
-0.0035565158537937064,0.545
0.0010621498326348967,0.546
0.004191561551367536,0.547
0.005411460124748855,0.548
0.004988442791283368,0.549
0.003662051985369331,0.55
0.0022321222189641576,0.551
0.0012219283397328395,0.552
0.0007481026695570673,0.553
0.0005831888540088323,0.554
0.0003468179583800106,0.555
-0.00027483726756948946,0.556
-0.001400922506532855,0.557
-0.002937361151151082,0.558
-0.004607051102244645,0.559
-0.006022110886288666,0.56
-0.006797374136602132,0.561
-0.006633758398280545,0.562
-0.005346282618081911,0.563
-0.0029090796228759376,0.564
0.0004780975080812788,0.565
0.004386689287364827,0.566
0.008247473884658952,0.567
0.011501587064179943,0.568
0.013746972656250892,0.569
0.014770608364237072,0.57
0.014460879160267162,0.571
0.012745018234657584,0.572
0.009654238215689994,0.573
0.005448394034680743,0.574
0.0006451172808273314,0.575
-0.004131308360333064,0.576
-0.008382234525768206,0.577
-0.01181016171382104,0.578
-0.014142844795339357,0.579
-0.014908168101491788,0.58
-0.01337900023193621,0.581
-0.008728649811410387,0.582
-0.0004014495462377898,0.583
0.01134367494946738,0.584
0.024932786896606243,0.585
0.037386535490348594,0.586
0.04498536638712371,0.587
0.044582255142593764,0.588
0.03487178639526821,0.589
0.016900740172046257,0.59
-0.006452114814739033,0.591
-0.03167353326857779,0.592
-0.05563470968862144,0.593
-0.0758229172545065,0.594
-0.0899632942264649,0.595
-0.09573353453191977,0.596
-0.091138177529449,0.597
-0.07538894154157494,0.598
-0.04955274947618146,0.599
-0.01642343232025528,0.6
0.020204750065464842,0.601
0.05621134937130362,0.602
0.08740776196543192,0.603
0.10965425213302321,0.604
0.11934085609287792,0.605
0.11443298583114637,0.606
0.09562875678662006,0.607
0.06670219629538107,0.608
0.033521298140877204,0.609
0.0021247454841115676,0.61
-0.023181738081179903,0.611
-0.04077347184611845,0.612
-0.05138070473821385,0.613
-0.056868682676995505,0.614
-0.0589090616880891,0.615
-0.058241310005364345,0.616
-0.05462581632118634,0.617
-0.04722434482477268,0.618
-0.03530183501157973,0.619
-0.019160685332613902,0.62
-0.0007916626085162622,0.621
0.01647390252069362,0.622
0.02934619742811087,0.623
0.036052388120918,0.624
0.036784005936718635,0.625
0.03288222135161701,0.626
0.02567214114235592,0.627
0.015991254991796676,0.628
0.00451885071676341,0.629
-0.007648928195766335,0.63
-0.018654626073107576,0.631
-0.026099593223130303,0.632
-0.02790063657033696,0.633
-0.023283535459359204,0.634
-0.013252681328317594,0.635
-0.0003454232685033116,0.636
0.012129515855723538,0.637
0.021118329432237497,0.638
0.02479058917336839,0.639
0.023013887182898263,0.64
0.017099297652878143,0.641
0.0090552942095092,0.642
0.0008339623042709908,0.643
-0.006139501272581015,0.644
-0.011144342047522082,0.645
-0.014096666150211334,0.646
-0.015275352913040666,0.647
-0.015001193312373283,0.648
-0.013499346262755093,0.649
-0.01099629815750973,0.65
-0.007872316262911048,0.651
-0.004675950140791073,0.652
-0.001960429157831903,0.653
-4.521190539998777e-05,0.654
0.0011528778559924005,0.655
0.002114487073300416,0.656
0.003493310786978819,0.657
0.005732068057147313,0.658
0.008743267808181925,0.659
0.011904175710743556,0.66
0.014375448210456018,0.661
0.015503009402528153,0.662
0.015027945369613787,0.663
0.013017810345469559,0.664
0.009684258963633934,0.665
0.005267118403459967,0.666
2.0044719343267186e-05,0.667
-0.005702088102742528,0.668
-0.011291448088274399,0.669
-0.015862818318533627,0.67
-0.018539767424720122,0.671
-0.018926603631955148,0.672
-0.01741338173440227,0.673
-0.015045273408022109,0.674
-0.01293801784877879,0.675
-0.011538868519330012,0.676
-0.010262619703187576,0.677
-0.007857763212828477,0.678
-0.0032627053548725756,0.679
0.003694871358160836,0.68
0.01217364521165944,0.681
0.020695321534592175,0.682
0.02768205993544672,0.683
0.03188975031472968,0.684
0.032665928507984665,0.685
0.02999322723114512,0.686
0.024332162817341924,0.687
0.01642884981572459,0.688
0.007205288224755403,0.689
-0.002285637860426461,0.69
-0.010873465492394607,0.691
-0.01732488973141505,0.692
-0.020553297721003675,0.693
-0.019983531253541277,0.694
-0.01590095024612654,0.695
-0.009565904894412797,0.696
-0.003003639653416779,0.697
0.0015114579329621994,0.698
0.0022220908165473344,0.699
-0.0013749723876243295,0.7
-0.008264364189694152,0.701
-0.016283639401465967,0.702
-0.02289483321701516,0.703
-0.025992729960451082,0.704
-0.024522944756195098,0.705
-0.018767034033185036,0.706
-0.010108465515775501,0.707
-0.0003656632898412943,0.708
0.008794918454237601,0.709
0.015996358719059106,0.71
0.020028792085629396,0.711
0.01987267515473922,0.712
0.01500412277822747,0.713
0.005778473721947048,0.714
-0.006368598893516887,0.715
-0.018955504878318423,0.716
-0.028722139242381102,0.717
-0.032272295734972894,0.718
-0.02706510507436457,0.719
-0.012340017021543984,0.72
0.010440465489383443,0.721
0.03771279104404014,0.722
0.06444256013706472,0.723
0.08526432919696718,0.724
0.09590626095084379,0.725
0.09427660488458371,0.726
0.08070722654271247,0.727
0.05745715632183799,0.728
0.027978309477321953,0.729
-0.003764822438143104,0.73
-0.034002056515715154,0.731
-0.05983705696861438,0.732
-0.07963444461790083,0.733
-0.0930138141567262,0.734
-0.10050244220506109,0.735
-0.10293286284505858,0.736
-0.10072622824247954,0.737
-0.09339758124878027,0.738
-0.07976086935622578,0.739
-0.05891130224605632,0.74
-0.03144962080263643,0.741
-0.00018373662040707754,0.742
0.03030715327072258,0.743
0.05521566092412957,0.744
0.07126291405007427,0.745
0.07759263546251266,0.746
0.07538684536876082,0.747
0.06681511160314249,0.748
0.054326809328888136,0.749
0.040498224270036895,0.75
0.027950217346975673,0.751
0.019009115211928884,0.752
0.015089650641363707,0.753
0.016064083291192126,0.754
0.020080209711537792,0.755
0.024094436505535607,0.756
0.02499764227176792,0.757
0.020918478495349797,0.758
0.012034296873568367,0.759
0.000300652997924239,0.76
-0.011682615471789655,0.761
-0.021793863903981598,0.762
-0.02894115122336297,0.763
-0.033068798944778495,0.764
-0.03484748157610461,0.765
-0.035227141143799254,0.766
-0.03499103130656812,0.767
-0.03443643130807749,0.768
-0.033255537710285644,0.769
-0.030705621379678905,0.77
-0.026041997611648184,0.771
-0.018931152716519066,0.772
-0.009636463236434132,0.773
0.0010028661518279756,0.774
0.011729534433075435,0.775
0.02107210766624278,0.776
0.027532880750260284,0.777
0.029810353834925012,0.778
0.027130154617258782,0.779
0.01959679910061722,0.78
0.008331657602998591,0.781
-0.004740944192341376,0.782
-0.01736393927085109,0.783
-0.027423243038759006,0.784
-0.03326530280992823,0.785
-0.033894544484090176,0.786
-0.029075688024031456,0.787
-0.01926538599281207,0.788
-0.005401863693010315,0.789
0.011242457932999281,0.79
0.028988612630085352,0.791
0.045593684818207414,0.792
0.05836967044086881,0.793
0.06475476073089961,0.794
0.063074770904939,0.795
0.0531233798141551,0.796
0.03635634905387002,0.797
0.01557536994812126,0.798
-0.005807047693968611,0.799
-0.02460009693389545,0.8
-0.03852787853426775,0.801
-0.046620913744463026,0.802
-0.04914937086457732,0.803
-0.04714965270430094,0.804
-0.04184524048714471,0.805
-0.03428525541184141,0.806
-0.02532115345489762,0.807
-0.015791212143960853,0.808
-0.006634391803322775,0.809
0.0012396791763225022,0.81
0.007234342969671002,0.811
0.01132066959109916,0.812
0.014073106598587907,0.813
0.016349940635659404,0.814
0.018816995622953855,0.815
0.021686063861702645,0.816
0.024723495687383978,0.817
0.02733525659674558,0.818
0.028643577951938306,0.819
0.02763725740879742,0.82
0.023468655730317478,0.821
0.015790693224176453,0.822
0.004980338597811341,0.823
-0.00780048678793866,0.824
-0.020823696940789352,0.825
-0.03230923008058825,0.826
-0.04089029033237999,0.827
-0.04576341643215291,0.828
-0.046551091037939696,0.829
-0.04299140373851941,0.83
-0.03479029010751275,0.831
-0.021976723833918327,0.832
-0.0055307583089426356,0.833
0.012309625671659975,0.834
0.02838078260328204,0.835
0.039442804447273105,0.836
0.04321511275969221,0.837
0.03924132608158012,0.838
0.029180767000409218,0.839
0.016227972192627258,0.84
0.00386400060747457,0.841
-0.005399897632637623,0.842
-0.010721287897037367,0.843
-0.01284234883342871,0.844
-0.013254991041342245,0.845
-0.012969214874826463,0.846
-0.011587300299302498,0.847
-0.0074594513966759965,0.848
0.0009604701144947271,0.849
0.0135770315820162,0.85
0.028187250510262416,0.851
0.04112928584876986,0.852
0.04810784335639026,0.853
0.04505183082380761,0.854
0.029784918360246968,0.855
0.004203954389391699,0.856
-0.025029270819846468,0.857
-0.04877527443424298,0.858
-0.059579530145295684,0.859
-0.05500760195661549,0.86
-0.038412990939145825,0.861
-0.017085352883736867,0.862
0.0012378338335106381,0.863
0.011735961883194814,0.864
0.013837320074200389,0.865
0.010055887028561597,0.866
0.0037970661475025345,0.867
-0.0022933523689302893,0.868
-0.007057036431081551,0.869
-0.010744761323077088,0.87
-0.014252373262816368,0.871
-0.018116619085168616,0.872
-0.021896178460559468,0.873
-0.024137884521845326,0.874
-0.022703788210457685,0.875
-0.015432901142911702,0.876
-0.0012544874364640104,0.877
0.0186957087293473,0.878
0.040823001344035735,0.879
0.06001644340797958,0.88
0.07129661735352093,0.881
0.07146358719465926,0.882
0.06019682492459439,0.883
0.04010341432271654,0.884
0.015601533872077418,0.885
-0.008727670823563613,0.886
-0.029455154650459777,0.887
-0.044742598287618014,0.888
-0.05390980714296518,0.889
-0.056727479853981265,0.89
-0.05308977871126605,0.891
-0.04315964350442742,0.892
-0.027704810450668207,0.893
-0.008455125833959916,0.894
0.011662666033395675,0.895
0.028666350898174233,0.896
0.03830285794253069,0.897
0.03760805513931832,0.898
0.02663644792377477,0.899
0.008999141108199753,0.9
-0.009493024744179759,0.901
-0.023225955798719812,0.902
-0.028720880213414172,0.903
-0.025315360475906885,0.904
-0.014760100407651165,0.905
-0.000330203343504266,0.906
0.01403361477617326,0.907
0.02444623087439292,0.908
0.02793507454050251,0.909
0.023500139124042526,0.91
0.01279988113375962,0.911
-0.00023772646784008314,0.912
-0.010873047175519745,0.913
-0.015419787621843348,0.914
-0.012759769479882365,0.915
-0.0049194429064851495,0.916
0.0036728600220913383,0.917
0.008191501904633603,0.918
0.005728262760703126,0.919
-0.0034644733565962088,0.92
-0.0164207817181977,0.921
-0.029193998749872895,0.922
-0.03877923164388341,0.923
-0.043935140909933716,0.924
-0.04451261878639981,0.925
-0.0403199711517278,0.926
-0.030805065483870648,0.927
-0.01563819959255196,0.928
0.004653237108220296,0.929
0.028581435169773885,0.93
0.054043740736149204,0.931
0.07865434798857655,0.932
0.09967715802733124,0.933
0.11367040168743753,0.934
0.11643981216214284,0.935
0.1039998753558914,0.936
0.07463764549551234,0.937
0.030893037497697978,0.938
-0.020220965347020513,0.939
-0.06910408836939542,0.94
-0.10640962931403646,0.941
-0.12564541679417948,0.942
-0.12490820494203538,0.943
-0.10731688258253251,0.944
-0.07978012054921196,0.945
-0.050170534824129184,0.946
-0.024187043818002366,0.947
-0.0040241920538314,0.948
0.010587287599543596,0.949
0.020751574539407715,0.95
0.027791026536498804,0.951
0.033232994206495836,0.952
0.038295969879713274,0.953
0.043156693757795656,0.954
0.04726514169024834,0.955
0.05053600309081594,0.956
0.05358528395728235,0.957
0.05631716304858936,0.958
0.056410837340574886,0.959
0.04948372157022895,0.96
0.03129795673394444,0.961
0.0007664685008356904,0.962
-0.038354579625280674,0.963
-0.07828312296852445,0.964
-0.10987281804470993,0.965
-0.12555617570543284,0.966
-0.12136677821964767,0.967
-0.09763627017523276,0.968
-0.05865929844956109,0.969
-0.011766786570515372,0.97
0.03419211758097584,0.971
0.07092232035631818,0.972
0.09264549735249951,0.973
0.09720909688823212,0.974
0.08605195193885515,0.975
0.06326349158523564,0.976
0.03439278881625369,0.977
0.00543014719862793,0.978
-0.01806303236470645,0.979
-0.03159064232700667,0.98
-0.03218596659828258,0.981
-0.019155542088583017,0.982
0.004903420619175894,0.983
0.033613793462572227,0.984
0.05789525761368151,0.985
0.06892161506204979,0.986
0.061734693090147924,0.987
0.03739005239055501,0.988
0.002361072390005161,0.989
-0.034162326304549705,0.99
-0.06327401589770408,0.991
-0.07849017371596016,0.992
-0.0771369028911954,0.993
-0.06127209665543816,0.994
-0.0377899676105377,0.995
-0.01679393863442187,0.996
-0.0076452062344611205,0.997
-0.01423101196166215,0.998
-0.032791610106569793,0.999
-0.053905679902112424,1.0
-0.06689310130736603,1.001
-0.06389901494121909,1.002
-0.04221497929884216,1.003
-0.004856911488919599,1.004
0.04022427034677941,1.005
0.08249605864758033,1.006
0.11256116495057986,1.007
0.12527376711873783,1.008
0.12009203487958242,1.009
0.09922462578375289,1.01
0.06616813295038908,1.011
0.025794840840974508,1.012
-0.015263852992756167,1.013
-0.049430469430548005,1.014
-0.07009303213494818,1.015
-0.07337967088783398,1.016
-0.05895433326053774,1.017
-0.030043899168083418,1.018
0.00686279126843504,1.019
0.04287748198742992,1.02
0.06848177757529353,1.021
0.07581999892242447,1.022
0.060763719228955425,1.023
0.024230174882557954,1.024
-0.02762182759725301,1.025
-0.08453116817837454,1.026
-0.13444231873566348,1.027
-0.16642054156048813,1.028
-0.1731075797189126,1.029
-0.1518666192658498,1.03
-0.10487156548825823,1.031
-0.038596092897732866,1.032
0.037565477941187767,1.033
0.11346900258502304,1.034
0.17988383451842727,1.035
0.22854712271194566,1.036
0.2513978761816841,1.037
0.2410594725379497,1.038
0.19373326764647922,1.039
0.11309326358150229,1.04
0.011773036311615748,1.041
-0.09163266150839482,1.042
-0.17829547203322588,1.043
-0.2340624925775593,1.044
-0.25182354577618044,1.045
-0.23200988128148362,1.046
-0.18210122928732672,1.047
-0.11490890100904405,1.048
-0.04531621501482563,1.049
0.013978539331415903,1.05
0.056116987906897065,1.051
0.08105507317688944,1.052
0.0933410244405721,1.053
0.09847460413891979,1.054
0.09995552543434051,1.055
0.09792872677701082,1.056
0.08959620151325487,1.057
0.07146396110963439,1.058
0.04271168782236862,1.059
0.007440946705062104,1.06
-0.026260287885714818,1.061
-0.04965985441131026,1.062
-0.05655980791726095,1.063
-0.04508229610415534,1.064
-0.0183460668598336,1.065
0.015862498793157792,1.066
0.04682205344469384,1.067
0.06415146158597586,1.068
0.06169274765454405,1.069
0.039976154790227356,1.07
0.0057863946700831455,1.071
-0.03076087470258894,1.072
-0.05992054902204105,1.073
-0.07498308590040141,1.074
-0.073307702208048,1.075
-0.05657664372890591,1.076
-0.03065762736625237,1.077
-0.004166676777830624,1.078
0.014758240507547045,1.079
0.0221510579235853,1.08
0.019910964555148382,1.081
0.014030453680080993,1.082
0.010434141042948599,1.083
0.011339086555870523,1.084
0.014489561026312736,1.085
0.015150331431453083,1.086
0.009023251580343781,1.087
-0.005466334103596344,1.088
-0.02629302441870422,1.089
-0.04853961772551331,1.09
-0.06596058051691372,1.091
-0.07236097063230595,1.092
-0.06270778576808488,1.093
-0.034616434079666615,1.094
0.009798431937538732,1.095
0.06281459253642008,1.096
0.11186001879837845,1.097
0.142392135181169,1.098
0.14254600113042207,1.099
0.1080410632229817,1.1
0.04462428359794337,1.101
-0.03333378006337451,1.102
-0.10702645881463307,1.103
-0.15837776288186253,1.104
-0.17468402600266153,1.105
-0.15147683446693802,1.106
-0.09271662521216377,1.107
-0.008712891018824692,1.108
0.08613896726834656,1.109
0.17424356399872945,1.11
0.23572365436268497,1.111
0.2523978825227814,1.112
0.21510658496629706,1.113
0.12982572441809084,1.114
0.017118908087291596,1.115
-0.09555402823249913,1.116
-0.1838724420610046,1.117
-0.23345017885799213,1.118
-0.2411100142171368,1.119
-0.21233561142815224,1.12
-0.1575076248837537,1.121
-0.08834548413499485,1.122
-0.015522194988663647,1.123
0.05213072124419344,1.124
0.10750528989605498,1.125
0.14494578482541118,1.126
0.1600352913059437,1.127
0.14988836054514573,1.128
0.11435602218277449,1.129
0.057370490569249324,1.13
-0.012820508516438444,1.131
-0.08483976276613385,1.132
-0.14633901691908602,1.133
-0.18648884727140735,1.134
-0.1979596803962613,1.135
-0.17793050791737225,1.136
-0.12845442961834486,1.137
-0.05661191519521826,1.138
0.02584516704943693,1.139
0.10443389166628259,1.14
0.1659463976884263,1.141
0.2026281916098337,1.142
0.21333398752580038,1.143
0.20112595698135852,1.144
0.17040864618780013,1.145
0.12599384848666062,1.146
0.07323361979787604,1.147
0.017965533164557998,1.148
-0.03358406478869947,1.149
-0.07483862401511572,1.15
-0.09916296689238388,1.151
-0.10084855876137426,1.152
-0.0774648901891257,1.153
-0.033388380802730364,1.154
0.017924407097969396,1.155
0.05687583143423858,1.156
0.06657988506516117,1.157
0.041386918133402936,1.158
-0.011797984598239605,1.159
-0.07847941750001322,1.16
-0.14210883069726268,1.161
-0.18738441318639917,1.162
-0.20231300604942531,1.163
-0.18047614489922545,1.164
-0.12337131865159422,1.165
-0.04142798773389254,1.166
0.04750716423925475,1.167
0.12249064943021344,1.168
0.16618126408751063,1.169
0.17165264905938063,1.17
0.14480930248094795,1.171
0.10013608528288065,1.172
0.05303205733748089,1.173
0.013641247028509017,1.174
-0.015363656287431486,1.175
-0.0368366597941191,1.176
-0.05471153516315321,1.177
-0.07029202688317426,1.178
-0.08169324542104556,1.179
-0.08594688179852844,1.18
-0.08119966117932935,1.181
-0.06742409842049764,1.182
-0.04632836344785942,1.183
-0.020994025211738685,1.184
0.0052204105698751375,1.185
0.03001633351085857,1.186
0.052528351810128826,1.187
0.07264475633130538,1.188
0.09007912357044359,1.189
0.10366052773216881,1.19
0.1111400567133281,1.191
0.1100665692967262,1.192
0.09978774699919021,1.193
0.08318218631209587,1.194
0.06576510529624803,1.195
0.05174514739161232,1.196
0.04043094927021769,1.197
0.02677324675758086,1.198
0.005329841954640676,1.199
-0.02680201871390106,1.2
-0.07045035989827526,1.201
-0.12584639424221974,1.202
-0.19184063111999475,1.203
-0.2626837963705754,1.204
-0.3255156835441404,1.205
-0.3619422655684099,1.206
-0.35363077967450307,1.207
-0.2891201701011296,1.208
-0.169061232404675,1.209
-0.007466137555742334,1.21
0.17196226334824274,1.211
0.34183219084003996,1.212
0.47596753686566623,1.213
0.5539131929014097,1.214
0.566466256577035,1.215
0.5177206495368835,1.216
0.4198189355280086,1.217
0.28594494365502166,1.218
0.12831817474822305,1.219
-0.03976109676868865,1.22
-0.20215448003814235,1.221
-0.34070025891460304,1.222
-0.43801387134162145,1.223
-0.4805124090872576,1.224
-0.4615573574093828,1.225
-0.38480066112348105,1.226
-0.2657223935798134,1.227
-0.1290519655069781,1.228
-0.0017511833994469114,1.229
0.09529117631714681,1.23
0.15213511230835208,1.231
0.16944333775183468,1.232
0.15484300548830365,1.233
0.11907280342612102,1.234
0.07361695592506305,1.235
0.02928555330854609,1.236
-0.005691111565590726,1.237
-0.027736622072860737,1.238
-0.038124127781294044,1.239
-0.04099959821024021,1.24
-0.04102571983810386,1.241
-0.04138799838489521,1.242
-0.04197805620858523,1.243
-0.039015640069309784,1.244
-0.027364008691653653,1.245
-0.0038792438045737467,1.246
0.030838265644153758,1.247
0.07245969072199547,1.248
0.11333088063804025,1.249
0.14315283393589484,1.25
0.15139659808026323,1.251
0.1317994105275054,1.252
0.08628169759190187,1.253
0.025077738983073982,1.254
-0.037100186672269025,1.255
-0.08611563766154227,1.256
-0.11201864454243084,1.257
-0.11095953911310585,1.258
-0.08627978647771321,1.259
-0.04795897044446758,1.26
-0.008845312978720836,1.261
0.02132916647715842,1.262
0.04063010249506472,1.263
0.05509646806984913,1.264
0.07375940699621367,1.265
0.10160756509441642,1.266
0.13555897045957221,1.267
0.16556319261403182,1.268
0.1785068663199372,1.269
0.16250301085730437,1.27
0.11145804459209528,1.271
0.028737042245252198,1.272
-0.07287670061025028,1.273
-0.17503213936563342,1.274
-0.2588315771680434,1.275
-0.30910271944756074,1.276
-0.3173058605885284,1.277
-0.2828954139228472,1.278
-0.2132284567454342,1.279
-0.12241249970889184,1.28
-0.029072212809925713,1.281
0.04761251732107661,1.282
0.09313112006741278,1.283
0.10220092076099473,1.284
0.08058969742728288,1.285
0.04245574573962114,1.286
0.0038823234741137778,1.287
-0.02288482834200675,1.288
-0.03095817343781509,1.289
-0.017822249594607587,1.29
0.015168062546128153,1.291
0.0632782252493135,1.292
0.12002833250339158,1.293
0.1782500932632546,1.294
0.22894037367853545,1.295
0.2600831373306298,1.296
0.25872008265989355,1.297
0.21624744547342936,1.298
0.13416909738160845,1.299
0.026918592164374623,1.3
-0.08135374969751116,1.301
-0.16602738404342635,1.302
-0.21214624920029387,1.303
-0.21897797425847096,1.304
-0.19699684739592382,1.305
-0.16068384247681325,1.306
-0.12216353819835911,1.307
-0.08833414231606694,1.308
-0.06087493526903269,1.309
-0.0374663821081195,1.31
-0.013642569962702071,1.311
0.014569751589040208,1.312
0.04786836633244549,1.313
0.0822273949170571,1.314
0.10971203239657065,1.315
0.12128648620035795,1.316
0.11061969127225113,1.317
0.07757410113535218,1.318
0.029521175513628966,1.319
-0.020972939738792832,1.32
-0.06107491885101925,1.321
-0.08230223638481614,1.322
-0.0826625376164596,1.323
-0.06614470127617476,1.324
-0.04060150961527253,1.325
-0.01494007012386053,1.326
0.0037168435170647413,1.327
0.012252809132597589,1.328
0.012556703436541321,1.329
0.010653714222070286,1.33
0.013857954797080591,1.331
0.027038869195236105,1.332
0.04995280033998365,1.333
0.07670955972345794,1.334
0.09700573547439645,1.335
0.0990967766381846,1.336
0.0744396303293681,1.337
0.02207173974727521,1.338
-0.049820596503182595,1.339
-0.12571943387199752,1.34
-0.18666137857708662,1.341
-0.215157888892716,1.342
-0.2006030480058036,1.343
-0.14362280793719706,1.344
-0.057126191818687146,1.345
0.03715391067039132,1.346
0.11588693617539923,1.347
0.1626817090247964,1.348
0.17394417255615982,1.349
0.1583270486381211,1.35
0.13064227911217774,1.351
0.10515163932067928,1.352
0.0914243121698658,1.353
0.09255865256563998,1.354
0.10416719563286979,1.355
0.1137989415466001,1.356
0.10412689631451934,1.357
0.06267111435889867,1.358
-0.007656795478398868,1.359
-0.08813127658642698,1.36
-0.1561153885513408,1.361
-0.1986013407935929,1.362
-0.21548878711671124,1.363
-0.2119661338900965,1.364
-0.19062637741025876,1.365
-0.15195728514010165,1.366
-0.10024581242708017,1.367
-0.04635929553665937,1.368
-0.00359830281953121,1.369
0.019478796282231873,1.37
0.022707520477779904,1.371
0.012449864798387004,1.372
-0.002445326332170669,1.373
-0.013464091021701988,1.374
-0.013776492221349456,1.375
0.0005864666184450732,1.376
0.029269338983911413,1.377
0.06698174015871337,1.378
0.10508304708250281,1.379
0.13475788264822322,1.38
0.1497550946871661,1.381
0.14759434212601225,1.382
0.12957186684676347,1.383
0.09996244961741199,1.384
0.06456395797499678,1.385
0.029281140281920345,1.386
-0.0007102624903365449,1.387
-0.02156022107481406,1.388
-0.03135389850691831,1.389
-0.03056736618944389,1.39
-0.022328503719688267,1.391
-0.012296653801060717,1.392
-0.00735894288357978,1.393
-0.012813146027603053,1.394
-0.029471761312052654,1.395
-0.05275662433709844,1.396
-0.07457883420223495,1.397
-0.08698027094783961,1.398
-0.08542145837057605,1.399
-0.07025796047660172,1.4
-0.04637595360809755,1.401
-0.021355520277641548,1.402
-0.0025862200614979675,1.403
0.005612329518971385,1.404
0.003391350262069367,1.405
-0.005557665691339365,1.406
-0.016374684183594248,1.407
-0.024665185541689068,1.408
-0.026375384414790825,1.409
-0.017143156657319584,1.41
0.007193137155646733,1.411
0.04831174728436792,1.412
0.1019893675662272,1.413
0.1558231283443364,1.414
0.19133791786783047,1.415
0.19146200553588924,1.416
0.1492972609442497,1.417
0.07197683075453973,1.418
-0.02277742794444977,1.419
-0.11461343059726115,1.42
-0.18827240579762158,1.421
-0.23758246320204637,1.422
-0.26441839892870106,1.423
-0.2737677434336817,1.424
-0.2683365287425803,1.425
-0.24601236784603395,1.426
-0.2014466503128503,1.427
-0.13062509386059815,1.428
-0.03530506457871839,1.429
0.07567869673317076,1.43
0.18893711606197403,1.431
0.29109945468018816,1.432
0.37265213285815746,1.433
0.42888358670944626,1.434
0.45757533632888386,1.435
0.45542784714150836,1.436
0.41697967168036437,1.437
0.33816737513257744,1.438
0.22088544908104119,1.439
0.07353467865916247,1.44
-0.09100655635804751,1.441
-0.25602552622814007,1.442
-0.40082627094244716,1.443
-0.5027725502207285,1.444
-0.5424542527828015,1.445
-0.5102123121908784,1.446
-0.4111766762330792,1.447
-0.2660966410788141,1.448
-0.10628612730602342,1.449
0.03549734677023692,1.45
0.13379946074520618,1.451
0.1764369279549961,1.452
0.16716652725487596,1.453
0.12342771031730358,1.454
0.06852480643441439,1.455
0.02192347516434918,1.456
-0.006768179360619688,1.457
-0.01747195708590565,1.458
-0.014928567146615033,1.459
-0.004208709174256205,1.46
0.010835770068378409,1.461
0.02722300000646909,1.462
0.04248503922760479,1.463
0.05491042358646375,1.464
0.06406283457505668,1.465
0.07103209582300657,1.466
0.0781241287456853,1.467
0.08811127109514078,1.468
0.10322283847110822,1.469
0.12337546573745474,1.47
0.14365203610599903,1.471
0.1538898754112268,1.472
0.14318536440604543,1.473
0.10643423863455073,1.474
0.047122968363265745,1.475
-0.024639119827794206,1.476
-0.09552602675075851,1.477
-0.15201597353678314,1.478
-0.18318473017709455,1.479
-0.18290919479063236,1.48
-0.15154173121245493,1.481
-0.09737428971277856,1.482
-0.035958017086210894,1.483
0.01462590889580756,1.484
0.0402016951226142,1.485
0.03424495213437901,1.486
-0.0019285901918146989,1.487
-0.06010290106072091,1.488
-0.12651236890071643,1.489
-0.18501711638714916,1.49
-0.2214481903384145,1.491
-0.22636576854220924,1.492
-0.19558411249309532,1.493
-0.1302139419658781,1.494
-0.037198322829920465,1.495
0.07037674578329468,1.496
0.1746206566105399,1.497
0.2567467660309483,1.498
0.30280363271285754,1.499
0.30826504986041653,1.5
0.2781952718429687,1.501
0.22311473479717223,1.502
0.1544181823145598,1.503
0.08266012656316438,1.504
0.017966877914967327,1.505
-0.030569689395569952,1.506
-0.057548481687386854,1.507
-0.06359972188926652,1.508
-0.05459415313521694,1.509
-0.03785359743745638,1.51
-0.01892851837115431,1.511
-0.0020998153774136876,1.512
0.007139517443588054,1.513
0.0026106618810364463,1.514
-0.017871548950299097,1.515
-0.04861927173145227,1.516
-0.07735291911484471,1.517
-0.09057764377653876,1.518
-0.07991420974756727,1.519
-0.047357146609330804,1.52
-0.006908233657453971,1.521
0.020824783867315514,1.522
0.01998341075530552,1.523
-0.011331006086851662,1.524
-0.061200193794606006,1.525
-0.11199632792007815,1.526
-0.14899623502151646,1.527
-0.16414081283842627,1.528
-0.1554967509446487,1.529
-0.12523178784266856,1.53
-0.07812650889140511,1.531
-0.021565220293044106,1.532
0.034133139209193544,1.533
0.07710049222515651,1.534
0.09737352947665853,1.535
0.09058042692122231,1.536
0.05978362730012323,1.537
0.015357697175967088,1.538
-0.026419053586486434,1.539
-0.04666209796992486,1.54
-0.02940409760374586,1.541
0.032250373451573,1.542
0.13134824506169068,1.543
0.24523737482726268,1.544
0.3393151984865531,1.545
0.3786720347222274,1.546
0.34307692732848993,1.547
0.23519422401429368,1.548
0.07837626482910666,1.549
-0.0911225760519643,1.55
-0.23402213280698708,1.551
-0.31942550901558864,1.552
-0.3345091250006812,1.553
-0.28736485779783494,1.554
-0.20145178243390902,1.555
-0.10526104657171569,1.556
-0.02291748812122792,1.557
0.030517162887548053,1.558
0.0495137185719786,1.559
0.03720504461995906,1.56
0.004416392965643602,1.561
-0.032923623210710615,1.562
-0.05890920178179986,1.563
-0.06321623537263614,1.564
-0.04425101936643553,1.565
-0.008896561028584363,1.566
0.03061840026078483,1.567
0.0615383871830662,1.568
0.07523730985350192,1.569
0.0701495069303799,1.57
0.0524865155200777,1.571
0.03407200343182962,1.572
0.026730746075510528,1.573
0.03561341306725455,1.574
0.05654626993799637,1.575
0.07959929862308937,1.576
0.09497786926924832,1.577
0.096379123305774,1.578
0.08152412232929696,1.579
0.052184507823639176,1.58
0.013992001111289327,1.581
-0.025478505192771592,1.582
-0.05991975535404779,1.583
-0.08613924840340949,1.584
-0.10345389827785453,1.585
-0.11225093043159874,1.586
-0.11319447428486137,1.587
-0.10712850455145825,1.588
-0.09533011045842943,1.589
-0.07975823276897555,1.59
-0.06282550577894376,1.591
-0.046361990550136366,1.592
-0.030147742383751792,1.593
-0.011393836170919715,1.594
0.013579387977336214,1.595
0.04612351138150435,1.596
0.08295396123877102,1.597
0.1165878162321261,1.598
0.1379372280002787,1.599
0.13927668150044537,1.6
0.1169228491884414,1.601
0.07392160827849922,1.602
0.021499487042825838,1.603
-0.02362451209069043,1.604
-0.04631916993814474,1.605
-0.04020979364874162,1.606
-0.010494121793620175,1.607
0.028290801923024574,1.608
0.05774007787372648,1.609
0.0624613637349137,1.61
0.03611846977519198,1.611
-0.01623075492742641,1.612
-0.0804195292177658,1.613
-0.13851724174113983,1.614
-0.17485114642502206,1.615
-0.1803685897298709,1.616
-0.15422227660712212,1.617
-0.10290235999159013,1.618
-0.03776709997116201,1.619
0.02811267191799902,1.62
0.08307001441357352,1.621
0.11919456905964772,1.622
0.1334499968949298,1.623
0.1275650833187196,1.624
0.10663074886443309,1.625
0.07694916221416719,1.626
0.0444874702219624,1.627
0.014330888843787241,1.628
-0.00961858924576216,1.629
-0.025091169819023894,1.63
-0.03167989609040014,1.631
-0.030610348165468093,1.632
-0.024290035400174877,1.633
-0.015747282974019776,1.634
-0.007910158044854168,1.635
-0.0028695832420013406,1.636
-0.001317979270805296,1.637
-0.0024145005837066264,1.638
-0.004503663297975855,1.639
-0.006671715777333663,1.64
-0.009886385408621719,1.641
-0.016332389390663674,1.642
-0.0274909611787785,1.643
-0.04272736282071439,1.644
-0.05917754617200524,1.645
-0.0725471370837684,1.646
-0.07805845840830049,1.647
-0.07123307309430685,1.648
-0.04899184363086593,1.649
-0.01119223978815953,1.65
0.03829920697570165,1.651
0.09154228938087933,1.652
0.13725979400840668,1.653
0.16334163868354945,1.654
0.16184665390403144,1.655
0.13322796967068823,1.656
0.08588531858964185,1.657
0.032150379125885094,1.658
-0.015859743805330187,1.659
-0.049480670041506594,1.66
-0.06590441757824836,1.661
-0.06846357147307872,1.662
-0.063951180485586,1.663
-0.058577688618491504,1.664
-0.05514880320892193,1.665
-0.0528677834968638,1.666
-0.04918509779559698,1.667
-0.0419805701128007,1.668
-0.030775721202137025,1.669
-0.016857375915867705,1.67
-0.0028406157384952635,1.671
0.008060087267880855,1.672
0.012901303796674923,1.673
0.009982509321373989,1.674
-0.00017554176716345915,1.675
-0.014586505020562713,1.676
-0.02874233731118256,1.677
-0.03826498049307712,1.678
-0.040371522985832214,1.679
-0.034164786407239855,1.68
-0.0198111073884609,1.681
0.0017748472938313338,1.682
0.027940112713835317,1.683
0.0535685396210556,1.684
0.0723295678727527,1.685
0.07952306107517326,1.686
0.07449785111392865,1.687
0.06076001462723535,1.688
0.043794414107918345,1.689
0.02838945245617249,1.69
0.0170219650416579,1.691
0.009661871916820358,1.692
0.00461248572413896,1.693
-0.0002769252420634275,1.694
-0.006644265839686245,1.695
-0.01523260788247661,1.696
-0.026000765862523496,1.697
-0.038272134667236495,1.698
-0.05060858835102367,1.699
-0.06064984822203313,1.7
-0.06543265218729043,1.701
-0.06228968084704348,1.702
-0.04992244888300085,1.703
-0.029210658841136425,1.704
-0.003407347015049897,1.705
0.022530881996648714,1.706
0.04339489684645934,1.707
0.05537647895665062,1.708
0.057084361649912554,1.709
0.04959860710551182,1.71
0.035884807926897834,1.711
0.019807205599668646,1.712
0.004951094446365587,1.713
-0.006238988652178116,1.714
-0.01270501967417146,1.715
-0.014572458804719607,1.716
-0.012775239110890456,1.717
-0.008675252634743127,1.718
-0.0037350294906635774,1.719
0.0007524205144122774,1.72
0.0038563503419263207,1.721
0.005071242083091589,1.722
0.0042613652745582525,1.723
0.0016106265421542427,1.724
-0.0023595264874463283,1.725
-0.006829398619607635,1.726
-0.01088958870340579,1.727
-0.013833549274681991,1.728
-0.015390632223852809,1.729
-0.015825899594533458,1.73
-0.015880952306298202,1.731
-0.01652014013589633,1.732
-0.01846175566802297,1.733
-0.021654828072482313,1.734
-0.024972110188351698,1.735
-0.026349486204355312,1.736
-0.023446855871681997,1.737
-0.014492000540807506,1.738
0.0010131217577437467,1.739
0.021553229941612708,1.74
0.04303998495833892,1.741
0.059468812401045276,1.742
0.06525583714121669,1.743
0.05796409144309883,1.744
0.039401017666918,1.745
0.014552303352673525,1.746
-0.010352887400610373,1.747
-0.029465981218947623,1.748
-0.03859014308296066,1.749
-0.03622547520520375,1.75
-0.023984661580488714,1.751
-0.005929901636245171,1.752
0.013024691974651042,1.753
0.028779845080098905,1.754
0.038803314203548524,1.755
0.041822331056059515,1.756
0.03726353131805707,1.757
0.025306634001894784,1.758
0.007504147441322516,1.759
-0.013016136965882635,1.76
-0.032369962413209774,1.761
-0.047125840075927336,1.762
-0.054992922000676694,1.763
-0.05489638309197623,1.764
-0.046957198215473145,1.765
-0.03265968121821677,1.766
-0.014947003810911182,1.767
0.002138045954897855,1.768
0.01438233315513639,1.769
0.018701932755295105,1.77
0.01430769380626899,1.771
0.0031724586081902095,1.772
-0.010397794986808222,1.773
-0.020898365315578725,1.774
-0.023201006266884282,1.775
-0.0142169034561315,1.776
0.005904442132952231,1.777
0.03346271202093701,1.778
0.06193853981393545,1.779
0.08370447392026527,1.78
0.09212132194494185,1.781
0.08323242420300543,1.782
0.0569005051497618,1.783
0.01743807919154626,1.784
-0.026891049126916356,1.785
-0.06607449909212908,1.786
-0.09158446878037341,1.787
-0.09908839519332648,1.788
-0.08938502179231914,1.789
-0.06734411603699202,1.79
-0.03970476001491379,1.791
-0.012870822536430163,1.792
0.00862508435434725,1.793
0.02277041504883336,1.794
0.029866392019327705,1.795
0.03168766800744695,1.796
0.030429962668840387,1.797
0.027898306168617253,1.798
0.02511621914856444,1.799
0.022298806969900106,1.8
0.019126123228927587,1.801
0.015239599688410255,1.802
0.010703791080398876,1.803
0.006148384326084956,1.804
0.002603620470078145,1.805
0.0012273057388807673,1.806
0.003008944179570671,1.807
0.008421298785938685,1.808
0.017010438449445973,1.809
0.026987676765821072,1.81
0.03496647258065259,1.811
0.036212185496317224,1.812
0.02601426363817408,1.813
0.0022188400477059027,1.814
-0.03251136252341704,1.815
-0.07067938302446683,1.816
-0.10256481956623427,1.817
-0.11974744832027572,1.818
-0.11735370793574663,1.819
-0.09443058623152649,1.82
-0.053766290246918334,1.821
-0.0021720337244334727,1.822
0.04982068212184703,1.823
0.09049100581401838,1.824
0.11120979649619671,1.825
0.10972565547603523,1.826
0.09032521619244081,1.827
0.061210027104406775,1.828
0.030923875823186696,1.829
0.005681462900281443,1.83
-0.011549793942185405,1.831
-0.02058535707731838,1.832
-0.02298326428695582,1.833
-0.02103357848712873,1.834
-0.01703338609184556,1.835
-0.012859595607327984,1.836
-0.009770835229126095,1.837
-0.008369080204675115,1.838
-0.00869850884412509,1.839
-0.010421676198974926,1.84
-0.012959600697645481,1.841
-0.015550489177791017,1.842
-0.017300731878061824,1.843
-0.017333542463632425,1.844
-0.015042400771406476,1.845
-0.01034554279515928,1.846
-0.003798977086004599,1.847
0.003529909348292089,1.848
0.010389582860644902,1.849
0.01570840073137763,1.85
0.018853523933617302,1.851
0.019722631295756382,1.852
0.018625581400791017,1.853
0.015971454615662916,1.854
0.011969134276439995,1.855
0.0066244735388489495,1.856
2.5529298616434025e-05,1.857
-0.007331595284019096,1.858
-0.014364148245915406,1.859
-0.019523839605059448,1.86
-0.021251175849042937,1.861
-0.018542602250125658,1.862
-0.01136345949761234,1.863
-0.0007560949425116642,1.864
0.011345400510983797,1.865
0.022399388773518658,1.866
0.029561742864601028,1.867
0.030290548789030158,1.868
0.023345500782491934,1.869
0.009560918518341307,1.87
-0.008294918531394259,1.871
-0.026468909064674223,1.872
-0.04133620023373737,1.873
-0.050223089815633296,1.874
-0.05184869655791023,1.875
-0.04636925321059009,1.876
-0.03500678528687545,1.877
-0.019464598893703562,1.878
-0.0014842420113812132,1.879
0.01731723619143421,1.88
0.0353646415964535,1.881
0.05079720579669323,1.882
0.06114813186532401,1.883
0.06361061529678554,1.884
0.05616258927286168,1.885
0.03894057229806169,1.886
0.014748475083065368,1.887
-0.011719114602308279,1.888
-0.035263344392992904,1.889
-0.05131969068068848,1.89
-0.05658666545804069,1.891
-0.04936925363524976,1.892
-0.029832585086956777,1.893
-0.00020045324141384016,1.894
0.03506352546665819,1.895
0.06927825922846298,1.896
0.0942402660483148,1.897
0.10189696923262552,1.898
0.08695281917178581,1.899
0.04964290302789725,1.9
-0.0031210474752244094,1.901
-0.059517417077798694,1.902
-0.10665703147541912,1.903
-0.13448091362182418,1.904
-0.13822225910828953,1.905
-0.11899669751723076,1.906
-0.08276418488442806,1.907
-0.03826050444971711,1.908
0.005319862803160522,1.909
0.04040704317775897,1.91
0.06260550004591679,1.911
0.07116835516635885,1.912
0.0681925980526247,1.913
0.057205828675398904,1.914
0.04202473132418773,1.915
0.026117115362664114,1.916
0.01223930871838039,1.917
0.0021968945062870926,1.918
-0.0033094027710033167,1.919
-0.004705130856301705,1.92
-0.00336027815617034,1.921
-0.0012216730259196082,1.922
-0.00028293707641015677,1.923
-0.0019005917484017818,1.924
-0.006132849069263495,1.925
-0.011507891099209189,1.926
-0.01555969757578338,1.927
-0.016004620507438467,1.928
-0.011891137281671101,1.929
-0.004007116289686143,1.93
0.005524330838418075,1.931
0.013964328911632691,1.932
0.018693689279553314,1.933
0.01804642209456362,1.934
0.01212698595070893,1.935
0.0030327553434554423,1.936
-0.005968789101028759,1.937
-0.011942923760662142,1.938
-0.013530110052576122,1.939
-0.011239720907135589,1.94
-0.006754614597940017,1.941
-0.0017774240260595789,1.942
0.002760884956229232,1.943
0.006628265902849609,1.944
0.009627452521327939,1.945
0.011059480928206989,1.946
0.009838626732499814,1.947
0.0052384850461869885,1.948
-0.0022639417154554104,1.949
-0.010720740076509548,1.95
-0.01741815326074418,1.951
-0.020247781272506146,1.952
-0.018730974706021173,1.953
-0.01398085419648351,1.954
-0.007882367960472406,1.955
-0.002202572574898971,1.956
0.0019131886317622015,1.957
0.004016123867585671,1.958
0.004197977729266526,1.959
0.00289103937830854,1.96
0.000688628246201413,1.961
-0.001818695106624828,1.962
-0.004164988917699435,1.963
-0.00602849362976196,1.964
-0.007110883535723061,1.965
-0.006935926392902352,1.966
-0.004727858627754593,1.967
0.0005009912428464435,1.968
0.009586484315745242,1.969
0.022581524441393212,1.97
0.038132785856518296,1.971
0.05328322373730385,1.972
0.06385807935261154,1.973
0.0654944178276807,1.974
0.055284137554423254,1.975
0.03326653728672117,1.976
0.0027530976056060457,1.977
-0.03061612050632141,1.978
-0.06050477300141614,1.979
-0.08156023948577999,1.98
-0.09051487885668251,1.981
-0.08657120635777722,1.982
-0.0714252597031573,1.983
-0.04885560088298895,1.984
-0.023576404601972193,1.985
0.00019176359531037246,1.986
0.01960107403854179,1.987
0.03323705415203675,1.988
0.0406821923972625,1.989
0.04201419274499955,1.99
0.037550898271682426,1.991
0.028028412305056816,1.992
0.015069171550938974,1.993
0.0013836951437935896,1.994
-0.00969759933713121,1.995
-0.015134903801777344,1.996
-0.01311374935221043,1.997
-0.0038102931058769333,1.998
0.010264011797336046,1.999
0.02470133883067716,2.0
0.034515537757222894,2.001
0.035957914151583274,2.002
0.028144915322908363,2.003
0.013708035252806897,2.004
-0.0021776561206697295,2.005
-0.014156351545869342,2.006
-0.01911449565319626,2.007
-0.017214963102758305,2.008
-0.011131686312529511,2.009
-0.004356748484349524,2.01
0.0002145960986858806,2.011
0.0009232943771052005,2.012
-0.0025615297584561663,2.013
-0.009340265714836982,2.014
-0.01754359200262042,2.015
-0.024866693287523865,2.016
-0.029183480808904125,2.017
-0.028993031612938112,2.018
-0.023721411005975586,2.019
-0.013890000957179833,2.02
-0.0010341361411775464,2.021
0.012574985969175044,2.022
0.024258095294901014,2.023
0.031453476581629,2.024
0.032593317721184074,2.025
0.027896513607948727,2.026
0.01936915470048049,2.027
0.00983340083837255,2.028
0.0016073554671616082,2.029
-0.004267898758297802,2.03
-0.007919541630409475,2.031
-0.010018513216303648,2.032
-0.01111881103131586,2.033
-0.011250850893863988,2.034
-0.009958539949344022,2.035
-0.0067474688982864395,2.036
-0.0015893534112185726,2.037
0.0048801342281743505,2.038
0.0114962630408787,2.039
0.016822983934141705,2.04
0.019460446738787492,2.041
0.018478984916434085,2.042
0.013842483227158269,2.043
0.0064723103652675005,2.044
-0.002145746397729341,2.045
-0.010481741985649566,2.046
-0.017242122081798008,2.047
-0.021429578633802265,2.048
-0.022471390209000637,2.049
-0.02052161317854356,2.05
-0.016677169761560355,2.051
-0.01268252715859816,2.052
-0.010059721431877186,2.053
-0.00929382667155988,2.054
-0.009742080971589231,2.055
-0.010186447780586591,2.056
-0.009491292942482518,2.057
-0.007026275174059493,2.058
-0.002803781744853918,2.059
0.0025916473045770375,2.06
0.008196502888637268,2.061
0.01296241770393577,2.062
0.01610480644699801,2.063
0.01741543034123292,2.064
0.017443948134119217,2.065
0.01738324882853377,2.066
0.018568182269558007,2.067
0.021787867476596223,2.068
0.02674442430457118,2.069
0.031898469789201,2.07
0.034870415488703815,2.071
0.03335716467917886,2.072
0.026108527320054257,2.073
0.013470901960124147,2.074
-0.002625571977855098,2.075
-0.019215016568148943,2.076
-0.03327441592772849,2.077
-0.04269709700122972,2.078
-0.04673655268778213,2.079
-0.04580310020735571,2.08
-0.04096480022858438,2.081
-0.03358196871522905,2.082
-0.025170778493410723,2.083
-0.01726359482539132,2.084
-0.011069673376410636,2.085
-0.007045788669099301,2.086
-0.004691277890763618,2.087
-0.002759841396710246,2.088
0.00019448350467635796,2.089
0.0051980933793281964,2.09
0.012462225007883175,2.091
0.02134905491081444,2.092
0.030572891715601885,2.093
0.038467232922620866,2.094
0.04334168080887685,2.095
0.04395751119617614,2.096
0.03990152321234846,2.097
0.03160834959414286,2.098
0.020059767864085403,2.099
0.006411369435647791,2.1
-0.008203074803452538,2.101
-0.022620763245803463,2.102
-0.035482400799307826,2.103
-0.0451578554747983,2.104
-0.04998151369112733,2.105
-0.04880763625249059,2.106
-0.04150691046763564,2.107
-0.029052968260139103,2.108
-0.01328522126937294,2.109
0.0033792964222656187,2.11
0.01820236633260327,2.111
0.028561545447763095,2.112
0.03276174854768497,2.113
0.030839504015551415,2.114
0.02457608319883159,2.115
0.016566550548172344,2.116
0.009103227071731477,2.117
0.003570994819987813,2.118
0.00040314548144950666,2.119
-0.000668311840763804,2.12
-0.00029377319394677964,2.121
0.0007629248402639295,2.122
0.0018018980078050356,2.123
0.0022942227984147695,2.124
0.001956788592573876,2.125
0.0007901541481838723,2.126
-0.0009371892940839078,2.127
-0.0027443448571966953,2.128
-0.004027840842265608,2.129
-0.0042041492522400395,2.13
-0.0028947378819967587,2.131
-0.00010510754804230546,2.132
0.0036638467992481986,2.133
0.0074466092399474645,2.134
0.010035078255245702,2.135
0.010334353858464927,2.136
0.007711797633193056,2.137
0.0022164244058695986,2.138
-0.005414766509016904,2.139
-0.013956552205218964,2.14
-0.021977958996584293,2.141
-0.028110813297154504,2.142
-0.0312838296343622,2.143
-0.030930127770726363,2.144
-0.027212993034444112,2.145
-0.021197384159349863,2.146
-0.0146581360253824,2.147
-0.00936638748986089,2.148
-0.006241671651266072,2.149
-0.004910800549262265,2.15
-0.003818803223018383,2.151
-0.0007946014452300353,2.152
0.006007048109637883,2.153
0.01703041932034859,2.154
0.030744359787637513,2.155
0.04418180131212408,2.156
0.054263603592015354,2.157
0.058808821069027024,2.158
0.05675305030765972,2.159
0.04805788581145114,2.16
0.03377935820022676,2.161
0.016231566231365385,2.162
-0.001136661604500634,2.163
-0.014565385069397249,2.164
-0.02144978697761156,2.165
-0.021606054992749098,2.166
-0.017413215444141875,2.167
-0.012675208326258717,2.168
-0.010860969440718956,2.169
-0.013701096753918295,2.17
-0.020737365129845645,2.171
-0.0298111036041668,2.172
-0.03812369389616093,2.173
-0.043293134980806364,2.174
-0.04392430886705188,2.175
-0.03966091909478891,2.176
-0.03102354578472982,2.177
-0.019250496348658462,2.178
-0.006070753843190518,2.179
0.006675743004087944,2.18
0.01743864572545705,2.181
0.025193828640914993,2.182
0.029456298373123156,2.183
0.030152243233582225,2.184
0.027492909831443386,2.185
0.021911327025040894,2.186
0.014032192669735072,2.187
0.0046728588619902355,2.188
-0.005097832030978131,2.189
-0.013899427228071465,2.19
-0.02008350942688123,2.191
-0.021926605414290937,2.192
-0.018002818715059748,2.193
-0.007732833664162719,2.194
0.00807108773297751,2.195
0.026967397661997326,2.196
0.04514712257837486,2.197
0.05817487373184057,2.198
0.062088842793739676,2.199
0.05466329270918926,2.2
0.036375421410185044,2.201
0.01047273376360807,2.202
-0.018036856426835772,2.203
-0.04392765672333807,2.204
-0.06299865487884336,2.205
-0.07256236738386232,2.206
-0.07135317063159567,2.207
-0.059376182911052205,2.208
-0.03803851088582277,2.209
-0.010416585893235637,2.21
0.01879178771460806,2.211
0.04401774834348041,2.212
0.06025668985250192,2.213
0.06455466385563366,2.214
0.05672757941173316,2.215
0.03908967494872787,2.216
0.01559354366283676,2.217
-0.00916425738110618,2.218
-0.030843744989127186,2.219
-0.04608304347971193,2.22
-0.05299251753050607,2.221
-0.05135776865395613,2.222
-0.04249178665503838,2.223
-0.028723012912344387,2.224
-0.012637654293322613,2.225
0.00355875547539683,2.226
0.01822128732238441,2.227
0.030088401115131228,2.228
0.038090985251580625,2.229
0.041326895871438535,2.23
0.039233159902115566,2.231
0.031912078109707885,2.232
0.02039478207199009,2.233
0.006588020985803545,2.234
-0.007135167331888006,2.235
-0.018527314539152188,2.236
-0.025981007466520923,2.237
-0.028807389611731196,2.238
-0.027286093819676064,2.239
-0.02248178268399358,2.24
-0.015834152914629928,2.241
-0.008708199450448428,2.242
-0.0021527923630851134,2.243
0.0030805011130126815,2.244
0.006442318041683943,2.245
0.007594297732521312,2.246
0.00651713173536552,2.247
0.0036197737506475946,2.248
-0.00024320031849512616,2.249
-0.003908003958015702,2.25
-0.0061546863882536405,2.251
-0.00596246399310983,2.252
-0.002705352467466006,2.253
0.0036678245985143684,2.254
0.01243021662837559,2.255
0.021973596255862506,2.256
0.030049929525411696,2.257
0.03444161489874971,2.258
0.033737297795115626,2.259
0.027731744101629974,2.26
0.017330165098379577,2.261
0.004200926283977115,2.262
-0.009557217388255188,2.263
-0.021670273117526385,2.264
-0.03005033014623602,2.265
-0.03332227844669834,2.266
-0.031236588505255927,2.267
-0.024738535086156848,2.268
-0.0157123396561303,2.269
-0.00648171329380933,2.27
0.0008347809200710127,2.271
0.004895540535160013,2.272
0.00538000704417704,2.273
0.0028502565051618718,2.274
-0.0016017979546953545,2.275
-0.006715412363233306,2.276
-0.011311956808889231,2.277
-0.014410479064642545,2.278
-0.01525333289715396,2.279
-0.013350541866180173,2.28
-0.008629464397785789,2.281
-0.0016060672999274135,2.282
0.006639212432468266,2.283
0.014768887494291519,2.284
0.021629663416288535,2.285
0.026582481378747542,2.286
0.029516058414185132,2.287
0.030509550257102253,2.288
0.029416483882536676,2.289
0.025789514230433467,2.29
0.019269486824516145,2.291
0.010134778918679052,2.292
-0.00041994915075458576,2.293
-0.010520850836414243,2.294
-0.0182535004762659,2.295
-0.022348976302402304,2.296
-0.02260814698664254,2.297
-0.01988109200674015,2.298
-0.015633316811663023,2.299
-0.01141005633746921,2.3
-0.008462642442365671,2.301
-0.00751201226976679,2.302
-0.00858008082826552,2.303
-0.010958728352277656,2.304
-0.013390731342633919,2.305
-0.014435043025104153,2.306
-0.012942106538123268,2.307
-0.00855176493105777,2.308
-0.001985199539765884,2.309
0.005212758444489496,2.31
0.011471212676548886,2.311
0.01595904338887044,2.312
0.018755814279616177,2.313
0.020376047486476624,2.314
0.021065664121796175,2.315
0.02049163728157083,2.316
0.01811107297745602,2.317
0.013816324847147681,2.318
0.008228177998777567,2.319
0.0024399410610825008,2.32
-0.0025062844364644823,2.321
-0.0060244055041561925,2.322
-0.00808304535844847,2.323
-0.009011809867935792,2.324
-0.009145694495958104,2.325
-0.008585059054307356,2.326
-0.007294587958574666,2.327
-0.005398660206823748,2.328
-0.0033233670205148856,2.329
-0.0016666979617526827,2.33
-0.0009674380841452639,2.331
-0.001537422339704746,2.332
-0.0034152170251434775,2.333
-0.006452275053830474,2.334
-0.010446228811318776,2.335
-0.015156597940627676,2.336
-0.020163129530903944,2.337
-0.024710788671733767,2.338
-0.027637383163847812,2.339
-0.027411326071990417,2.34
-0.02241975879250198,2.341
-0.01159018193189508,2.342
0.004894620006425894,2.343
0.02520559155553459,2.344
0.04606183835669675,2.345
0.06347705546222497,2.346
0.07376100557692741,2.347
0.07436642454042082,2.348
0.06437583852709591,2.349
0.044728601819528854,2.35
0.018194456674798163,2.351
-0.011124535442789183,2.352
-0.03872084919038632,2.353
-0.060601483052820336,2.354
-0.07386179258517105,2.355
-0.0769404118694179,2.356
-0.06973171817199117,2.357
-0.05360644066171718,2.358
-0.0312082979531818,2.359
-0.005936949559871011,2.36
0.018764762935982022,2.361
0.04007264107811297,2.362
0.0560799374904517,2.363
0.06560360723585922,2.364
0.06779172985309631,2.365
0.06199375761871369,2.366
0.048108485582473146,2.367
0.02716084702411247,2.368
0.0015739143795659005,2.369
-0.02513413018259415,2.37
-0.04902431217947023,2.371
-0.06648370936653573,2.372
-0.07491682624723033,2.373
-0.07332216237441172,2.374
-0.06261727685923985,2.375
-0.04543978189833891,2.376
-0.02530746503508162,2.377
-0.005573679321085641,2.378
0.011228291321927486,2.379
0.0235774513482859,2.38
0.030923622073569423,2.381
0.03351179996539685,2.382
0.032146137146389184,2.383
0.027986435590063388,2.384
0.02237496328171991,2.385
0.016640251554773427,2.386
0.011864791032586067,2.387
0.008668774199198736,2.388
0.007094518167903947,2.389
0.006681904268434673,2.39
0.006753052250068179,2.391
0.0067458112680654995,2.392
0.0063774063150083245,2.393
0.005620923069514022,2.394
0.004623668554195409,2.395
0.0035941728346506174,2.396
0.0026558958722507895,2.397
0.0017666594323323237,2.398
0.0007667100172923521,2.399
-0.000500258576466354,2.4
-0.0020918675191037538,2.401
-0.003946736204909978,2.402
-0.0059262990606067665,2.403
-0.007873684614511515,2.404
-0.009631172730338202,2.405
-0.011018259763119802,2.406
-0.011815261080635272,2.407
-0.011760013974260715,2.408
-0.010556074716020979,2.409
-0.007911284441419485,2.41
-0.0036492763218298847,2.411
0.00207879448879731,2.412
0.008566022156620789,2.413
0.014506417044631736,2.414
0.018313200489722185,2.415
0.018745959840869315,2.416
0.015495820714251023,2.417
0.009332329975849594,2.418
0.0017254957952618885,2.419
-0.00580304063283402,2.42
-0.012216721096789358,2.421
-0.017111538100302696,2.422
-0.020500645733774785,2.423
-0.022465928066890073,2.424
-0.022867736535079248,2.425
-0.021284092070801473,2.426
-0.017326694623149327,2.427
-0.011158450594241332,2.428
-0.0037331313911705705,2.429
0.0034778775144135438,2.43
0.009053597611812096,2.431
0.012124170348413673,2.432
0.012573460856866364,2.433
0.01093454614208739,2.434
0.008114708085012195,2.435
0.005082250220526636,2.436
0.0025936140398101744,2.437
0.0010427382391302714,2.438
0.0004760380039731942,2.439
0.0007093920631529064,2.44
0.0014858426330183704,2.441
0.0026491707788007107,2.442
0.00424534492364489,2.443
0.006463055800223732,2.444
0.00944909599222118,2.445
0.013098745583992296,2.446
0.016898293190892203,2.447
0.019905539128518664,2.448
0.02096916526348587,2.449
0.01919358884859887,2.45
0.014418155638243188,2.451
0.007361780383346192,2.452
-0.0006686781411891642,2.453
-0.00828109738862004,2.454
-0.014421182500582457,2.455
-0.01857527139980476,2.456
-0.020750001901106943,2.457
-0.021276273407282574,2.458
-0.020564803726674855,2.459
-0.018962561367231186,2.46
-0.016735786648429563,2.461
-0.014111288729319443,2.462
-0.011315751276144736,2.463
-0.008593950685729726,2.464
-0.0061841917981826445,2.465
-0.004231014375186427,2.466
-0.0027012310705792977,2.467
-0.0013747758947911509,2.468
0.00012771579798622553,2.469
0.0022987780246370793,2.47
0.005584834196766262,2.471
0.010092675178339745,2.472
0.015344125179744083,2.473
0.020296753225629946,2.474
0.023677628573408615,2.475
0.024464086652009075,2.476
0.02223831516836577,2.477
0.017261194550231448,2.478
0.010344056264395024,2.479
0.002642899039551809,2.48
-0.004620403349626613,2.481
-0.010479060928911176,2.482
-0.014417505242039603,2.483
-0.016332506974874445,2.484
-0.016376160807704942,2.485
-0.014881187975512728,2.486
-0.012367224434309605,2.487
-0.009455793684956979,2.488
-0.0066789637338473245,2.489
-0.004355034513924703,2.49
-0.002595273044575314,2.491
-0.0013407725875125207,2.492
-0.00040404388417539445,2.493
0.000410773408922606,2.494
0.001156340019926273,2.495
0.00170611421945904,2.496
0.0018611193921796328,2.497
0.0014873747474179388,2.498
0.0005820593254342099,2.499
-0.0007455181625765948,2.5
-0.002326696876363153,2.501
-0.0039437191595997345,2.502
-0.005263958909730386,2.503
-0.00576146372481056,2.504
-0.0047321732815842005,2.505
-0.0014576204733407828,2.506
0.004521165419212778,2.507
0.013126579809033388,2.508
0.023566424456132554,2.509
0.034302043133157066,2.51
0.04318803440435846,2.511
0.0478499342554215,2.512
0.04633418227062999,2.513
0.03782470788495102,2.514
0.023024988294481245,2.515
0.004010923576493188,2.516
-0.016298401731355914,2.517
-0.034846527459486513,2.518
-0.04913901012363295,2.519
-0.057685839121208164,2.52
-0.06004821512488274,2.521
-0.056639689318061376,2.522
-0.04851997791986664,2.523
-0.03723015466246766,2.524
-0.02456364946446402,2.525
-0.0122372674453129,2.526
-0.0015833285385710623,2.527
0.0066027813573194104,2.528
0.012068966398377089,2.529
0.015053333852595479,2.53
0.016177806442585128,2.531
0.016253198907827594,2.532
0.01604827933237778,2.533
0.016124420884692958,2.534
0.0167783641177929,2.535
0.018042173787830858,2.536
0.0196674052075966,2.537
0.02113290912790219,2.538
0.02178471883711584,2.539
0.02107771760781903,2.54
0.018760619522738064,2.541
0.014933058387639178,2.542
0.01001082798819592,2.543
0.004614571417290058,2.544
-0.0005959616638494161,2.545
-0.005064509696848434,2.546
-0.008410755937481664,2.547
-0.010451029216601283,2.548
-0.011196356601475546,2.549
-0.010835848709761524,2.55
-0.009701352044909496,2.551
-0.008217535742327807,2.552
-0.0068258342227102645,2.553
-0.005865750691320067,2.554
-0.005472416610186837,2.555
-0.005575329318951678,2.556
-0.005974428802692279,2.557
-0.0064214232227146175,2.558
-0.006702703544906188,2.559
-0.00671057310897682,2.56
-0.006441361151345821,2.561
-0.005920048814321298,2.562
-0.005125194481936635,2.563
-0.003980581531169718,2.564
-0.002413745565172552,2.565
-0.0004240776664530538,2.566
0.001860521815612818,2.567
0.004132627307159046,2.568
0.005945810545254147,2.569
0.00692578565387434,2.57
0.007017699568931665,2.571
0.006533819804759974,2.572
0.00595318935657784,2.573
0.005646320230688605,2.574
0.005703862513279225,2.575
0.005914898094016133,2.576
0.005882258994299053,2.577
0.005248635788147549,2.578
0.003918848018065018,2.579
0.0021143972326660657,2.58
0.0002027262376704123,2.581
-0.0015624365434811496,2.582
-0.0031622848560761705,2.583
-0.004702718512817222,2.584
-0.006177438172680097,2.585
-0.00730528176687359,2.586
-0.0076080002636980506,2.587
-0.006684516538235925,2.588
-0.004442875945604709,2.589
-0.0011278620096094726,2.59
0.0027938482036056083,2.591
0.006728062384115472,2.592
0.009969464306179674,2.593
0.01174677115894767,2.594
0.011405097893756051,2.595
0.008656988848654476,2.596
0.003708091120988744,2.597
-0.0028197039667779626,2.598
-0.01005425797418819,2.599
-0.017016512411676878,2.6
-0.022731926882288575,2.601
-0.02632947267791287,2.602
-0.027123117076857006,2.603
-0.02465423438224769,2.604
-0.01871090715343047,2.605
-0.00941570909418658,2.606
0.0025545386298519925,2.607
0.01574861983494362,2.608
0.028012570593981257,2.609
0.037034729160516436,2.61
0.041178361754239064,2.611
0.0401079394789579,2.612
0.03479072682250669,2.613
0.026860055502850786,2.614
0.017763211504933894,2.615
0.008286903767381056,2.616
-0.0012721827152426695,2.617
-0.010622680104110847,2.618
-0.019188925449131256,2.619
-0.02615784632610874,2.62
-0.030711590089058466,2.621
-0.032283033549820754,2.622
-0.030739699899604442,2.623
-0.026476925960868414,2.624
-0.02038436060102174,2.625
-0.013613033212347745,2.626
-0.007189738853196224,2.627
-0.0016949944200728248,2.628
0.002793895024095701,2.629
0.006493835036796211,2.63
0.009607429694594742,2.631
0.012120742618515062,2.632
0.013830608395984776,2.633
0.014531235287980896,2.634
0.014168880183558203,2.635
0.012852192358675213,2.636
0.010764183515857584,2.637
0.008082964724277879,2.638
0.004948976596930311,2.639
0.0014744509906563605,2.64
-0.0021917012725204063,2.641
-0.005783266254751389,2.642
-0.008910927240161596,2.643
-0.01114023616623657,2.644
-0.012068443329002546,2.645
-0.011367655411202068,2.646
-0.008854630038310898,2.647
-0.004608296020633135,2.648
0.000938641717457894,2.649
0.006992962166208863,2.65
0.01247965146869966,2.651
0.01624179113750187,2.652
0.017376594867045615,2.653
0.01555930697017232,2.654
0.011172729864057221,2.655
0.005194596451633387,2.656
-0.0011079439418001768,2.657
-0.006550008598350733,2.658
-0.01030114468884387,2.659
-0.011973646641475587,2.66
-0.011554655599881319,2.661
-0.009277615616079803,2.662
-0.005535741516456548,2.663
-0.0008807651402052411,2.664
0.003941038870813058,2.665
0.008012397271108836,2.666
0.010380204313897329,2.667
0.010303636865272428,2.668
0.007569038026213074,2.669
0.0027122898233925695,2.67
-0.0030396014314968836,2.671
-0.00815494739003623,2.672
-0.011364805133009295,2.673
-0.012113139649802526,2.674
-0.010645047736581604,2.675
-0.007754917851522133,2.676
-0.004392801784322871,2.677
-0.0013149169715066353,2.678
0.00108540429600876,2.679
0.002718411113998588,2.68
0.003616537974411887,2.681
0.003811435867741279,2.682
0.003348810694239687,2.683
0.00236250143810009,2.684
0.0010930978396172762,2.685
-0.0001670548785477217,2.686
-0.0011451593518992428,2.687
-0.001647458288221433,2.688
-0.001624655157980199,2.689
-0.0012191485419333252,2.69
-0.0007169409356077218,2.691
-0.0003912833620724741,2.692
-0.0003345724671063276,2.693
-0.0004087643276992237,2.694
-0.00038191442761999303,2.695
-0.00016076598572836934,2.696
9.677834204051686e-05,2.697
9.44076843974185e-05,2.698
-0.0003905913213101994,2.699
-0.0013673732679894213,2.7
-0.00261083423956606,2.701
-0.0037214873160435645,2.702
-0.004224340096947498,2.703
-0.0036880593490194024,2.704
-0.0018708554676501374,2.705
0.0011286350720534743,2.706
0.0048119582745198486,2.707
0.008389725054134847,2.708
0.011024895953985142,2.709
0.012108624666005482,2.71
0.011469948673396747,2.711
0.00943936848664269,2.712
0.006716361898486062,2.713
0.0040914354109158136,2.714
0.0021722413808443475,2.715
0.0012334700000826246,2.716
0.0011997385040479014,2.717
0.0017080111376474745,2.718
