VaMe,time
0.0007006654765257279,0.001
-0.0058522105891202205,0.002
-0.011672114136287418,0.003
-0.016143638079262505,0.004
-0.01886671257048015,0.005
-0.0196864072351713,0.006
-0.01865964598338331,0.007
-0.015989249057516634,0.008
-0.011990413733096185,0.009
-0.0071190150330816436,0.01
-0.0020193371452660335,0.011
0.0025212961380914603,0.012
0.005778958346132154,0.013
0.007348507204112051,0.014
0.00725967958844972,0.015
0.005887232218266698,0.016
0.0037349775690216805,0.017
0.0012236848631118804,0.018
-0.0014216862792317305,0.019
-0.004150625057873521,0.02
-0.006955235195490092,0.021
-0.009715015765475411,0.022
-0.01211182676450512,0.023
-0.013641801020276938,0.024
-0.013723408590820415,0.025
-0.01187909864655196,0.026
-0.007894075506644536,0.027
-0.0018818504231349709,0.028
0.005704203208121031,0.029
0.014079875218755013,0.03
0.022195532353658263,0.031
0.028865940302503112,0.032
0.032934368133691216,0.033
0.03349173894586279,0.034
0.030150769199918267,0.035
0.023254859813797026,0.036
0.013874225987971094,0.037
0.0035381003854142172,0.038
-0.006187467621326759,0.039
-0.014066604286040129,0.04
-0.01938921314898661,0.041
-0.022015004947323436,0.042
-0.02230283808016697,0.043
-0.020943080450793773,0.044
-0.018725531520896715,0.045
-0.0163107277876981,0.046
-0.014090633861095967,0.047
-0.012168584269733804,0.048
-0.010412312674786602,0.049
-0.008536673817053942,0.05
-0.006215266291741312,0.051
-0.003215821420234763,0.052
0.0005007933360847418,0.053
0.004767206281648327,0.054
0.009231725757613874,0.055
0.01336349703947373,0.056
0.01649512300421911,0.057
0.017970957678268135,0.058
0.017355413078649486,0.059
0.014579502308652488,0.06
0.009953543569226663,0.061
0.004079807381222826,0.062
-0.002241495997160793,0.063
-0.008060398221287004,0.064
-0.01234537840392771,0.065
-0.014195383135109017,0.066
-0.013170272087262791,0.067
-0.009526907513545254,0.068
-0.00418928645107986,0.069
0.0015460893024168405,0.07
0.006435807119754265,0.071
0.00965168624918006,0.072
0.010940857440605224,0.073
0.010578044153607824,0.074
0.00917393580075784,0.075
0.007399979944543658,0.076
0.005716091516063361,0.077
0.0042187087280036025,0.078
0.0026773674187254995,0.079
0.000727089849965635,0.08
-0.001889981887595648,0.081
-0.005146650171466084,0.082
-0.008681029199154587,0.083
-0.011873625435190622,0.084
-0.013998269657193519,0.085
-0.014392063559582044,0.086
-0.012639803126808798,0.087
-0.008779370278962813,0.088
-0.0034328971389690766,0.089
0.002298754470969266,0.09
0.007198586176416036,0.091
0.01034658990658811,0.092
0.011339485627126533,0.093
0.010274935864710287,0.094
0.0076470409318629955,0.095
0.004257741989522289,0.096
0.001074911856625438,0.097
-0.0010511658707570012,0.098
-0.0017042932495084761,0.099
-0.0010400288788045713,0.1
0.00034271364725196933,0.101
0.0017086522551223499,0.102
0.002472534949516104,0.103
0.002332988082468321,0.104
0.001293222142868157,0.105
-0.00037680319739138003,0.106
-0.002246485498518839,0.107
-0.0038762240814525233,0.108
-0.004955256285568298,0.109
-0.005402028086719597,0.11
-0.00540286981854141,0.111
-0.0053225863982345216,0.112
-0.005495718206656751,0.113
-0.006029305018222564,0.114
-0.006720927259407617,0.115
-0.007106568081093251,0.116
-0.006631272498257416,0.117
-0.004897626615476084,0.118
-0.001878888284650281,0.119
0.0019991884393745596,0.12
0.005948239809950588,0.121
0.009085448908728297,0.122
0.010789089343172537,0.123
0.010949635182272325,0.124
0.009960365849176733,0.125
0.008449687441092556,0.126
0.0069294808999439605,0.127
0.005583150315906606,0.128
0.004310270210047057,0.129
0.002965356823770444,0.13
0.0015651686127752527,0.131
0.00027143543979144175,0.132
-0.0007663682357475427,0.133
-0.0014764034397263652,0.134
-0.0018072382493033547,0.135
-0.001707840745978164,0.136
-0.0012197739194446358,0.137
-0.0005770087841024609,0.138
-0.00015739782160112124,0.139
-0.00026905820610759423,0.14
-0.0009536502809040801,0.141
-0.0019894385754225252,0.142
-0.0030702499060831696,0.143
-0.003973563092412932,0.144
-0.004569104234054045,0.145
-0.004729748380029167,0.146
-0.004320515173318594,0.147
-0.0032876549856674393,0.148
-0.0017368860469176614,0.149
5.63286470237128e-05,0.15
0.001700918492926861,0.151
0.0027928124845716853,0.152
0.0030221650029481,0.153
0.0022321066772251195,0.154
0.00044664718105397194,0.155
-0.0020796938454671083,0.156
-0.0048418826462000115,0.157
-0.007191995091293031,0.158
-0.008547145695230044,0.159
-0.008563948968119996,0.16
-0.0071914705239854255,0.161
-0.0046363091014992525,0.162
-0.0013148168486411818,0.163
0.0021967728556310387,0.164
0.005244561650400268,0.165
0.007210557213904667,0.166
0.00763655967515122,0.167
0.006380811031523476,0.168
0.003793543298918617,0.169
0.0007370119638626022,0.17
-0.0016828520481003307,0.171
-0.002544643419419105,0.172
-0.0014716753712713394,0.173
0.0012309467432417528,0.174
0.00472162209009119,0.175
0.007981155299132122,0.176
0.01019920143311444,0.177
0.010977971609297851,0.178
0.010288699869051747,0.179
0.008312704369333401,0.18
0.005329178727439804,0.181
0.0017205580010864394,0.182
-0.0019524586859251843,0.183
-0.004965440572740254,0.184
-0.006647025731977979,0.185
-0.006692162718493151,0.186
-0.005328002178300294,0.187
-0.003186182312667866,0.188
-0.0009875518065295414,0.189
0.0007020777621289464,0.19
0.0015470970381848512,0.191
0.0014613068942851207,0.192
0.0006226933505926312,0.193
-0.0005883240484848139,0.194
-0.0017450975824027794,0.195
-0.0025412241203719176,0.196
-0.002898375213187128,0.197
-0.00301113917061204,0.198
-0.003319973529127529,0.199
-0.004385263894385411,0.2
-0.006666617462489988,0.201
-0.010263831311894435,0.202
-0.01470783184336333,0.203
-0.01889087346720201,0.204
-0.021239138881179703,0.205
-0.020197997248506336,0.206
-0.014907332007135917,0.207
-0.005726594049475003,0.208
0.0057109496140846415,0.209
0.016990735197108045,0.21
0.02576330704559778,0.211
0.030519539355250286,0.212
0.030872702399707876,0.213
0.027365493360003053,0.214
0.021153823276633253,0.215
0.01370889096962173,0.216
0.006479364876327604,0.217
0.0005662334804560952,0.218
-0.003477630863662005,0.219
-0.005677757983296928,0.22
-0.0065023949837176255,0.221
-0.00661412471086749,0.222
-0.006608763366733284,0.223
-0.006798440224339836,0.224
-0.007067654093388556,0.225
-0.006936120783655863,0.226
-0.005907713999136205,0.227
-0.0038838215341547356,0.228
-0.00132876027494263,0.229
0.0008938159752541629,0.23
0.0018930538318672008,0.231
0.0011501190166882899,0.232
-0.0012475468398793902,0.233
-0.004648908532849151,0.234
-0.008104896497457813,0.235
-0.01070094922266168,0.236
-0.011821339859597192,0.237
-0.011272920268351897,0.238
-0.009240334823371657,0.239
-0.006111495600202331,0.24
-0.002296034567052785,0.241
0.0018583484760333815,0.242
0.006033160294879553,0.243
0.009829848709318216,0.244
0.0126911013355301,0.245
0.013986409186762187,0.246
0.013287908131743268,0.247
0.010686492909564799,0.248
0.006921214765734201,0.249
0.0032007593703598145,0.25
0.0007663162379163558,0.251
0.00036334678722460664,0.252
0.0018579570046978074,0.253
0.004224577075341193,0.254
0.005987877925332631,0.255
0.005928415826496546,0.256
0.00364604799308857,0.257
-0.0003278467906430525,0.258
-0.0048426919307650975,0.259
-0.008612452619542823,0.26
-0.010650091393815782,0.261
-0.010553275869949976,0.262
-0.00858895024784227,0.263
-0.005541027559787826,0.264
-0.0023850632342325164,0.265
1.8713332510919855e-05,0.266
0.0010797794628553323,0.267
0.0005326342313129728,0.268
-0.0015315054940589759,0.269
-0.004684337385647054,0.27
-0.008266786276784498,0.271
-0.011557858251735904,0.272
-0.013924358897147935,0.273
-0.014861350591128569,0.274
-0.013932174228600458,0.275
-0.01075492219699186,0.276
-0.0052002912780934754,0.277
0.0022778360674964213,0.278
0.010507546614881394,0.279
0.017870906792591557,0.28
0.02290642480218195,0.281
0.02491587388778678,0.282
0.024164779697494393,0.283
0.02158143067367494,0.284
0.01821784539035533,0.285
0.014784805294140693,0.286
0.01147495618606137,0.287
0.008093436013792697,0.288
0.004331504985329485,0.289
5.892852509213068e-06,0.29
-0.004825089389146552,0.291
-0.009867627194960503,0.292
-0.014672895227310086,0.293
-0.01872135479779236,0.294
-0.021456819337524392,0.295
-0.02230296948505279,0.296
-0.020776907735662258,0.297
-0.016751615383789272,0.298
-0.010693357617147799,0.299
-0.003618026123673456,0.3
0.003255759802308843,0.301
0.008920152354701151,0.302
0.012804528970161167,0.303
0.014741021681164488,0.304
0.01477323147165179,0.305
0.012985752983115191,0.306
0.009492428415926898,0.307
0.004549370797835315,0.308
-0.0013648676936299563,0.309
-0.0075528338516953,0.31
-0.013151245099017009,0.311
-0.017249205594560404,0.312
-0.019040150457489215,0.313
-0.017952620776590884,0.314
-0.013800327606980542,0.315
-0.00695943152819071,0.316
0.0015362734721318912,0.317
0.010087201283622943,0.318
0.016837836705852476,0.319
0.020202819003790624,0.32
0.01951209994707715,0.321
0.01543234530260757,0.322
0.009793049908784181,0.323
0.00484025475374007,0.324
0.002290678787926559,0.325
0.002622063377905086,0.326
0.004928577045170727,0.327
0.007396629840639658,0.328
0.00816262440657883,0.329
0.006160467688082436,0.33
0.0015537971082833187,0.331
-0.004468127156219686,0.332
-0.010368319635060253,0.333
-0.014945766205014716,0.334
-0.01764815878087475,0.335
-0.018491340306970024,0.336
-0.01779833049635153,0.337
-0.015960898114842307,0.338
-0.013314385883492824,0.339
-0.010129403890921035,0.34
-0.006633639900469043,0.341
-0.002993075971237815,0.342
0.0006826553772606659,0.343
0.004287484581801087,0.344
0.007689828763556758,0.345
0.010715673760428018,0.346
0.013130926128329798,0.347
0.014678550439789424,0.348
0.015125169911243984,0.349
0.014228815824766016,0.35
0.011726290195387954,0.351
0.007511139509564281,0.352
0.0019249261138435112,0.353
-0.004113460684377105,0.354
-0.009267793136022384,0.355
-0.012127701203198496,0.356
-0.011608458732907138,0.357
-0.0073574947630169205,0.358
-5.398901219902415e-05,0.359
0.008625034484984242,0.36
0.016513951127485067,0.361
0.021755521689004402,0.362
0.023408542545165206,0.363
0.021532066676652934,0.364
0.016853100609802506,0.365
0.010359385935755479,0.366
0.003027139971302734,0.367
-0.004320714702779328,0.368
-0.011102597114578394,0.369
-0.01706164321356186,0.37
-0.022251385241145605,0.371
-0.02677690178443109,0.372
-0.030423869852922957,0.373
-0.032503690114614466,0.374
-0.03204647394175611,0.375
-0.02824432761965958,0.376
-0.020953471314670253,0.377
-0.010969899435888518,0.378
0.00015826966463092216,0.379
0.010718298487822442,0.38
0.019446651415560533,0.381
0.02576240869826636,0.382
0.029547710110126274,0.383
0.03076605707386098,0.384
0.029230788971059272,0.385
0.024671792274589252,0.386
0.01707014034644898,0.387
0.007028922854128057,0.388
-0.004121206464831547,0.389
-0.01459167715016715,0.39
-0.02257979240615933,0.391
-0.0266285592675037,0.392
-0.025879258324346323,0.393
-0.02029579968656499,0.394
-0.010844243556725142,0.395
0.0005028788107244459,0.396
0.011132808538654863,0.397
0.01854369403498254,0.398
0.021159784887646152,0.399
0.01880217076202646,0.4
0.012647558413860872,0.401
0.0047817123173140305,0.402
-0.0024641038132630524,0.403
-0.007174109311523027,0.404
-0.008278635465821521,0.405
-0.0056996096537054695,0.406
-0.00031956454011801823,0.407
0.006208985333410352,0.408
0.01192802522079762,0.409
0.01521833232137965,0.41
0.015229140354164977,0.411
0.011889997929142518,0.412
0.005741426640030773,0.413
-0.0021632627319307565,0.414
-0.010325426386309492,0.415
-0.017005992023305647,0.416
-0.020658916192300602,0.417
-0.020460996226290672,0.418
-0.016581801168249755,0.419
-0.009987321038078974,0.42
-0.0020312530831319243,0.421
0.0058011312048945425,0.422
0.01201570259112767,0.423
0.015311802562440248,0.424
0.014902277896461813,0.425
0.010815056425396213,0.426
0.0039350025324891395,0.427
-0.004327083229551712,0.428
-0.012493683270804086,0.429
-0.019305375038778487,0.43
-0.023822145142215326,0.431
-0.025457364619038168,0.432
-0.02396144460198435,0.433
-0.019372226893289716,0.434
-0.012002154106942532,0.435
-0.0024752381357738703,0.436
0.008245978459082062,0.437
0.018888759478908945,0.438
0.027949934612792535,0.439
0.03385258365280535,0.44
0.03524034860489374,0.441
0.031396358096380333,0.442
0.022639479638236083,0.443
0.010457860394179784,0.444
-0.0027351542015696968,0.445
-0.014112400417970516,0.446
-0.021103707233520057,0.447
-0.022152989801285317,0.448
-0.017318482561138077,0.449
-0.008362308356600867,0.45
0.0018794826330924977,0.451
0.010628164731254162,0.452
0.016092664093922623,0.453
0.017654929535032875,0.454
0.015492431380325168,0.455
0.010153040281117662,0.456
0.0024078286318872312,0.457
-0.006641269940579674,0.458
-0.015546671067058586,0.459
-0.022804353348535696,0.46
-0.027211862690999827,0.461
-0.028070732100277076,0.462
-0.025310738260281275,0.463
-0.019538104255712,0.464
-0.011822835496573902,0.465
-0.003227492359855173,0.466
0.005612595138439681,0.467
0.014523446976659147,0.468
0.023400580485872666,0.469
0.03168707005554582,0.47
0.038128796092162735,0.471
0.041025910279197664,0.472
0.0388243650530456,0.473
0.030726922111742307,0.474
0.017127466004556953,0.475
-0.0002883480818321505,0.476
-0.018874255924866485,0.477
-0.03561233315178611,0.478
-0.04767532148632936,0.479
-0.05291207585999492,0.48
-0.050370082609463664,0.481
-0.04073277066429888,0.482
-0.026295326127430706,0.483
-0.010301164720437081,0.484
0.004109020968007647,0.485
0.014816615216878288,0.486
0.021077563383669753,0.487
0.023277829566046668,0.488
0.022433681023681158,0.489
0.01980180181583724,0.49
0.016662614313162436,0.491
0.014088726971133494,0.492
0.012641356124362997,0.493
0.012217599146654545,0.494
0.012237182683415466,0.495
0.012035241863420131,0.496
0.011160245735702583,0.497
0.00943276843176932,0.498
0.006860292229185718,0.499
0.003553433305431936,0.5
-0.0003287913534514763,0.501
-0.004642281610830842,0.502
-0.009314228982774541,0.503
-0.014273496573890173,0.504
-0.019210457997912926,0.505
-0.023380168503363132,0.506
-0.025686072500345394,0.507
-0.02505932846013702,0.508
-0.020939800092622706,0.509
-0.013565552615881035,0.51
-0.003935287337581547,0.511
0.006418461400173725,0.512
0.01567941040093154,0.513
0.022065103490649957,0.514
0.02430216924817347,0.515
0.02208179833785029,0.516
0.01618828720014838,0.517
0.008226999177289564,0.518
0.0001172566245998733,0.519
-0.006448071169097336,0.52
-0.010417005112556854,0.521
-0.011557619864117418,0.522
-0.010366771588269943,0.523
-0.007769512052180304,0.524
-0.004770494422953892,0.525
-0.0022129735145213643,0.526
-0.0006486640996810143,0.527
-0.00021836977749779642,0.528
-0.0005422522799508405,0.529
-0.0007574815561713255,0.53
0.00022332254118528785,0.531
0.003330037287155958,0.532
0.00895861805032485,0.533
0.016644586402836607,0.534
0.024839051992327513,0.535
0.03101640213741892,0.536
0.03239997088905249,0.537
0.027188116783875834,0.538
0.01557168258913751,0.539
-0.00020328990339696555,0.54
-0.016762075425783972,0.541
-0.03084980303267413,0.542
-0.04025502671346772,0.543
-0.04419840864648449,0.544
-0.04322855166180105,0.545
-0.038714664185508174,0.546
-0.03211344050017624,0.547
-0.024353455262546533,0.548
-0.015650234698427117,0.549
-0.005787076466774011,0.55
0.005336939593014984,0.551
0.017223049561618693,0.552
0.028636942817322566,0.553
0.037823761948537406,0.554
0.04292489056980656,0.555
0.04251629905680043,0.556
0.03613070657997273,0.557
0.024526892314480776,0.558
0.009622289207370202,0.559
-0.005890876420326643,0.56
-0.019244177384652034,0.561
-0.028349276658821688,0.562
-0.03216115864810614,0.563
-0.03051796719522237,0.564
-0.023755917739067458,0.565
-0.012489490465333875,0.566
0.002260782994648537,0.567
0.01873948086456385,0.568
0.034313864737515964,0.569
0.04584280959385903,0.57
0.050544209519160915,0.571
0.04695909631344075,0.572
0.03546513468140051,0.573
0.01808685897739108,0.574
-0.0022394315508405724,0.575
-0.02255925874386484,0.576
-0.04045976826092723,0.577
-0.05407449471295821,0.578
-0.06188407725708293,0.579
-0.06280358810327297,0.58
-0.05659439295585254,0.581
-0.044220111185615335,0.582
-0.027815994872606456,0.583
-0.010230889430297999,0.584
0.005685943679148144,0.585
0.017794567472417498,0.586
0.02513832192618832,0.587
0.028051917950026938,0.588
0.027935271053874486,0.589
0.02679864082982621,0.59
0.026583436930324313,0.591
0.02833620004344009,0.592
0.031645032187785575,0.593
0.03477658921126898,0.594
0.035512612904878435,0.595
0.03224425628673931,0.596
0.024733081091279325,0.597
0.014160677961593399,0.598
0.0025229583535153004,0.599
-0.008262826544819971,0.6
-0.017076201262831076,0.601
-0.023804570615535963,0.602
-0.029045360377423342,0.603
-0.03354624458152249,0.604
-0.03767962703934956,0.605
-0.0411911369131768,0.606
-0.04328003164551259,0.607
-0.04286573986349661,0.608
-0.03888375860560812,0.609
-0.030595157665302478,0.61
-0.017987806967457328,0.611
-0.0021582625836101474,0.612
0.014767486730103477,0.613
0.030342536028340358,0.614
0.04261537801106403,0.615
0.0505520217974466,0.616
0.054044732969681396,0.617
0.05356354424334581,0.618
0.04957112569341674,0.619
0.04217051071532117,0.62
0.03133125856563853,0.621
0.01738508193882098,0.622
0.0012848107201883028,0.623
-0.015441586711983358,0.624
-0.030862185562714358,0.625
-0.04294060567517233,0.626
-0.049985427868088045,0.627
-0.05101520151585835,0.628
-0.04581927695926185,0.629
-0.034839337550924575,0.63
-0.019187787654848992,0.631
-0.000878573239416552,0.632
0.01708563601597695,0.633
0.03121841406538188,0.634
0.03865602730374422,0.635
0.0382978134393021,0.636
0.03125316107973701,0.637
0.02029259946714103,0.638
0.008639513503407793,0.639
-0.0012317189062218078,0.64
-0.008301070871709065,0.641
-0.013110153710315976,0.642
-0.01735679205199433,0.643
-0.023076674864951217,0.644
-0.03161903653379694,0.645
-0.04277060589412764,0.646
-0.05442934034933166,0.647
-0.06304466807392552,0.648
-0.0645447220374016,0.649
-0.05535337670469836,0.65
-0.03360858341649146,0.651
-0.00047487385135988076,0.652
0.03945231694973044,0.653
0.07925597434822719,0.654
0.11158412339836292,0.655
0.13030606963730484,0.656
0.13155674599849138,0.657
0.11428322135455107,0.658
0.08061017023458088,0.659
0.035905849822668576,0.66
-0.012064114203922149,0.661
-0.054948870119349506,0.662
-0.08584410758747131,0.663
-0.10075042055255418,0.664
-0.09901280413072686,0.665
-0.08279092903548847,0.666
-0.056118033070471224,0.667
-0.024082880040928328,0.668
0.007824565755541394,0.669
0.03431548868695709,0.67
0.050888390995153354,0.671
0.05471829375011063,0.672
0.04586958175608252,0.673
0.02774446130379919,0.674
0.005928867925863131,0.675
-0.013863241205848632,0.676
-0.027594162799522804,0.677
-0.033766611885337756,0.678
-0.033114679087896615,0.679
-0.02759241853734034,0.68
-0.01960120967931006,0.681
-0.011780144849479774,0.682
-0.006659371322773911,0.683
-0.00579103848710659,0.684
-0.009087764705140777,0.685
-0.014991221399578166,0.686
-0.021097132017933458,0.687
-0.024610150453121062,0.688
-0.022692382189926887,0.689
-0.013175486328917048,0.69
0.004333263872075887,0.691
0.027491151941696303,0.692
0.05121966639830986,0.693
0.06915713343716007,0.694
0.07593897087202735,0.695
0.06895521191688762,0.696
0.048888379046808,0.697
0.019309323654410498,0.698
-0.01414384093387142,0.699
-0.04476714128587399,0.7
-0.06609394844627149,0.701
-0.07361754893072593,0.702
-0.06647189330364525,0.703
-0.048024734650228766,0.704
-0.024712265220569817,0.705
-0.003490475194053651,0.706
0.010909271027639772,0.707
0.017503332039607643,0.708
0.018757297526557002,0.709
0.019043317396225258,0.71
0.022664939701276553,0.711
0.031987396329231824,0.712
0.046151628577396464,0.713
0.0609425365252804,0.714
0.07028181526105075,0.715
0.06890723847019642,0.716
0.054689489469654046,0.717
0.029294165879921494,0.718
-0.0027477982562105195,0.719
-0.035615317334631115,0.72
-0.06361207236054019,0.721
-0.08217861572458666,0.722
-0.08853155206947551,0.723
-0.08195923651232756,0.724
-0.06376397862412692,0.725
-0.03686501175498071,0.726
-0.005265212667414284,0.727
0.026332320197475997,0.728
0.052713823096812204,0.729
0.06862958916011123,0.73
0.07019416998371035,0.731
0.056774755236014725,0.732
0.031775838627441405,0.733
0.0014199183035975987,0.734
-0.0276630157402557,0.735
-0.050457888942690036,0.736
-0.06423730543223016,0.737
-0.06815874006045877,0.738
-0.0626507358443517,0.739
-0.04904842304317667,0.74
-0.029355965335995153,0.741
-0.005932383340790471,0.742
0.018773173889633416,0.743
0.042270719504133844,0.744
0.06200499912097012,0.745
0.0755271377865579,0.746
0.08085660389443904,0.747
0.07664559554440249,0.748
0.062031476111217454,0.749
0.03676929475953181,0.75
0.0021563932421028316,0.751
-0.03783146215876337,0.752
-0.07651346632070738,0.753
-0.10610529323994194,0.754
-0.12014007751445821,0.755
-0.11554525999061575,0.756
-0.09360444611879458,0.757
-0.05951235488537821,0.758
-0.020664507192659175,0.759
0.015724466281211515,0.76
0.044821686998461216,0.761
0.06544925490840878,0.762
0.07982074595882155,0.763
0.09165403146840524,0.764
0.10372132184061994,0.765
0.11625082964620986,0.766
0.12654885131403648,0.767
0.12942626419269743,0.768
0.11839069097247513,0.769
0.08793866394073195,0.77
0.03659956659736661,0.771
-0.030874680599026903,0.772
-0.10390081384683503,0.773
-0.16902437005984894,0.774
-0.21365530280344636,0.775
-0.2288345839004515,0.776
-0.21062472178057667,0.777
-0.1606048575062798,0.778
-0.08578651511584166,0.779
0.002188545919733586,0.78
0.088846055566812,0.781
0.15984377130000058,0.782
0.20447609356026264,0.783
0.21796435135253528,0.784
0.20130581129711758,0.785
0.15916263191774568,0.786
0.09729742431576463,0.787
0.02142365614295428,0.788
-0.061698684014286076,0.789
-0.14242125709986583,0.79
-0.20807010643966029,0.791
-0.24576089116291217,0.792
-0.24715413286137156,0.793
-0.21208926560667557,0.794
-0.1485136362389997,0.795
-0.06920048556061631,0.796
0.012244683920385002,0.797
0.08438032816949899,0.798
0.1395382090230476,0.799
0.1739696413665366,0.8
0.1867838442074238,0.801
0.17873748565242012,0.802
0.15200493417252703,0.803
0.11082439975195216,0.804
0.06149439109194306,0.805
0.010767978462454567,0.806
-0.0357277997748412,0.807
-0.07294129742301601,0.808
-0.09470833834713607,0.809
-0.09383200489671706,0.81
-0.06499362840151253,0.811
-0.008936881592530017,0.812
0.06482033928397406,0.813
0.13884230647690374,0.814
0.19203755980260898,0.815
0.20565814638169475,0.816
0.16968068131945185,0.817
0.0878066602622922,0.818
-0.02206900784166036,0.819
-0.13367455764083128,0.82
-0.2217267145643981,0.821
-0.2695665021109085,0.822
-0.27207115872828946,0.823
-0.23466841054253554,0.824
-0.17038489592509168,0.825
-0.09583625669578387,0.826
-0.026749306006951627,0.827
0.02567707088479177,0.828
0.05629126333276317,0.829
0.06547372479416019,0.83
0.057653353024367394,0.831
0.03959132056093874,0.832
0.018686085056272422,0.833
0.0015606964970657068,0.834
-0.006826572244635628,0.835
-0.0036098381711529323,0.836
0.01166339011100898,0.837
0.036658622773227206,0.838
0.0663109327165775,0.839
0.09392729527930568,0.84
0.11324702307242056,0.841
0.12054082067984176,0.842
0.11553657394959765,0.843
0.10068767262259512,0.844
0.07949575920434944,0.845
0.055109743869256905,0.846
0.029935232658410287,0.847
0.005793413426906595,0.848
-0.016301350479608304,0.849
-0.03652203748897111,0.85
-0.05576690019302413,0.851
-0.07431145607498599,0.852
-0.09072338280447412,0.853
-0.10203830827671276,0.854
-0.10499610183477066,0.855
-0.09741605810098741,0.856
-0.07909432245783923,0.857
-0.05226882846665246,0.858
-0.021758336268538035,0.859
0.006114139814303285,0.86
0.026521673570232947,0.861
0.03893874016872648,0.862
0.04651440343415569,0.863
0.052181509813474025,0.864
0.05509866391224456,0.865
0.05065831172477563,0.866
0.0342173532682508,0.867
0.0055985798199772166,0.868
-0.029072765671644324,0.869
-0.0592284905956363,0.87
-0.07403464878218774,0.871
-0.06681709018765737,0.872
-0.0379492937223919,0.873
0.004909529270059687,0.874
0.049655939727622174,0.875
0.08485110751733188,0.876
0.10428207131862134,0.877
0.10827938847475584,0.878
0.10191375916821473,0.879
0.09198168139884198,0.88
0.08395427596309682,0.881
0.07911448000240154,0.882
0.07277388677423025,0.883
0.05546916159667263,0.884
0.01792962533735617,0.885
-0.04267079088478409,0.886
-0.11957942154810695,0.887
-0.19848587832326126,0.888
-0.26271019441469334,0.889
-0.29829172262548176,0.89
-0.2971981268804391,0.891
-0.2584192414628729,0.892
-0.18718481156262468,0.893
-0.09281024119453855,0.894
0.013720032189407998,0.895
0.12115585216180588,0.896
0.2177486873326307,0.897
0.29013798040605154,0.898
0.32388716074433876,0.899
0.30802771196664297,0.9
0.24208275976802648,0.901
0.13978508446641538,0.902
0.025131471205719406,0.903
-0.07671948542791432,0.904
-0.14721026531506087,0.905
-0.1773764273303072,0.906
-0.16735457045625057,0.907
-0.12454953871885749,0.908
-0.06112508209612832,0.909
0.008874801047292491,0.91
0.0724046168843831,0.911
0.11988309070899719,0.912
0.1462363726567995,0.913
0.15004048959481253,0.914
0.1320552328977602,0.915
0.09488520721934235,0.916
0.04362298423737968,0.917
-0.014196173289818747,0.918
-0.06998592186765472,0.919
-0.1159374559340697,0.92
-0.1463950916661807,0.921
-0.15865456198937322,0.922
-0.15321190652256417,0.923
-0.13334955838636545,0.924
-0.10416544534553382,0.925
-0.07130142403410396,0.926
-0.03951598951370239,0.927
-0.011484085098969837,0.928
0.012452980718097214,0.929
0.033370643718677775,0.93
0.052391153468432344,0.931
0.06967906005440908,0.932
0.08402408902735208,0.933
0.09298630758806738,0.934
0.09371523193255181,0.935
0.08432241061414879,0.936
0.06513232959103853,0.937
0.0390945320877143,0.938
0.011133624313372212,0.939
-0.013342967003998875,0.94
-0.030032617265851064,0.941
-0.036491472984674485,0.942
-0.03211981189853145,0.943
-0.018362420022675144,0.944
0.0007247744163032838,0.945
0.018749660807168177,0.946
0.028842813949377318,0.947
0.026076203382016223,0.948
0.008948991218464531,0.949
-0.02033119479229401,0.95
-0.056334334622755826,0.951
-0.09164740683274794,0.952
-0.11878105056654657,0.953
-0.13200001367457495,0.954
-0.12837637089322287,0.955
-0.10783392418838389,0.956
-0.07224757923531874,0.957
-0.024306461286214328,0.958
0.032805461010655276,0.959
0.09481254893082491,0.96
0.15566492711432361,0.961
0.20739062496493404,0.962
0.2404099159924119,0.963
0.24427389250004217,0.964
0.21021519952227258,0.965
0.13658778467164723,0.966
0.03391121428372265,0.967
-0.07595584141069502,0.968
-0.16719017564210942,0.969
-0.21888174909647937,0.97
-0.2205217546265316,0.971
-0.17355499694125312,0.972
-0.09084423688539268,0.973
0.0054659687194484425,0.974
0.08867420374575018,0.975
0.13525398269672392,0.976
0.13341616110856455,0.977
0.08763823914953596,0.978
0.015953335227114927,0.979
-0.058183789404498705,0.98
-0.11477836597043083,0.981
-0.1428380427179982,0.982
-0.14118551860824938,0.983
-0.11584341871086716,0.984
-0.07579078783361994,0.985
-0.028721638933569844,0.986
0.020641242678375683,0.987
0.06808984088208693,0.988
0.10642056217479173,0.989
0.12596140273323728,0.99
0.11912875762569505,0.991
0.0846684011583591,0.992
0.029305470429965296,0.993
-0.032926936227440556,0.994
-0.08406630893694696,0.995
-0.10858430067789797,0.996
-0.0998259985495326,0.997
-0.06198624667768977,0.998
-0.006985322142128657,0.999
0.05020132657812749,1.0
0.0951812787645157,1.001
0.11712169909275866,1.002
0.11156899248236872,1.003
0.08166212248429616,1.004
0.03630683255278904,1.005
-0.013603026709384786,1.006
-0.05835957552835517,1.007
-0.09074367626881191,1.008
-0.10620119762978346,1.009
-0.10279736081270609,1.01
-0.08098259100723564,1.011
-0.043391808400157245,1.012
0.004835144760470791,1.013
0.05556722165696734,1.014
0.09825770357732397,1.015
0.12252688802746149,1.016
0.1218997788576648,1.017
0.09618247066430613,1.018
0.05100039426121037,1.019
-0.004350603606005842,1.02
-0.059074726770363566,1.021
-0.10293193454191098,1.022
-0.128337707871154,1.023
-0.13172745762760577,1.024
-0.1133488999170745,1.025
-0.07572958718940077,1.026
-0.022365109396246783,1.027
0.04198407697568028,1.028
0.10968339050495345,1.029
0.16887801992662693,1.03
0.20440027631180063,1.031
0.20230313921251258,1.032
0.15665112831824488,1.033
0.07418955996628387,1.034
-0.026673600635800293,1.035
-0.12192173743523052,1.036
-0.18955022395265608,1.037
-0.21592756204070704,1.038
-0.19955478671600718,1.039
-0.15095984268525156,1.04
-0.08795439762090017,1.041
-0.02820767277283632,1.042
0.016788153765457413,1.043
0.04374403875337657,1.044
0.05596428859826555,1.045
0.059878344003248346,1.046
0.061368579169320966,1.047
0.0630299757048955,1.048
0.06310308009264287,1.049
0.05669624571995263,1.05
0.03925047354031537,1.051
0.010517171559318006,1.052
-0.02381559178748778,1.053
-0.05426019993890287,1.054
-0.07174850218369189,1.055
-0.07097028660100009,1.056
-0.051402956004894536,1.057
-0.01672730642126824,1.058
0.026079711119322814,1.059
0.06772477530139256,1.06
0.09817859056773222,1.061
0.10891260842405008,1.062
0.09517854280833515,1.063
0.05754493619267567,1.064
0.0022580037972537853,1.065
-0.05965894996728368,1.066
-0.11459800721018001,1.067
-0.14927262547070486,1.068
-0.15320512820768428,1.069
-0.12032675948868118,1.07
-0.0502330049144723,1.071
0.050103417166715195,1.072
0.1643745566175157,1.073
0.2667358452508471,1.074
0.32620011240515095,1.075
0.3170005691456809,1.076
0.23147046300477686,1.077
0.08683520238186364,1.078
-0.08025475006355122,1.079
-0.22809380449626726,1.08
-0.32401061270434556,1.081
-0.35213001544364025,1.082
-0.3150034836192943,1.083
-0.23093896589794205,1.084
-0.12750288131869725,1.085
-0.03268652279461092,1.086
0.03320299205764715,1.087
0.06217857312616776,1.088
0.05866574653542797,1.089
0.03618689385097714,1.09
0.012571220336168967,1.091
0.0050006019227704515,1.092
0.025545656359357745,1.093
0.07748168716892136,1.094
0.1527022916781337,1.095
0.2313131943201575,1.096
0.28584620852910697,1.097
0.29150163888047553,1.098
0.2381677499750312,1.099
0.13574952050398803,1.1
0.008921647795735817,1.101
-0.11373653068966764,1.102
-0.2087871903237552,1.103
-0.262940039678756,1.104
-0.27548603104247926,1.105
-0.25744014942202814,1.106
-0.2259312983233235,1.107
-0.19600041905459514,1.108
-0.1740217467874849,1.109
-0.1557553601394839,1.11
-0.12971220885435805,1.111
-0.08389973325280241,1.112
-0.012407976148094755,1.113
0.08110881572607051,1.114
0.18386611881797563,1.115
0.2774792853934938,1.116
0.3434369404312175,1.117
0.3687934841354913,1.118
0.3494703110652247,1.119
0.28980486824411444,1.12
0.19992280377278737,1.121
0.09332922087095318,1.122
-0.014770982017861133,1.123
-0.10935358544820153,1.124
-0.17809956754937453,1.125
-0.2139558419152831,1.126
-0.21670578972587076,1.127
-0.1927066820940403,1.128
-0.1528151289446556,1.129
-0.10949555046402476,1.13
-0.07382887307946644,1.131
-0.052370188635929994,1.132
-0.04454287888226832,1.133
-0.042705194176805704,1.134
-0.036249141153097984,1.135
-0.017890833004106484,1.136
0.012012059466910446,1.137
0.04608664317320608,1.138
0.07435746396642348,1.139
0.08870947432135576,1.14
0.08571346424539585,1.141
0.0680822281837587,1.142
0.04377519903243665,1.143
0.022200129255199926,1.144
0.009858516046416304,1.145
0.008077954202312172,1.146
0.013172252751404562,1.147
0.0183072103492698,1.148
0.016499107807198782,1.149
0.003719097486443117,1.15
-0.01927183193533514,1.151
-0.0471901946418966,1.152
-0.0724027666852136,1.153
-0.08780040785258904,1.154
-0.08899930393498268,1.155
-0.07531720791100956,1.156
-0.04964488219560844,1.157
-0.017415963103369313,1.158
0.014982393401630096,1.159
0.04196560918386707,1.16
0.060270330076134235,1.161
0.06960311793176936,1.162
0.07211239456494789,1.163
0.07099136869301542,1.164
0.06864638729962293,1.165
0.06511172514694723,1.166
0.057886632196191175,1.167
0.04387966810114584,1.168
0.022149340247644728,1.169
-0.005074237592433865,1.17
-0.03370022999603399,1.171
-0.059552638183389024,1.172
-0.07892476493410845,1.173
-0.08814522390829219,1.174
-0.08360281957129163,1.175
-0.06295009901074944,1.176
-0.026915057017965205,1.177
0.01941277087738216,1.178
0.06702500540044014,1.179
0.1051465327771479,1.18
0.12385422336669868,1.181
0.11669683507493195,1.182
0.08324532655223035,1.183
0.030254194094733917,1.184
-0.030062215217630226,1.185
-0.08439605523337029,1.186
-0.12309317579993168,1.187
-0.14245645810401183,1.188
-0.14369904879350198,1.189
-0.13022849049495572,1.19
-0.10557781667227063,1.191
-0.07286737668487653,1.192
-0.034912824860018524,1.193
0.005812527573733217,1.194
0.04687327062746964,1.195
0.08499970342132715,1.196
0.11556003217249836,1.197
0.13314030820893635,1.198
0.1329645364245324,1.199
0.1125469958892819,1.2
0.07333458290955643,1.201
0.02172026837958811,1.202
-0.0317868361180835,1.203
-0.07551361723918373,1.204
-0.10031678701253993,1.205
-0.10207134402529253,1.206
-0.08200706281861349,1.207
-0.04550113431125762,1.208
-0.00046559603740268786,1.209
0.04429190163883076,1.21
0.08109206368151091,1.211
0.10547765472598808,1.212
0.11683964090809097,1.213
0.11667235144201343,1.214
0.10608400253987842,1.215
0.08526397071478944,1.216
0.054883891419858145,1.217
0.01688951822441322,1.218
-0.025776892322794637,1.219
-0.06866034211989709,1.22
-0.10475760398998965,1.221
-0.12572566114257727,1.222
-0.12603321284061456,1.223
-0.10678749613552892,1.224
-0.0758884454169716,1.225
-0.0447031483548825,1.226
-0.02361970831169366,1.227
-0.01814691413372915,1.228
-0.026599325674132573,1.229
-0.04100896173203241,1.23
-0.05148042373970753,1.231
-0.05099719768931901,1.232
-0.03776902307656162,1.233
-0.015054341756492319,1.234
0.010579322653471612,1.235
0.03226210516590204,1.236
0.0462215103075995,1.237
0.053365102469071765,1.238
0.05778662525245615,1.239
0.06353210154749132,1.24
0.07200634767100694,1.241
0.0814226857802376,1.242
0.08809738468997928,1.243
0.08837044046330951,1.244
0.0800004586785433,1.245
0.06270365260355092,1.246
0.03807522842497539,1.247
0.008938944760014911,1.248
-0.0216631244592977,1.249
-0.05108405512286713,1.25
-0.07688244620678007,1.251
-0.09631219369712643,1.252
-0.10625750063307546,1.253
-0.10389852610314229,1.254
-0.08802789258419931,1.255
-0.06060013018805199,1.256
-0.02725451317586162,1.257
0.004212784152072455,1.258
0.02682659613952072,1.259
0.03735280928032271,1.26
0.037743292629040984,1.261
0.03415140309853506,1.262
0.03381727637686151,1.263
0.0416096250123783,1.264
0.058171312358063915,1.265
0.08016690506311704,1.266
0.10160156010171281,1.267
0.11529933072263444,1.268
0.11478677801357232,1.269
0.09658010073492451,1.27
0.06156916185443703,1.271
0.01457987990985308,1.272
-0.0371648796340314,1.273
-0.08573337408088721,1.274
-0.12421109262652553,1.275
-0.14833899066660267,1.276
-0.15730273812332624,1.277
-0.15304745284832952,1.278
-0.13870094351100776,1.279
-0.11723823883938912,1.28
-0.09072804523544309,1.281
-0.06020441699003272,1.282
-0.026228200398500948,1.283
0.010165872110069371,1.284
0.04640222312070873,1.285
0.0775913006659231,1.286
0.09702535223324411,1.287
0.09868222138251789,1.288
0.08092947392937698,1.289
0.0488809749984928,1.29
0.013232303375808175,1.291
-0.013923898499607056,1.292
-0.02376864943690711,1.293
-0.013649223498862028,1.294
0.012554737922393172,1.295
0.0460093601943739,1.296
0.07567975955481054,1.297
0.09181608565138709,1.298
0.08914537191002982,1.299
0.06822191025128897,1.3
0.03451744195038558,1.301
-0.0037873633036188937,1.302
-0.0383293200910813,1.303
-0.06271043827089802,1.304
-0.0736054969287962,1.305
-0.07083687111778508,1.306
-0.05704071371235994,1.307
-0.03703499406857826,1.308
-0.016416244909784255,1.309
0.000519749691121147,1.31
0.012424188901219218,1.311
0.020992778136836122,1.312
0.029599320809689963,1.313
0.041383815284530494,1.314
0.057426686953832164,1.315
0.0755379241481487,1.316
0.09039186869319604,1.317
0.0950648278035475,1.318
0.08325217870461203,1.319
0.05167394215916428,1.32
0.0020909181641993522,1.321
-0.058266050116235826,1.322
-0.11824657260459007,1.323
-0.16549901679957993,1.324
-0.18969436742996884,1.325
-0.18570395222020752,1.326
-0.15547373086669214,1.327
-0.10709020843449352,1.328
-0.0510961431085621,1.329
0.0034497354007974644,1.33
0.05054609909412559,1.331
0.0863948362061457,1.332
0.10804833450000274,1.333
0.11316073112264906,1.334
0.10100915125734852,1.335
0.07374781404545977,1.336
0.03671377468524713,1.337
-0.0024221532675996337,1.338
-0.03517143374495838,1.339
-0.05411986126160866,1.34
-0.05495048970557938,1.341
-0.03791864546392351,1.342
-0.008015807469411622,1.343
0.026357186213443306,1.344
0.05574325831769079,1.345
0.07242435841903495,1.346
0.07299106641926016,1.347
0.059501193539303596,1.348
0.038289408552902686,1.349
0.01699400012483169,1.35
0.0014553827883004543,1.351
-0.0061364097240810146,1.352
-0.0074214927377690715,1.353
-0.006744502981782937,1.354
-0.009196035745340295,1.355
-0.018148632951908803,1.356
-0.03311384341364571,1.357
-0.049238047819843436,1.358
-0.05909189449901346,1.359
-0.05602525969263146,1.36
-0.03739034703481231,1.361
-0.00606004251525965,1.362
0.030220063550226925,1.363
0.0611927746173113,1.364
0.07746454574488258,1.365
0.07370025791145633,1.366
0.05028452577985147,1.367
0.013140780919667548,1.368
-0.027956783113380755,1.369
-0.06243987127782863,1.37
-0.0825271394462915,1.371
-0.08549311975049434,1.372
-0.07354241836078904,1.373
-0.05190364555423142,1.374
-0.02647387730345661,1.375
-0.002017955305065534,1.376
0.01869184747679148,1.377
0.03485817636999779,1.378
0.04697107303480891,1.379
0.055688826525457875,1.38
0.06071085262663602,1.381
0.06037613026967699,1.382
0.052566728687951224,1.383
0.03650818781505112,1.384
0.014005281841781294,1.385
-0.010998872431153777,1.386
-0.03402626849076426,1.387
-0.05145986542399239,1.388
-0.06107835336687901,1.389
-0.06211167513647204,1.39
-0.05524397082849251,1.391
-0.04236072856243552,1.392
-0.025868874575556984,1.393
-0.007975507588352677,1.394
0.009633077590616972,1.395
0.02563074366649806,1.396
0.03865716325157074,1.397
0.04713761734017203,1.398
0.049662125956698076,1.399
0.0457579903858495,1.4
0.0363763478943666,1.401
0.023546841066307073,1.402
0.009437723925214208,1.403
-0.004361551972569118,1.404
-0.016883920260055817,1.405
-0.027481713355411254,1.406
-0.03558395134181374,1.407
-0.040484035224837595,1.408
-0.041078277029814696,1.409
-0.03577374300524892,1.41
-0.022898336233198664,1.411
-0.0017164827796955877,1.412
0.026304433088509837,1.413
0.05663487861255571,1.414
0.08180169280308652,1.415
0.09294271054750274,1.416
0.08304250884136155,1.417
0.05092499222521445,1.418
0.0035004763145827494,1.419
-0.04588622912335383,1.42
-0.08251845245128991,1.421
-0.09595708229735114,1.422
-0.08351216700880108,1.423
-0.050711211511904115,1.424
-0.009289922173954699,1.425
0.026739003177014664,1.426
0.04588709906650197,1.427
0.042951856657239856,1.428
0.020251124436200977,1.429
-0.013784684148456532,1.43
-0.047782575587338394,1.431
-0.07114009242602326,1.432
-0.0771088261804719,1.433
-0.06435591418371146,1.434
-0.03669097942366971,1.435
-0.001457629218952031,1.436
0.032672049215933766,1.437
0.05817820243511801,1.438
0.07104828820974737,1.439
0.07185990007084311,1.44
0.06466395620930375,1.441
0.05442428269272439,1.442
0.04466538600715489,1.443
0.03627361590231671,1.444
0.027648265661194358,1.445
0.01605931800532842,1.446
-0.00032328936153958905,1.447
-0.020782497522017707,1.448
-0.041828410895835715,1.449
-0.05845931208044427,1.45
-0.0660235907023329,1.451
-0.061715120392504916,1.452
-0.04527632559415223,1.453
-0.019045843198719017,1.454
0.012301075190728398,1.455
0.04216616651811575,1.456
0.06301939716925188,1.457
0.06860958362560968,1.458
0.05681858160788192,1.459
0.031057489908740576,1.46
-0.0012072928384986366,1.461
-0.031792186232166994,1.462
-0.054725665010894035,1.463
-0.06741405657436202,1.464
-0.07030041492275663,1.465
-0.06579150023714463,1.466
-0.05691944809274575,1.467
-0.046138697885322405,1.468
-0.03456671089944986,1.469
-0.02175035431469786,1.47
-0.0060159265099279345,1.471
0.014560485127885974,1.472
0.04068874895167298,1.473
0.07050055522560068,1.474
0.09932452100039293,1.475
0.12090048389464722,1.476
0.1289976327124646,1.477
0.11867716408442111,1.478
0.0877924501029079,1.479
0.039054250872905705,1.48
-0.01883518368968285,1.481
-0.07307765832370541,1.482
-0.11161527074113153,1.483
-0.12783895190754857,1.484
-0.12204801879689424,1.485
-0.0995526301540337,1.486
-0.0676109605293354,1.487
-0.03309213906805294,1.488
-0.0013505319042584542,1.489
0.0240448989654041,1.49
0.04114916699117511,1.491
0.049407706897953506,1.492
0.049536195267233914,1.493
0.043358678066179365,1.494
0.03342845739268732,1.495
0.022446340122587158,1.496
0.01265282070161935,1.497
0.00540036377408065,1.498
0.0009806597239279547,1.499
-0.0012511580323666027,1.5
-0.002484728177624658,1.501
-0.003993764670047484,1.502
-0.006773778794915705,1.503
-0.01126670859271784,1.504
-0.017132592245458565,1.505
-0.023177164047656813,1.506
-0.0276095558434359,1.507
-0.028610801952469525,1.508
-0.024953058508687183,1.509
-0.016460164961170087,1.51
-0.004228372685186339,1.511
0.00951399891310688,1.512
0.0219754152488864,1.513
0.03064497350865497,1.514
0.03410234633546918,1.515
0.03246441337678621,1.516
0.027173430774278074,1.517
0.020164639090705355,1.518
0.01301197473132065,1.519
0.006584110091203025,1.52
0.0011057898534446414,1.521
-0.003704628280270249,1.522
-0.008459325044957772,1.523
-0.013779008721943601,1.524
-0.019902925367188237,1.525
-0.026403989415286357,1.526
-0.032103368610635216,1.527
-0.03523341470463887,1.528
-0.033885252334291655,1.529
-0.026704088651070206,1.53
-0.013558264902395112,1.531
0.004213996030482226,1.532
0.024146008200342888,1.533
0.043338905749323205,1.534
0.05899603912147211,1.535
0.06857696854365515,1.536
0.0699830237384651,1.537
0.06212583198183984,1.538
0.04554195383806544,1.539
0.022493799596456896,1.54
-0.0035788510633258867,1.541
-0.028990429236041667,1.542
-0.05065858905611562,1.543
-0.06648686990937501,1.544
-0.07530639204661779,1.545
-0.07666040374361625,1.546
-0.07076561583474257,1.547
-0.058842014155582274,1.548
-0.043350075033278895,1.549
-0.02742552106423713,1.55
-0.01372199038002824,1.551
-0.0035378042633576953,1.552
0.003380268704329267,1.553
0.008532446576205967,1.554
0.014087576021370842,1.555
0.02213189268279662,1.556
0.033794515656388434,1.557
0.048463852153092436,1.558
0.06354506156685504,1.559
0.07506022037161747,1.56
0.07888401101930731,1.561
0.07207832389639454,1.562
0.05384432537401149,1.563
0.02589499219016221,1.564
-0.007720439309731993,1.565
-0.04131727852586447,1.566
-0.06867852374009022,1.567
-0.0842699360146278,1.568
-0.08440629753313489,1.569
-0.0682287286173914,1.57
-0.03818261569971455,1.571
0.00020553678780111417,1.572
0.03919794651985052,1.573
0.07031642394596406,1.574
0.08643506000082687,1.575
0.08400813453295503,1.576
0.064275348437251,1.577
0.03263421632283996,1.578
-0.0033888247087438027,1.579
-0.03634427995949212,1.58
-0.060417519380595114,1.581
-0.07237891218818243,1.582
-0.0720117861104235,1.583
-0.06162905063501346,1.584
-0.04473067861154766,1.585
-0.0247565359666232,1.586
-0.004695161536914486,1.587
0.012727587495760282,1.588
0.025072300020269937,1.589
0.03076676862958309,1.59
0.029820214769585157,1.591
0.023926552555837595,1.592
0.015670599309033573,1.593
0.007414395564967271,1.594
0.0006593993800270864,1.595
-0.004010916888866894,1.596
-0.0067735648076561305,1.597
-0.008302765527159056,1.598
-0.00933339959265198,1.599
-0.010193584518603015,1.6
-0.010577864805703682,1.601
-0.009741977267362872,1.602
-0.0070454462170404285,1.603
-0.0024478550702953295,1.604
0.0034409267165010095,1.605
0.009720379196114159,1.606
0.015512496045310086,1.607
0.019950268079269272,1.608
0.022087820748882447,1.609
0.021065980539832153,1.61
0.016603701413930104,1.611
0.009553327958751032,1.612
0.001990151886970094,1.613
-0.003401075710206683,1.614
-0.004306408603370935,1.615
0.00033334834940368,1.616
0.00973680117280366,1.617
0.02107953050490101,1.618
0.03003261978793536,1.619
0.0323815343469603,1.62
0.026059511865862642,1.621
0.012055918848618076,1.622
-0.006510357323514955,1.623
-0.026122215097071598,1.624
-0.04379998363830048,1.625
-0.0569283045331668,1.626
-0.06311189158936062,1.627
-0.060800804108358454,1.628
-0.050121498908370206,1.629
-0.03308669338564317,1.63
-0.013003046515734128,1.631
0.006517721667868205,1.632
0.02241614556249442,1.633
0.0326186929213341,1.634
0.03613130889854586,1.635
0.033108264905874964,1.636
0.024975510796622368,1.637
0.014320456582930068,1.638
0.004308738970505361,1.639
-0.002280010236187615,1.64
-0.0039490430465181,1.641
-0.0008182632176436068,1.642
0.005645062793982422,1.643
0.013222841770754003,1.644
0.019667042763631692,1.645
0.023300826925312334,1.646
0.023234054412140052,1.647
0.01926090350835529,1.648
0.011727315767396003,1.649
0.0014665558179075445,1.65
-0.010264613775070739,1.651
-0.02190171149218717,1.652
-0.03172569727452977,1.653
-0.038022954706952994,1.654
-0.039309675386822306,1.655
-0.034667178005636214,1.656
-0.024155703442794104,1.657
-0.009170799683136494,1.658
0.007598109958763567,1.659
0.02280655789964155,1.66
0.03341479509492625,1.661
0.03756239673046932,1.662
0.03510469926541756,1.663
0.027545393818371393,1.664
0.017230749033355895,1.665
0.006280721112892111,1.666
-0.003997838829579967,1.667
-0.013029106431851038,1.668
-0.02052592102852031,1.669
-0.02602297289143432,1.67
-0.028662632166646444,1.671
-0.027441139277213342,1.672
-0.021879234540209933,1.673
-0.012698910981189316,1.674
-0.001946880622840897,1.675
0.007625215991791891,1.676
0.013571067895994106,1.677
0.014634698984435437,1.678
0.011155277650901003,1.679
0.004882724515706463,1.68
-0.0016290649415028591,1.681
-0.00585129720944668,1.682
-0.006149336450842754,1.683
-0.0023430184383561345,1.684
0.004300989671434097,1.685
0.011570916646464485,1.686
0.017054313760750582,1.687
0.01890669065208153,1.688
0.016510790433444954,1.689
0.01080669477150242,1.69
0.004008786391792974,1.691
-0.0012366085922014343,1.692
-0.002790607265382829,1.693
0.0003518364360690947,1.694
0.007799543170480846,1.695
0.017728294823855708,1.696
0.02708811837129895,1.697
0.03226118031325087,1.698
0.030209213771709677,1.699
0.019714700675588576,1.7
0.0020451252344823316,1.701
-0.01939272347858164,1.702
-0.04023305167785252,1.703
-0.05652917040663112,1.704
-0.06568832178712478,1.705
-0.06672353273133146,1.706
-0.060034690474018645,1.707
-0.04706219112250625,1.708
-0.029988484791880283,1.709
-0.01144578615965577,1.71
0.0058923102031007025,1.711
0.019839666744634093,1.712
0.029161251772563866,1.713
0.033686647311987256,1.714
0.03395587840098638,1.715
0.030695773904201532,1.716
0.024624077926986544,1.717
0.016772819202566003,1.718
0.008938487456365234,1.719
0.0036118564357433608,1.72
0.003152464988895848,1.721
0.008568280055322501,1.722
0.01860377793782475,1.723
0.02983294971720173,1.724
0.03795492922052249,1.725
0.03961815404431023,1.726
0.03368733526145162,1.727
0.021454536953288764,1.728
0.005954147294817355,1.729
-0.009249719834849972,1.73
-0.021267688584205212,1.731
-0.028624511769576186,1.732
-0.03138973762057391,1.733
-0.030783466934117844,1.734
-0.028515499192946454,1.735
-0.026146444332493062,1.736
-0.024627046645558995,1.737
-0.024060816721644153,1.738
-0.023713385791256245,1.739
-0.022296510450274774,1.74
-0.018527675240841753,1.741
-0.01184204762503455,1.742
-0.002915081216858441,1.743
0.006411227427030402,1.744
0.013876970427853498,1.745
0.017782635591699084,1.746
0.017608685651346587,1.747
0.014056221297714715,1.748
0.008670031315736243,1.749
0.003283928213787686,1.75
-0.0005483531580534671,1.751
-0.0019885841174704763,1.752
-0.0010713945948262371,1.753
0.0014695657817931508,1.754
0.0046308219528039245,1.755
0.00760148369533678,1.756
0.009974283530666707,1.757
0.011634760094895988,1.758
0.012556450228760497,1.759
0.01274595580442042,1.76
0.01237874222594999,1.761
0.01194367032581284,1.762
0.012137147263060987,1.763
0.013458467086082436,1.764
0.01572830700787055,1.765
0.0178520826276838,1.766
0.018140251680502213,1.767
0.015187747558338304,1.768
0.0087029118581947,1.769
-0.00039134727400927486,1.77
-0.010516952985236961,1.771
-0.020053445306737798,1.772
-0.027651175633189532,1.773
-0.03237565371433538,1.774
-0.03387311917762829,1.775
-0.03246187862855865,1.776
-0.028960707701649487,1.777
-0.024330180363985047,1.778
-0.019422358948134388,1.779
-0.01496976236078489,1.78
-0.011590174039797433,1.781
-0.009554591581307557,1.782
-0.008463117358560727,1.783
-0.007221555563289969,1.784
-0.0044545562640758984,1.785
0.0008755741477125105,1.786
0.008934856711055556,1.787
0.018771784037293685,1.788
0.028498787950432043,1.789
0.03584824672129572,1.79
0.038870307317642176,1.791
0.03655674562922555,1.792
0.02923755696016983,1.793
0.018588294660837307,1.794
0.007102994299601904,1.795
-0.0028299998800927124,1.796
-0.00973948516224262,1.797
-0.013312777973855858,1.798
-0.014058660187394845,1.799
-0.012742735645310945,1.8
-0.009953152909675907,1.801
-0.005988809327043409,1.802
-0.0010876652090685676,1.803
0.004230493481379296,1.804
0.009079581328941004,1.805
0.012508053455795087,1.806
0.013860244312286355,1.807
0.012807518917521394,1.808
0.009119172714838364,1.809
0.0026370572530504837,1.81
-0.006318084469091454,1.811
-0.016483348983991716,1.812
-0.025693868184519717,1.813
-0.031553972728779515,1.814
-0.03231495764789592,1.815
-0.02742133604272937,1.816
-0.017595452874835996,1.817
-0.0046882095460910565,1.818
0.008592865556075314,1.819
0.019253873517415816,1.82
0.024939451436972928,1.821
0.024779130076931468,1.822
0.01962382871648843,1.823
0.011583757552587785,1.824
0.0031676929824894623,1.825
-0.0035454328608089413,1.826
-0.0073568252407817235,1.827
-0.007985779211328802,1.828
-0.0059558894386678865,1.829
-0.0025021849776397636,1.83
0.0006635737948098545,1.831
0.001900052311967215,1.832
0.0003226919509651616,1.833
-0.003762470178801842,1.834
-0.008975790200304359,1.835
-0.013498841904853856,1.836
-0.015853141379470307,1.837
-0.015405610283771326,1.838
-0.012432850645537239,1.839
-0.00782115872134702,1.84
-0.0025645878975678166,1.841
0.0027378490071061465,1.842
0.008131243343145291,1.843
0.014135687378206608,1.844
0.021275136523221837,1.845
0.029615590612754625,1.846
0.03850839019923534,1.847
0.04650168908359433,1.848
0.05136811749009969,1.849
0.05041644360855934,1.85
0.041332228127447614,1.851
0.023363750011774216,1.852
-0.0018451861332125943,1.853
-0.030351257787229954,1.854
-0.056952082545904635,1.855
-0.07669900064679493,1.856
-0.08616241146272077,1.857
-0.0839730627033128,1.858
-0.0707718501493328,1.859
-0.04899196023896764,1.86
-0.022564881124829374,1.861
0.003769023740596044,1.862
0.025651888757193916,1.863
0.040269607679868695,1.864
0.046795142361253005,1.865
0.04600105722049495,1.866
0.039523231208776044,1.867
0.029322142213396258,1.868
0.017470569552329656,1.869
0.005989416594776452,1.87
-0.0034201962897147365,1.871
-0.009592372685695065,1.872
-0.011978877122212737,1.873
-0.010670336639780115,1.874
-0.006337786752303537,1.875
-1.689125257783437e-05,1.876
0.007187585929133812,1.877
0.014261172314032287,1.878
0.02019961778203156,1.879
0.023835752036736366,1.88
0.023879684640504762,1.881
0.019395332088233783,1.882
0.0105180186590894,1.883
-0.0011313050162818899,1.884
-0.012672636959802997,1.885
-0.020749942051205665,1.886
-0.022563252039558966,1.887
-0.016794220743014305,1.888
-0.004199601074844238,1.889
0.01222018473819004,1.89
0.027662779408411907,1.891
0.036841097939196925,1.892
0.035948641649830713,1.893
0.02423390848025031,1.894
0.004201132136046404,1.895
-0.01955513285134916,1.896
-0.0420644890859347,1.897
-0.059332791276343645,1.898
-0.0688995170833377,1.899
-0.06980208355496635,1.9
-0.06244360110784258,1.901
-0.048554985391183476,1.902
-0.0308833523363382,1.903
-0.012332599001428952,1.904
0.004928375776243325,1.905
0.019674500868109072,1.906
0.031225428857585835,1.907
0.039066848451947134,1.908
0.042838080849285864,1.909
0.042541762131609415,1.91
0.03869763859235355,1.911
0.032361867776897486,1.912
0.024996530433730974,1.913
0.018066864685487943,1.914
0.012467713277811753,1.915
0.008228035813954959,1.916
0.004767164281925361,1.917
0.0014597935518966163,1.918
-0.0019460136298863897,1.919
-0.005282178226905043,1.92
-0.008185080868907294,1.921
-0.01035003580757807,1.922
-0.01162090599808546,1.923
-0.011891359361530586,1.924
-0.010974331831929427,1.925
-0.008605272023202994,1.926
-0.004539550304694165,1.927
0.001467680468117632,1.928
0.009814303230684362,1.929
0.02094211235810996,1.93
0.034626615401691,1.931
0.04898232462604816,1.932
0.059999313128289544,1.933
0.062323834052272487,1.934
0.051371434273380964,1.935
0.02584437621811939,1.936
-0.010888583180125632,1.937
-0.05148743137698784,1.938
-0.08707395791244078,1.939
-0.1101369431230771,1.94
-0.11657921229183106,1.941
-0.10629870846499476,1.942
-0.08252636103171695,1.943
-0.05059358810375045,1.944
-0.016681578297007716,1.945
0.013364212454427562,1.946
0.03518070356752122,1.947
0.04674569933916777,1.948
0.04860122560170781,1.949
0.043354220491080814,1.95
0.034685914049177195,1.951
0.026199323542749994,1.952
0.020404446086842186,1.953
0.01813063291710371,1.954
0.01859559467884364,1.955
0.020110579113581793,1.956
0.02101296963481014,1.957
0.020260010058584094,1.958
0.017500190543092913,1.959
0.012943899490339892,1.96
0.007324150180345644,1.961
0.001837117126296308,1.962
-0.002186421638175426,1.963
-0.0038393878604683135,1.964
-0.0030950246440883135,1.965
-0.0008604650591142828,1.966
0.0014189185568197777,1.967
0.0023782681812356808,1.968
0.0012605240905762644,1.969
-0.0018658331046463733,1.97
-0.006260020351723268,1.971
-0.010894104565093097,1.972
-0.014817383037402035,1.973
-0.017343517038171833,1.974
-0.01810417493082675,1.975
-0.017106137737477222,1.976
-0.014788662322359003,1.977
-0.01194562017715022,1.978
-0.009486276000098276,1.979
-0.008135289484318001,1.98
-0.008157722762174193,1.981
-0.009185645069352976,1.982
-0.010250040487794862,1.983
-0.01004280472006246,1.984
-0.007280893233202233,1.985
-0.001032077362462186,1.986
0.009015076585961167,1.987
0.022296340598379673,1.988
0.037150859272661534,1.989
0.05075882591089091,1.99
0.05949800712489542,1.991
0.059968851955306074,1.992
0.050410394478327195,1.993
0.031601230375935895,1.994
0.0066130479757209775,1.995
-0.020330292721406053,1.996
-0.045168956935645044,1.997
-0.06484944400787801,1.998
-0.07741529221213288,1.999
-0.08160720105121513,2.0
-0.07657872643391525,2.001
-0.062145732454372084,2.002
-0.0394407967828659,2.003
-0.01144351241829679,2.004
0.017230647690393484,2.005
0.0415445429122741,2.006
0.05769005400161039,2.007
0.06412302355881877,2.008
0.06140977445402783,2.009
0.051280368979588625,2.01
0.03584241359159375,2.011
0.017505922788917803,2.012
-0.0007266329199191392,2.013
-0.015386299544772459,2.014
-0.023480565541643975,2.015
-0.02375563206258939,2.016
-0.017308502238005095,2.017
-0.007113185574394584,2.018
0.0031824031871451317,2.019
0.010523031437150452,2.02
0.013262758866669904,2.021
0.011362645778310141,2.022
0.006051552281258366,2.023
-0.0008231536519559981,2.024
-0.007452277545918396,2.025
-0.012526144426946929,2.026
-0.015458224333838672,2.027
-0.016375731015045244,2.028
-0.015881353222141147,2.029
-0.014670547949870522,2.03
-0.013189935786576656,2.031
-0.011494128445302176,2.032
-0.009320620092019,2.033
-0.006282846969362806,2.034
-0.0020691930448458436,2.035
0.003391688608944277,2.036
0.009793223688107996,2.037
0.016353312694446964,2.038
0.02185851271897282,2.039
0.025033571459747116,2.04
0.02518583786866068,2.041
0.022651447841494803,2.042
0.018613263981876786,2.043
0.014346690046690222,2.044
0.010360822731300198,2.045
0.006069998871259253,2.046
0.0003591907374772204,2.047
-0.007321737526649866,2.048
-0.016201112781314333,2.049
-0.024334624958584624,2.05
-0.02951831464174032,2.051
-0.030350756920994183,2.052
-0.026814839028302326,2.053
-0.020151989959482634,2.054
-0.012249024497758292,2.055
-0.004916658164853517,2.056
0.0006118624700859427,2.057
0.0038203425276360056,2.058
0.004788036843636736,2.059
0.004015796120765592,2.06
0.0023259555995276734,2.061
0.0008009581993081254,2.062
0.0006464858531587766,2.063
0.002914691962547963,2.064
0.008117488919579224,2.065
0.015843679685487225,2.066
0.024560263706240162,2.067
0.03181354438295883,2.068
0.03495769086944754,2.069
0.03218873829277785,2.07
0.023314076237223202,2.071
0.009814587106783434,2.072
-0.005758501005423188,2.073
-0.020636132887951814,2.074
-0.03248280938160748,2.075
-0.039673506130694494,2.076
-0.04134906074116727,2.077
-0.03748554996071618,2.078
-0.02901608109548246,2.079
-0.017768718503497965,2.08
-0.005981023774833625,2.081
0.004452320151282829,2.082
0.01251249031465111,2.083
0.01806665542908198,2.084
0.021480454908342356,2.085
0.023166293164040522,2.086
0.02330678577528204,2.087
0.021800196658717724,2.088
0.018400261029300723,2.089
0.012999940324299034,2.09
0.005904121721535598,2.091
-0.002097843884023955,2.092
-0.009896657888869528,2.093
-0.016333991200069297,2.094
-0.020447447427024933,2.095
-0.02165852649796892,2.096
-0.0199055452409234,2.097
-0.01568257730077456,2.098
-0.009934255651801114,2.099
-0.0037873697404375408,2.1
0.001835207617867599,2.101
0.006545118782497831,2.102
0.010542953416061788,2.103
0.014348287557028562,2.104
0.018346898110725623,2.105
0.022361199078975724,2.106
0.02548167963612967,2.107
0.02632867290554901,2.108
0.023668810523987383,2.109
0.017085647085268052,2.11
0.007356023371986314,2.111
-0.0037191081862327042,2.112
-0.013985774257442641,2.113
-0.02171208963140562,2.114
-0.026040608784708326,2.115
-0.026975700161531394,2.116
-0.025072869986605607,2.117
-0.021134895551736938,2.118
-0.016064364477731314,2.119
-0.0107508605899433,2.12
-0.005905259765820598,2.121
-0.0019777752924592536,2.122
0.0007946459108801251,2.123
0.0023589850149936817,2.124
0.0028792627473058275,2.125
0.0027293227072019872,2.126
0.0023786380855390283,2.127
0.0022182965338472965,2.128
0.0024448229017557895,2.129
0.003065459697257976,2.13
0.003969097501787333,2.131
0.005000431230939056,2.132
0.006034193879338893,2.133
0.007028253048928428,2.134
0.008007039015164755,2.135
0.008975475913842665,2.136
0.00983336586602828,2.137
0.010357766779201395,2.138
0.010267214098889988,2.139
0.00934623726664343,2.14
0.007573101006988852,2.141
0.005166270381161259,2.142
0.002513119478364867,2.143
3.573472271766314e-05,2.144
-0.0019243415997010774,2.145
-0.003171692407476659,2.146
-0.003697121078940916,2.147
-0.003698008791618316,2.148
-0.0035153142874488684,2.149
-0.00344995794094583,2.15
-0.0035755661454489286,2.151
-0.0037366526177898245,2.152
-0.003753046546631846,2.153
-0.003654095248207741,2.154
-0.003777568491461955,2.155
-0.004660441977556837,2.156
-0.006745308387269833,2.157
-0.010070993511492555,2.158
-0.014147909683274871,2.159
-0.018081890025137926,2.16
-0.020867357678356135,2.161
-0.02171663968648628,2.162
-0.020290117025634668,2.163
-0.016714821452019538,2.164
-0.011386258660253964,2.165
-0.004692028799234887,2.166
0.0031559779608709986,2.167
0.012066432377688886,2.168
0.021829124361793812,2.169
0.031860424636930555,2.17
0.04109181252952733,2.171
0.048063670796836745,2.172
0.05123454690447423,2.173
0.0494521482485778,2.174
0.04237502190032748,2.175
0.03062356642097115,2.176
0.01567055453469429,2.177
-0.00045899228303035623,2.178
-0.015663070589153023,2.179
-0.028248072737555634,2.18
-0.037222664758712255,2.181
-0.042347747399198776,2.182
-0.04396494242088529,2.183
-0.04270108988666061,2.184
-0.039210379573991955,2.185
-0.03403630522550747,2.186
-0.02757557462350743,2.187
-0.02013946402989534,2.188
-0.012100529896844016,2.189
-0.0039956088961940845,2.19
0.0035449003657788505,2.191
0.009966651350924933,2.192
0.014904298249864346,2.193
0.018212930768519105,2.194
0.019938692795912143,2.195
0.020231351633880287,2.196
0.01925817768303304,2.197
0.0171758598578742,2.198
0.014153183880842028,2.199
0.010430949872242157,2.2
0.0063845074142288545,2.201
0.0025142154129197615,2.202
-0.0006366252869941874,2.203
-0.0025467814610623603,2.204
-0.002730214123598079,2.205
-0.0007770727280217767,2.206
0.003475777346413947,2.207
0.009647628883795332,2.208
0.016541419795472485,2.209
0.02213957016838775,2.21
0.02404910973977449,2.211
0.020346894005054284,2.212
0.01049386832343739,2.213
-0.004178464019015134,2.214
-0.02070023414928464,2.215
-0.03530137817989471,2.216
-0.04456780329675585,2.217
-0.046507658932099474,2.218
-0.041046295887639056,2.219
-0.02977057596314626,2.22
-0.015168283473626754,2.221
0.00019550968814179028,2.222
0.0141865468875844,2.223
0.0252024080074567,2.224
0.03208285976160501,2.225
0.034135280533255555,2.226
0.031370982503549444,2.227
0.024685578486487197,2.228
0.015654839350111957,2.229
0.006009943688455085,2.23
-0.0028316296434161025,2.231
-0.009939604620077532,2.232
-0.01480186436069255,2.233
-0.017201516229461814,2.234
-0.01718379094508674,2.235
-0.015094116403345039,2.236
-0.011566865498932882,2.237
-0.007413497033505091,2.238
-0.0034771470097163747,2.239
-0.0005040239990098177,2.24
0.0010219263670542657,2.241
0.0010610037738832514,2.242
7.705406153977538e-05,2.243
-0.001083444187120851,2.244
-0.001438354682853055,2.245
-0.0001704794014754809,2.246
0.003090044259554532,2.247
0.008100451778220557,2.248
0.014016337891398549,2.249
0.019525842437996602,2.25
0.023075749244864937,2.251
0.023267876675123488,2.252
0.019406748165903265,2.253
0.01190421165964822,2.254
0.0022255047883495568,2.255
-0.007619139478928511,2.256
-0.015753436889766513,2.257
-0.020950142009688724,2.258
-0.02280895600325872,2.259
-0.021649773395158008,2.26
-0.01827096489990039,2.261
-0.013676614927295916,2.262
-0.008804373495426988,2.263
-0.004314642205669454,2.264
-0.0005485431590186016,2.265
0.0023528725210951486,2.266
0.004339316555439026,2.267
0.005451968039031256,2.268
0.005837093044792526,2.269
0.005698470981230499,2.27
0.005231355511167211,2.271
0.004574255738494624,2.272
0.0038073480506876753,2.273
0.00300617761092768,2.274
0.0022691887512205455,2.275
0.0016636920359868117,2.276
0.001172997025172801,2.277
0.0007248765678403585,2.278
0.0002646770567672935,2.279
-0.00019773242786856626,2.28
-0.0005956890408101903,2.281
-0.0008471155839922851,2.282
-0.0008872890790681467,2.283
-0.000676966397960188,2.284
-0.0002005136114697338,2.285
0.0005222932603817071,2.286
0.0014145545666586652,2.287
0.002343949222200514,2.288
0.0031540305798132603,2.289
0.003714176818697202,2.29
0.003973154729818911,2.291
0.003984243489280038,2.292
0.0038894391704294563,2.293
0.0038552589940995126,2.294
0.003956254618906724,2.295
0.004069227248188033,2.296
0.0038800268326795624,2.297
0.0030332001828300655,2.298
0.0013469153822708378,2.299
-0.0010307856085292793,2.3
-0.0036221096904236077,2.301
-0.005799152763642948,2.302
-0.007081972922492345,2.303
-0.007406733483171232,2.304
-0.007173689806835743,2.305
-0.007007919980389185,2.306
-0.00740267287301983,2.307
-0.008518082975010475,2.308
-0.010218768487867961,2.309
-0.012162786848494629,2.31
-0.013783716577772154,2.311
-0.014272284184705745,2.312
-0.012742335472774919,2.313
-0.008609500618935489,2.314
-0.0020217371830491744,2.315
0.005969737298119366,2.316
0.013729030657829449,2.317
0.019692951792465035,2.318
0.022947511779320674,2.319
0.02342605881653975,2.32
0.021714552146390884,2.321
0.01864242388588727,2.322
0.014894645347312203,2.323
0.010820422194704504,2.324
0.006489639401175474,2.325
0.0019006337283715374,2.326
-0.0028344614130466623,2.327
-0.007427520937897044,2.328
-0.011456309869917695,2.329
-0.014450588247757279,2.33
-0.015982058141698525,2.331
-0.015736810440081506,2.332
-0.013569233901513655,2.333
-0.009541446174509858,2.334
-0.003939822488606014,2.335
0.0027151672437046343,2.336
0.009621425368583614,2.337
0.015625257305171614,2.338
0.019301042989957037,2.339
0.01937426948903764,2.34
0.015340497919533642,2.341
0.007827578745152315,2.342
-0.0015566852873026289,2.343
-0.010768733859589019,2.344
-0.017981750603198943,2.345
-0.022080645270428228,2.346
-0.02284752725804914,2.347
-0.02084268393450441,2.348
-0.01708581038375558,2.349
-0.012682892851837093,2.35
-0.00855172991465601,2.351
-0.0052997913982472345,2.352
-0.003176381519791638,2.353
-0.002042914365974902,2.354
-0.0013943262951277432,2.355
-0.0004775844142937418,2.356
0.001486752313209884,2.357
0.005040575221121645,2.358
0.010280933817797823,2.359
0.016771506640219026,2.36
0.023578299527066054,2.361
0.02941586947525355,2.362
0.03291522129925108,2.363
0.0330166567589377,2.364
0.02932929500903483,2.365
0.022207826573288857,2.366
0.012564436503942213,2.367
0.0016425486397348928,2.368
-0.009173369565973881,2.369
-0.018551209293467454,2.37
-0.025418671540804592,2.371
-0.02916738245152042,2.372
-0.029767033880450933,2.373
-0.027677986177792917,2.374
-0.023585653454223504,2.375
-0.018161416215961474,2.376
-0.01200780122248562,2.377
-0.005721845084597283,2.378
6.053384340031323e-05,2.379
0.004714743972758041,2.38
0.00778070187195925,2.381
0.009127442040661118,2.382
0.008997996628642096,2.383
0.007901203017904231,2.384
0.006427796588306307,2.385
0.005070259472212035,2.386
0.004095493128673884,2.387
0.003514225879236574,2.388
0.0031493921011088223,2.389
0.002763670490229478,2.39
0.0021856393159317812,2.391
0.0013772821304899312,2.392
0.00043295296919545215,2.393
-0.00047237120641798516,2.394
-0.0011545360576873298,2.395
-0.0014808339531720029,2.396
-0.0014114985794981161,2.397
-0.0010041007772871994,2.398
-0.00036642412649459953,2.399
0.00040506775721734406,2.4
0.001240322428377131,2.401
0.002058699893779411,2.402
0.0027364517715129035,2.403
0.0031185811234181195,2.404
0.0030603510394718396,2.405
0.0024610511499918914,2.406
0.0012670938715124045,2.407
-0.0005385147191112014,2.408
-0.0029100968703619245,2.409
-0.0056615384241635305,2.41
-0.00839494365627034,2.411
-0.010503167872196274,2.412
-0.011260808266380233,2.413
-0.009977410188854233,2.414
-0.006172409927551304,2.415
0.00024794117533610577,2.416
0.00878563767845377,2.417
0.018159765450374538,2.418
0.026357991801925936,2.419
0.031147140688097725,2.42
0.030898681158356953,2.421
0.02526976131770207,2.422
0.015354752325321968,2.423
0.003237045678860733,2.424
-0.008798316398017089,2.425
-0.018957708897021773,2.426
-0.02622919286969898,2.427
-0.030279969987383963,2.428
-0.03121046638649527,2.429
-0.029372332303256758,2.43
-0.025276274450332863,2.431
-0.01954302882471539,2.432
-0.012871663177302251,2.433
-0.006015759025712379,2.434
0.00028827408888029314,2.435
0.005485566535762076,2.436
0.009347611748090437,2.437
0.011950311776255537,2.438
0.013521065146160078,2.439
0.014301543990473984,2.44
0.014493161252382107,2.441
0.014252384697770919,2.442
0.013673009126936649,2.443
0.012730294495398784,2.444
0.011256938453954831,2.445
0.009024082924274746,2.446
0.005886736370921174,2.447
0.0019131526416410831,2.448
-0.002529939012037087,2.449
-0.0067727778314330125,2.45
-0.009990111203527928,2.451
-0.0114776991937195,2.452
-0.010935138315608543,2.453
-0.008639387834600677,2.454
-0.005389155553733892,2.455
-0.0021846800740622906,2.456
0.0001739916951307301,2.457
0.0013279132960117362,2.458
0.0013777755891635284,2.459
0.0007655949349302735,2.46
9.038962167502964e-05,2.461
-0.0001092366178160432,2.462
0.00044423037335569716,2.463
0.0016679406979839822,2.464
0.0031846792477407374,2.465
0.004509063142662219,2.466
0.005241292104664046,2.467
0.005198762746851164,2.468
0.004462415343783958,2.469
0.0033219754805562216,2.47
0.002123583060651477,2.471
0.001089888481728863,2.472
0.00022099156091987945,2.473
-0.0006780102003747396,2.474
-0.0018610469446035756,2.475
-0.0034500057899315185,2.476
-0.0052909209590980095,2.477
-0.00695718556176385,2.478
-0.007914332052678694,2.479
-0.007757768347169346,2.48
-0.0064030623891748835,2.481
-0.00414297605174575,2.482
-0.0015424311905122357,2.483
0.0007850420301798458,2.484
0.002427701492974976,2.485
0.0033255994732119174,2.486
0.003716876229532476,2.487
0.0039296087998860856,2.488
0.0041774468566308795,2.489
0.004458115406631239,2.49
0.004566602308446353,2.491
0.004211082808056688,2.492
0.0031868890035540525,2.493
0.0015187032590534377,2.494
-0.0005052430518222059,2.495
-0.0024243431932447603,2.496
-0.003776306186202503,2.497
-0.0042626992145786665,2.498
-0.003836971406013089,2.499
-0.002689147399365975,2.5
-0.0011472889602904225,2.501
0.0004442836507146189,2.502
0.0018019809584213604,2.503
0.0027245583724270486,2.504
0.003100247978461882,2.505
0.0029255550515968364,2.506
0.002329154013486083,2.507
0.0015552080930669372,2.508
0.0008503121313874456,2.509
0.0003073267830229017,2.51
-0.00018297185151882047,2.511
-0.0008117949978200095,2.512
-0.0016617757463396898,2.513
-0.0025973977775976425,2.514
-0.0033097686209063093,2.515
-0.003477929756760754,2.516
-0.002954395484112102,2.517
-0.0018531429386328107,2.518
-0.0004749657435628366,2.519
0.0008443347675381181,2.52
0.0018353583931475705,2.521
0.002307829095995866,2.522
0.002120185216291812,2.523
0.0011853244313445774,2.524
-0.00045413679628724963,2.525
-0.0025446789186952543,2.526
-0.004611286283734207,2.527
-0.006026467523829871,2.528
-0.0061607386996242,2.529
-0.004613410322210003,2.53
-0.0014338993815454868,2.531
0.0027996277621538846,2.532
0.007128648891865214,2.533
0.010560671631432527,2.534
0.012427004157492285,2.535
0.012551551364316684,2.536
0.011184460316745847,2.537
0.008785338067957546,2.538
0.005787105907358661,2.539
0.0024540910256870287,2.54
-0.0010982232967514595,2.541
-0.004740386651946552,2.542
-0.008153617081661775,2.543
-0.01079663768463129,2.544
-0.012075619700157131,2.545
-0.011628751236976249,2.546
-0.009547944745781614,2.547
-0.006390680189937781,2.548
-0.0029575890162350485,2.549
1.8405962232452264e-05,2.55
0.0020822102985102236,2.551
0.0031054415943830493,2.552
0.003217807884852378,2.553
0.0026844442568317987,2.554
0.0017897267934066186,2.555
0.0007745501512849536,2.556
-0.00016871598543909355,2.557
-0.000885884988650454,2.558
-0.0012647267060263453,2.559
-0.0012513036042981112,2.56
-0.0008631105723435434,2.561
-0.00017760479569612912,2.562
0.0006881365090479317,2.563
0.0015831781051359405,2.564
0.0023378993404330976,2.565
0.0028050940766172587,2.566
0.002899228538316081,2.567
0.0026084706626278574,2.568
0.0019868390885284144,2.569
0.0011466331038463072,2.57
0.0002518653571259875,2.571
-0.0005127509642609164,2.572
-0.001005156568674274,2.573
-0.0011821939508265863,2.574
-0.0011126450582136522,2.575
-0.0009434887046017643,2.576
-0.0008286426447924882,2.577
-0.0008623991708876571,2.578
-0.0010701532407137503,2.579
-0.0014350648831527532,2.58
-0.001905772645860699,2.581
-0.0024007922401292157,2.582
-0.0028391374946118496,2.583
-0.00315187121840026,2.584
-0.003244726269818466,2.585
-0.0029720481792940546,2.586
-0.0021555910159985893,2.587
-0.0006008576415821154,2.588
0.0018944657678452125,2.589
0.005475145925124029,2.59
0.010083528974299805,2.591
0.01529068449688362,2.592
0.02019229891663191,2.593
0.02347723978565222,2.594
0.02377344437776854,2.595
0.020211544445057027,2.596
0.012877902846600401,2.597
0.0028647426044031967,2.598
-0.008066470521129696,2.599
-0.018033722414178523,2.6
-0.02556465362630388,2.601
-0.02986421453426599,2.602
-0.03077184606646796,2.603
-0.028580956246221208,2.604
-0.02387970333142854,2.605
-0.01744953741343493,2.606
-0.010195534849891925,2.607
-0.0030548805148327292,2.608
0.0031311757978609986,2.609
0.007731106781546358,2.61
0.010407233901465857,2.611
0.011180422974227694,2.612
0.010428195425496656,2.613
0.008770527648052006,2.614
0.006874836924101938,2.615
0.005261571713549931,2.616
0.004194575863773857,2.617
0.003696044584338713,2.618
0.003638270386950865,2.619
0.003823368860635738,2.62
0.004030040289421486,2.621
0.0040737779550002046,2.622
0.003874708870344921,2.623
0.00346565289156791,2.624
0.0029385761977811548,2.625
0.002393809150069508,2.626
0.0019089957501531713,2.627
0.001510546581890522,2.628
0.001165766524540426,2.629
0.0008241623827281256,2.63
0.000487018538099337,2.631
0.0002359675957258012,2.632
0.00018032245637441527,2.633
0.00036263210971842135,2.634
0.0006985258452772398,2.635
0.0009904498064319661,2.636
0.0010020288579885863,2.637
0.0005567746452293187,2.638
-0.00038005651351193467,2.639
-0.0016740934143689554,2.64
-0.003071312978813799,2.641
-0.004300517038348132,2.642
-0.005162066599414497,2.643
-0.005556535111999,2.644
-0.005466278214293466,2.645
-0.004927870106438723,2.646
-0.004012747289863754,2.647
-0.002824881108156563,2.648
-0.0015021931232731326,2.649
-0.00019893089735300554,2.65
0.0009277154947195303,2.651
0.001725478520097126,2.652
0.0020861580703205227,2.653
0.0019936239028958353,2.654
0.001529975888212302,2.655
0.0008379097800296129,2.656
6.758418981832765e-05,2.657
-0.0006664899155863296,2.658
-0.0012993052304828758,2.659
-0.0017933027566385462,2.66
-0.0021017262266718735,2.661
-0.002157554950870963,2.662
-0.0019017428296183117,2.663
-0.0013212353834082563,2.664
-0.0004590130372916098,2.665
0.0006092237189833503,2.666
0.0017943157025435228,2.667
0.0029823358774045423,2.668
0.004021292353367888,2.669
0.004743072838466939,2.67
0.005017328880126127,2.671
0.00480133812653371,2.672
0.004146317721279205,2.673
0.003165450577889418,2.674
0.0020069407698097004,2.675
0.0008378907455593375,2.676
-0.00017681301614782188,2.677
-0.0008986154118934461,2.678
-0.0012433637094949287,2.679
-0.0012039939391976992,2.68
-0.0008544822678108409,2.681
-0.00033249464982877425,2.682
0.0002077221757484897,2.683
0.0006517183543841508,2.684
0.0009362236080625888,2.685
0.0010192919345097132,2.686
0.0008686866812483271,2.687
0.00047752830747874235,2.688
-0.00012939435371029745,2.689
-0.0009097067431628354,2.69
-0.001820235677163634,2.691
-0.0028196664004342853,2.692
-0.0038528275930996402,2.693
-0.004830094171851591,2.694
-0.005631887169481467,2.695
-0.006141703867075155,2.696
-0.006270600140697992,2.697
-0.005962982948677906,2.698
-0.0052045246356019455,2.699
-0.004022262602892122,2.7
-0.0024738753004637905,2.701
-0.0006601324392757321,2.702
0.001249623274415399,2.703
0.003034309654168126,2.704
0.004485819864546356,2.705
0.00547172211707161,2.706
0.005959845275947896,2.707
0.0060102549376975295,2.708
0.005750072150365104,2.709
0.005324000274020447,2.71
0.004829815263081589,2.711
0.004294072361955118,2.712
0.003706978282606016,2.713
0.0030545110529639576,2.714
0.002314865879739489,2.715
0.0014719547218168792,2.716
0.0005586502802974701,2.717
