VaMe,time
0.0005964386566900706,0.001
0.0006159357118892875,0.002
0.0006355281751324283,0.003
0.0006551824584245348,0.004
0.0006748684608650007,0.005
0.0006945606165197881,0.006
0.0007142380795727279,0.007
0.0007338841006946571,0.008
0.0007534848305375586,0.009
0.0007730279314939864,0.01
0.0007925014757803914,0.011
0.0008118934498660966,0.012
0.0008311917053469284,0.013
0.0008503839163016419,0.014
0.0008694573784324702,0.015
0.0008883988474940955,0.016
0.0009071945422363842,0.017
0.0009258301666590059,0.018
0.0009442908621013784,0.019
0.0009625612492772606,0.02
0.0009806256740306424,0.021
0.0009984685088766493,0.022
0.0010160742795121782,0.023
0.0010334275132544855,0.024
0.001050512455188207,0.025
0.0010673130329209655,0.026
0.001083813282327497,0.027
0.0010999979948265197,0.028
0.0011158532371681395,0.029
0.0011313666146118824,0.03
0.001146527306775154,0.031
0.001161325950416541,0.032
0.0011757544325022085,0.033
0.0011898056052356235,0.034
0.0012034728823061374,0.035
0.0012167497230324788,0.036
0.0012296292369750092,0.037
0.0012421042651987806,0.038
0.0012541679869295806,0.039
0.0012658147159484514,0.04
0.001277040549586892,0.041
0.0012878437228787867,0.042
0.001298224628721852,0.043
0.0013081855248579125,0.044
0.0013177300045221247,0.045
0.0013268623387155652,0.046
0.001335586792290594,0.047
0.0013439070381527413,0.048
0.0013518258666774868,0.049
0.0013593453008251878,0.05
0.0013664669791899214,0.051
0.0013731925988744802,0.052
0.0013795243207975181,0.053
0.0013854650912576698,0.054
0.001391018816396613,0.055
0.001396190313883275,0.056
0.00140098498141854,0.057
0.0014054082364894276,0.058
0.0014094650383777124,0.059
0.001413159888304864,0.06
0.0014164973213259067,0.061
0.0014194824971348018,0.062
0.001422121543366721,0.063
0.0014244215474932904,0.064
0.0014263902196964687,0.065
0.0014280353195436646,0.066
0.0014293640945504157,0.067
0.0014303831120857009,0.068
0.0014310986359448157,0.069
0.0014315172779025818,0.07
0.001431646587064067,0.071
0.0014314954284798803,0.072
0.001431074093430707,0.073
0.0014303941078989367,0.074
0.0014294677579297752,0.075
0.0014283074194952326,0.076
0.001426924894262555,0.077
0.0014253310477628863,0.078
0.0014235358518283655,0.079
0.0014215485859503905,0.08
0.0014193779486643852,0.081
0.0014170320715000974,0.082
0.001414518539442403,0.083
0.0014118445007050284,0.084
0.0014090168851402316,0.085
0.0014060426708819116,0.086
0.0014029290791286843,0.087
0.0013996835687773081,0.088
0.0013963135557468513,0.089
0.001392825961007437,0.09
0.0013892269433825274,0.091
0.0013855220793592504,0.092
0.0013817168060805515,0.093
0.0013778167853816204,0.094
0.0013738280630618846,0.095
0.0013697570714339593,0.096
0.0013656105646804066,0.097
0.0013613955599275924,0.098
0.0013571193027810244,0.099
0.0013527892172379963,0.1
0.001348412772474848,0.101
0.0013439972162484846,0.102
0.0013395492204802825,0.103
0.0013350746560360585,0.104
0.0013305787324172497,0.105
0.001326066485373386,0.106
0.0013215433840705092,0.107
0.0013170158464872361,0.108
0.0013124915272389572,0.109
0.0013079792868831758,0.11
0.0013034888077732693,0.111
0.0012990299633325233,0.112
0.0012946123031843725,0.113
0.0012902450499709852,0.114
0.0012859375595049372,0.115
0.0012816997961296863,0.116
0.0012775424817295777,0.117
0.0012734768783824377,0.118
0.0012695143354714943,0.119
0.0012656657931060214,0.12
0.001261941424661475,0.121
0.001258350527381058,0.122
0.0012549016623509008,0.123
0.0012516029408593265,0.124
0.0012484622842386412,0.125
0.0012454874756797772,0.126
0.001242685959460089,0.127
0.0012400646405562746,0.128
0.001237630024151903,0.129
0.0012353886593825204,0.13
0.0012333475040129027,0.131
0.001231513912930678,0.132
0.0012298952605046193,0.133
0.0012284985044779724,0.134
0.0012273300548970158,0.135
0.0012263959488641848,0.136
0.0012257019822243542,0.137
0.0012252535722274542,0.138
0.0012250554908367006,0.139
0.0012251117680830681,0.14
0.0012254258515475257,0.141
0.0012260008098809805,0.142
0.0012268393630700746,0.143
0.0012279437156517382,0.144
0.0012293153564298881,0.145
0.0012309550725821303,0.146
0.0012328632460060817,0.147
0.0012350402153464804,0.148
0.0012374864478862711,0.149
0.001240202417080705,0.15
0.0012431882543351073,0.151
0.0012464434183869283,0.152
0.001249966605562945,0.153
0.0012537558230017879,0.154
0.0012578083821803048,0.155
0.0012621208077196891,0.156
0.0012666889038699658,0.157
0.0012715080850936233,0.158
0.0012765738017931612,0.159
0.0012818818610490018,0.16
0.0012874285624038307,0.161
0.0012932106236355448,0.162
0.0012992248747702305,0.163
0.0013054678087283996,0.164
0.0013119353195635052,0.165
0.0013186229187753553,0.166
0.001325526276039388,0.167
0.0013326416883649179,0.168
0.0013399662450191384,0.169
0.0013474976552537556,0.17
0.00135523380446926,0.171
0.0013631721965576846,0.172
0.0013713095358612677,0.173
0.001379641612279391,0.174
0.0013881633621765522,0.175
0.001396868854264113,0.176
0.0014057511407383004,0.177
0.0014148021254213742,0.178
0.001424012552488113,0.179
0.0014333720224634888,0.18
0.0014428689392282329,0.181
0.0014524904566298965,0.182
0.0014622224952170464,0.183
0.0014720497604401761,0.184
0.001481955692875076,0.185
0.0014919224087358246,0.186
0.0015019307618931617,0.187
0.0015119606373194237,0.188
0.001521991505405277,0.189
0.001532003158222373,0.19
0.0015419764526309419,0.191
0.001551893837129795,0.192
0.001561739460055384,0.193
0.0015714987469349954,0.194
0.0015811575754830338,0.195
0.0015907015749590725,0.196
0.0016001161145773849,0.197
0.0016093869202871015,0.198
0.001618500756859367,0.199
0.0016274457903794894,0.2
0.0016362115963531557,0.201
0.0016447888902535654,0.202
0.001653169034855261,0.203
0.0016613433846815698,0.204
0.0016693027081121515,0.205
0.0016770371266765338,0.206
0.0016845367512656113,0.207
0.0016917926614316427,0.208
0.001698797739765636,0.209
0.0017055470699881652,0.21
0.0017120377484305404,0.211
0.0017182680825375055,0.212
0.0017242365363156942,0.213
0.00172994127075581,0.214
0.0017353807631646598,0.215
0.001740554944160341,0.216
0.0017454660363259956,0.217
0.0017501187904696844,0.218
0.0017545201416792487,0.219
0.0017586783986643093,0.22
0.0017626021995998415,0.221
0.0017662996782188726,0.222
0.0017697782908464308,0.223
0.001773045266212176,0.224
0.0017761081715855255,0.225
0.0017789751880574066,0.226
0.0017816550291909479,0.227
0.0017841566264615622,0.228
0.0017864887693435825,0.229
0.0017886598750199826,0.23
0.0017906779690958297,0.231
0.0017925508325436074,0.232
0.0017942861806038584,0.233
0.0017958917260169063,0.234
0.0017973750293929106,0.235
0.001798743122292809,0.236
0.0018000020618389742,0.237
0.0018011567771736806,0.238
0.001802211405342791,0.239
0.0018031698527530599,0.24
0.001804036175733697,0.241
0.0018048145748005278,0.242
0.0018055090009418738,0.243
0.0018061226358794726,0.244
0.001806657728138303,0.245
0.001807115982443661,0.246
0.001807499150291597,0.247
0.001807809383845273,0.248
0.0018080491891570175,0.249
0.0018082209912643062,0.25
0.0018083265412658775,0.251
0.001808366692425761,0.252
0.00180834185947315,0.253
0.0018082528170425673,0.254
0.0018081012911343223,0.255
0.0018078900855345967,0.256
0.0018076227113824092,0.257
0.0018073026582042001,0.258
0.0018069326897005534,0.259
0.0018065145850904613,0.26
0.0018060493215995312,0.261
0.0018055372806060656,0.262
0.0018049781692141401,0.263
0.001804370706955085,0.264
0.0018037123609511625,0.265
0.0018029993825687501,0.266
0.001802227115221184,0.267
0.0018013903352657084,0.268
0.00180048342755342,0.269
0.001799500287893331,0.27
0.0017984340031414116,0.271
0.001797276681968966,0.272
0.0017960198384614247,0.273
0.0017946552357187393,0.274
0.0017931757343509177,0.275
0.0017915757970229998,0.276
0.0017898515194208168,0.277
0.0017880002054684666,0.278
0.0017860196108942174,0.279
0.0017839070918843631,0.28
0.0017816590117096436,0.281
0.0017792706292913928,0.282
0.0017767362893106897,0.283
0.0017740495368789213,0.284
0.001771202988412725,0.285
0.0017681881297331062,0.286
0.0017649953895462623,0.287
0.0017616146333835497,0.288
0.001758035849479594,0.289
0.0017542496935470464,0.29
0.0017502476768067494,0.291
0.0017460218825787114,0.292
0.0017415643302439575,0.293
0.0017368665624827384,0.294
0.0017319200608429137,0.295
0.0017267173811739978,0.296
0.0017212533662140067,0.297
0.0017155259421479207,0.298
0.001709536316775782,0.299
0.0017032885712799026,0.3
0.0016967887473731688,0.301
0.0016900436654033084,0.302
0.0016830599652114735,0.303
0.0016758439531836258,0.304
0.001668402325271139,0.305
0.0016607431979732924,0.306
0.0016528768563284528,0.307
0.0016448159471875964,0.308
0.0016365750479178031,0.309
0.0016281697172971143,0.31
0.0016196154631275869,0.311
0.001610927269929729,0.312
0.0016021198660001463,0.313
0.001593208206097213,0.314
0.001584207666473241,0.315
0.001575133902157174,0.316
0.0015660025042419055,0.317
0.0015568285726646545,0.318
0.0015476263073673164,0.319
0.00153840875657911,0.32
0.0015291878376604544,0.321
0.0015199745950980935,0.322
0.0015107795525695117,0.323
0.0015016130514464063,0.324
0.0014924855295140771,0.325
0.0014834077154224532,0.326
0.0014743907245661127,0.327
0.0014654460481229596,0.328
0.0014565854253821766,0.329
0.0014478205933344456,0.33
0.0014391629315426125,0.331
0.0014306230690027445,0.332
0.001422210572573153,0.333
0.001413933815030073,0.334
0.001405799999136548,0.335
0.001397815241064044,0.336
0.001389984676779313,0.337
0.0013823126154894432,0.338
0.0013748027371636416,0.339
0.0013674582725285106,0.34
0.0013602820694912315,0.341
0.0013532764675304662,0.342
0.0013464430491755672,0.343
0.0013397825461913964,0.344
0.0013332950731514703,0.345
0.0013269804835922263,0.346
0.001320838541599151,0.347
0.0013148687980835893,0.348
0.0013090702728769507,0.349
0.001303441240204564,0.35
0.0012979793837125824,0.351
0.0012926822519223097,0.352
0.0012875477406157254,0.353
0.0012825744180444377,0.354
0.001277761626839922,0.355
0.0012731093394237967,0.356
0.0012686177705004801,0.357
0.0012642868645785872,0.358
0.0012601159862458355,0.359
0.0012561040858401703,0.36
0.0012522502008750348,0.361
0.001248553926883592,0.362
0.0012450156297238856,0.363
0.0012416363453002339,0.364
0.001238417409181301,0.365
0.0012353599377159408,0.366
0.0012324643458158405,0.367
0.0012297300572002405,0.368
0.0012271554141166918,0.369
0.0012247377249624111,0.37
0.0012224734510581528,0.371
0.0012203585161859075,0.372
0.001218388650125841,0.373
0.0012165596772195824,0.374
0.0012148676766860428,0.375
0.001213308944902185,0.376
0.0012118797194567695,0.377
0.001210575774665736,0.378
0.0012093922245874197,0.379
0.0012083237567232386,0.38
0.0012073650924743524,0.381
0.0012065113553313492,0.382
0.0012057582431755048,0.383
0.0012051020359628902,0.384
0.0012045394903475485,0.385
0.001204067664410144,0.386
0.0012036836859080316,0.387
0.0012033844430431723,0.388
0.0012031662469744353,0.389
0.0012030247122406504,0.39
0.0012029550599791372,0.391
0.0012029526904908903,0.392
0.0012030137063467326,0.393
0.0012031352006674607,0.394
0.0012033152539932062,0.395
0.0012035526499243208,0.396
0.001203846373886224,0.397
0.0012041950492357046,0.398
0.0012045965587608397,0.399
0.0012050479470424435,0.4
0.0012055454273370886,0.401
0.0012060844189270268,0.402
0.0012066597767959304,0.403
0.0012072662246142194,0.404
0.001207898739439582,0.405
0.0012085526431167704,0.406
0.0012092233410535532,0.407
0.001209905940171343,0.408
0.0012105952084120978,0.409
0.0012112860867820848,0.41
0.0012119744457203625,0.411
0.0012126576747612074,0.412
0.001213334938009301,0.413
0.0012140070899005445,0.414
0.001214676298615936,0.415
0.0012153454462699002,0.416
0.0012160174459895851,0.417
0.0012166947815330142,0.418
0.0012173795494419518,0.419
0.0012180739231092519,0.42
0.0012187807153248918,0.421
0.0012195038294714703,0.422
0.0012202485474720835,0.423
0.001221021633887964,0.424
0.001221831233365518,0.425
0.0012226865639919635,0.426
0.001223597448662842,0.427
0.001224573749333456,0.428
0.0012256248397187316,0.429
0.0012267593728695118,0.43
0.0012279854712735027,0.431
0.0012293111154096593,0.432
0.0012307444231483976,0.433
0.0012322937016563573,0.434
0.0012339672876572952,0.435
0.0012357732411102957,0.436
0.0012377189921277752,0.437
0.0012398110658422242,0.438
0.0012420549646289748,0.439
0.0012444551505747393,0.44
0.0012470150261280272,0.441
0.0012497369483688199,0.442
0.0012526223780616988,0.443
0.0012556721407504016,0.444
0.0012588866849880444,0.445
0.001262266243027229,0.446
0.0012658108316325118,0.447
0.001269520067198946,0.448
0.0012733929074975915,0.449
0.001277427620867309,0.45
0.0012816221824882815,0.451
0.0012859749345327791,0.452
0.0012904852080004448,0.453
0.0012951537189374756,0.454
0.0012999826416045615,0.455
0.001304975316609392,0.456
0.0013101356334031947,0.457
0.001315467293179122,0.458
0.0013209733391550485,0.459
0.0013266561442949437,0.46
0.0013325175741038067,0.461
0.0013385589661658343,0.462
0.0013447809020236908,0.463
0.0013511829945285787,0.464
0.0013577638398388696,0.465
0.0013645210393010288,0.466
0.0013714512054522545,0.467
0.0013785501107373853,0.468
0.001385813120168713,0.469
0.001393235766268657,0.47
0.001400814200104788,0.471
0.0014085453410285066,0.472
0.0014164266627085444,0.473
0.0014244556783320577,0.474
0.0014326293933607534,0.475
0.00144094412325304,0.476
0.001449395813313418,0.477
0.0014579805908491413,0.478
0.0014666952500361195,0.479
0.0014755375666554566,0.48
0.0014845064095159292,0.481
0.001493601606012288,0.482
0.0015028235389026204,0.483
0.0015121725408795612,0.484
0.0015216483518796595,0.485
0.001531249996881113,0.486
0.0015409761289360425,0.487
0.001550825476257225,0.488
0.0015607970397082918,0.489
0.0015708899403906046,0.49
0.001581102987455562,0.491
0.0015914341827347365,0.492
0.0016018804852988401,0.493
0.0016124379595389472,0.494
0.0016231020814087074,0.495
0.0016338679513655619,0.496
0.001644730365589669,0.497
0.0016556837916640687,0.498
0.001666722285302511,0.499
0.001677839358097458,0.5
0.0016890277818304251,0.501
0.001700279333557684,0.502
0.0017115846023238452,0.503
0.001722933077596908,0.504
0.0017343135955546613,0.505
0.0017457149517698496,0.506
0.0017571264075709055,0.507
0.001768537904194167,0.508
0.0017799398989574223,0.509
0.001791322837017851,0.51
0.0018026764849529977,0.511
0.0018139896068268657,0.512
0.0018252502478828467,0.513
0.001836446298182541,0.514
0.001847565858784127,0.515
0.001858597216704089,0.516
0.001869528432625278,0.517
0.0018803467477527948,0.518
0.0018910382648059901,0.519
0.0019015881326411672,0.52
0.001911980869563722,0.521
0.0019222003528647214,0.522
0.0019322295145057825,0.523
0.0019420502783605187,0.524
0.0019516440916142281,0.525
0.0019609927179394275,0.526
0.0019700787128187915,0.527
0.001978885280286131,0.528
0.0019873956183095896,0.529
0.0019955923782096416,0.53
0.002003457905995363,0.531
0.002010975125318774,0.532
0.002018128276271499,0.533
0.002024902910343388,0.534
0.00203128515911254,0.535
0.002037261034348771,0.536
0.0020428167081511066,0.537
0.0020479397932936677,0.538
0.0020526206807933013,0.539
0.002056853058914888,0.54
0.0020606332922954228,0.541
0.002063959010698863,0.542
0.002066828094705851,0.543
0.0020692390921050975,0.544
0.0020711926291142988,0.545
0.0020726925475189183,0.546
0.0020737460353099915,0.547
0.0020743627152820313,0.548
0.0020745531538512384,0.549
0.002074327774060217,0.55
0.002073696970330649,0.551
0.0020726721311713726,0.552
0.002071266654689915,0.553
0.002069496415062841,0.554
0.002067379607704054,0.555
0.002064936067337748,0.556
0.002062186212239864,0.557
0.002059149939994351,0.558
0.002055846040848994,0.559
0.0020522924161812243,0.56
0.002048506712474589,0.561
0.002044506876861563,0.562
0.002040311522459171,0.563
0.0020359401622384986,0.564
0.0020314133297666325,0.565
0.0020267525505762913,0.566
0.00202198009594879,0.567
0.002017118459726063,0.568
0.00201218964879999,0.569
0.00200721468506194,0.57
0.002002213712123514,0.571
0.0019972065674564517,0.572
0.0019922133132864637,0.573
0.00198725440389666,0.574
0.001982350472435563,0.575
0.001977521863786594,0.576
0.001972788074432514,0.577
0.0019681672546241224,0.578
0.001963675901022893,0.579
0.0019593287571064346,0.58
0.0019551388087490264,0.581
0.0019511173182922767,0.582
0.001947273984410891,0.583
0.0019436172826549592,0.584
0.0019401549000333683,0.585
0.0019368941181842235,0.586
0.0019338420178030221,0.587
0.0019310054166122553,0.588
0.001928390522439631,0.589
0.0019260024595877845,0.59
0.0019238450310719007,0.591
0.0019219209038341728,0.592
0.0019202319415506112,0.593
0.001918779312647752,0.594
0.0019175632877568858,0.595
0.0019165829454376674,0.596
0.001915836138673495,0.597
0.0019153198242519913,0.598
0.0019150304605707186,0.599
0.0019149641338335928,0.6
0.0019151163184552072,0.601
0.0019154815030279185,0.602
0.0019160531358852193,0.603
0.0019168240730208631,0.604
0.0019177871817033904,0.605
0.0019189356640739806,0.606
0.0019202629318727335,0.607
0.0019217621016042541,0.608
0.0019234254529897719,0.609
0.0019252443426273768,0.61
0.0019272096907632793,0.611
0.0019293126280808734,0.612
0.0019315448578135822,0.613
0.0019338985674681888,0.614
0.001936365914997698,0.615
0.0019389383720503962,0.616
0.0019416065024069054,0.617
0.0019443604847444028,0.618
0.001947191002615323,0.619
0.00195008994500113,0.62
0.001953050656923784,0.621
0.0019560676762828124,0.622
0.001959135996315749,0.623
0.0019622501808181157,0.624
0.0019654040019379026,0.625
0.0019685909417285086,0.626
0.0019718050617646534,0.627
0.001975041546127639,0.628
0.0019782966517947905,0.629
0.0019815671353472513,0.63
0.001984849396936858,0.631
0.001988138675565215,0.632
0.0019914285937365165,0.633
0.001994711198294749,0.634
0.0019979774473074365,0.635
0.002001217932686439,0.636
0.0020044235562356014,0.637
0.0020075858978374074,0.638
0.0020106971013961294,0.639
0.002013749303266871,0.64
0.0020167340360354646,0.641
0.002019642287841994,0.642
0.0020224654114085697,0.643
0.0020251963513513776,0.644
0.0020278305766192163,0.645
0.0020303664365634165,0.646
0.002032804869118526,0.647
0.002035148492884946,0.648
0.0020374003707614666,0.649
0.002039563185919242,0.65
0.002041639500267744,0.651
0.0020436328745186885,0.652
0.0020455490312471657,0.653
0.0020473964803318645,0.654
0.0020491864177900826,0.655
0.0020509319071484837,0.656
0.00205264662067269,0.657
0.0020543438357426003,0.658
0.0020560363098547363,0.659
0.0020577368190212338,0.66
0.0020594585867298467,0.661
0.002061215159724787,0.662
0.002063019805870579,0.663
0.00206488476581111,0.664
0.0020668207412252535,0.665
0.0020688367409656344,0.666
0.0020709400609877455,0.667
0.002073136244702231,0.668
0.0020754291182243523,0.669
0.002077820940773878,0.67
0.0020803125395394925,0.671
0.0020829033009725226,0.672
0.0020855910317094484,0.673
0.0020883718817152883,0.674
0.002091240550003242,0.675
0.0020941907791574865,0.676
0.0020972159540036247,0.677
0.0021003096106592864,0.678
0.00210346570490769,0.679
0.002106678523883688,0.68
0.002109942193718985,0.681
0.002113249984077345,0.682
0.0021165939608619616,0.683
0.002119965325371534,0.684
0.002123355064227571,0.685
0.0021267543388227062,0.686
0.0021301543948223094,0.687
0.0021335460589731138,0.688
0.0021369191602666785,0.689
0.0021402624073428465,0.69
0.0021435639254954067,0.691
0.0021468120845650022,0.692
0.0021499961433527554,0.693
0.0021531064674144527,0.694
0.002156134212833213,0.695
0.0021590705702900954,0.696
0.0021619061313983747,0.697
0.002164631095647937,0.698
0.00216723635096081,0.699
0.0021697147300415824,0.7
0.0021720617933484202,0.701
0.002174275890709778,0.702
0.002176357495864091,0.703
0.002178308007853837,0.704
0.002180128606669899,0.705
0.0021818199835869807,0.706
0.0021833831409031426,0.707
0.0021848205392146288,0.708
0.002186136824186132,0.709
0.0021873388856338614,0.71
0.002188435321156219,0.711
0.002189435500322975,0.712
0.002190348495536637,0.713
0.0021911821964420946,0.714
0.0021919428893176557,0.715
0.0021926352973154727,0.716
0.0021932627867353757,0.717
0.002193827524686167,0.718
0.002194330607133464,0.719
0.0021947722423772027,0.72
0.002195152023306657,0.721
0.0021954692406343955,0.722
0.0021957231043508167,0.723
0.0021959126997125465,0.724
0.002196036594349779,0.725
0.002196092348104922,0.726
0.0021960764803782007,0.727
0.0021959851203207908,0.728
0.0021958149016958954,0.729
0.002195563551613466,0.73
0.002195229960328045,0.731
0.002194813759224527,0.732
0.002194314530989049,0.733
0.002193730945505277,0.734
0.0021930603502107932,0.735
0.0021922991202175516,0.736
0.00219144344303768,0.737
0.002190490028742462,0.738
0.002189436493942848,0.739
0.0021882813206849853,0.74
0.0021870233471636955,0.741
0.0021856609679194766,0.742
0.0021841916130950993,0.743
0.002182612020831238,0.744
0.0021809191096034855,0.745
0.002179110827558388,0.746
0.002177186586231665,0.747
0.002175147202819491,0.748
0.00217299441559101,0.749
0.002170730099253862,0.75
0.002168355402151866,0.751
0.002165870179071765,0.752
0.002163273004612506,0.753
0.0021605616399225174,0.754
0.002157733600325167,0.755
0.0021547866138777088,0.756
0.002151718908719223,0.757
0.002148529278370329,0.758
0.002145216861417494,0.759
0.0021417805954774796,0.76
0.0021382185182894295,0.761
0.002134527452147973,0.762
0.0021307034328739084,0.763
0.0021267425191219278,0.764
0.00212264136889414,0.765
0.0021183972861294055,0.766
0.0021140077119062924,0.767
0.0021094694776816847,0.768
0.0021047785318049662,0.769
0.0020999305134258585,0.77
0.0020949216651286007,0.771
0.0020897493624622817,0.772
0.0020844119807195112,0.773
0.0020789081872186464,0.774
0.00207323610602065,0.775
0.0020673930744183615,0.776
0.0020613762850910378,0.777
0.002055183838719821,0.778
0.0020488156205671023,0.779
0.0020422737823791843,0.78
0.00203556280313239,0.781
0.002028689137785632,0.782
0.0020216604909804375,0.783
0.002014484835521141,0.784
0.0020071695528482863,0.785
0.0019997212401293464,0.786
0.0019921462909632997,0.787
0.0019844517147362493,0.788
0.0019766456359168777,0.789
0.001968737292917402,0.79
0.0019607365965832635,0.791
0.0019526534146313641,0.792
0.0019444968075046653,0.793
0.0019362744291319609,0.794
0.0019279922229290154,0.795
0.001919654447133335,0.796
0.0019112639857875413,0.797
0.00190282281051085,0.798
0.0018943323787657114,0.799
0.0018857937432369258,0.8
0.0018772073194434568,0.801
0.00186857268027222,0.802
0.0018598889292538395,0.803
0.001851155717003823,0.804
0.0018423744166456274,0.805
0.0018335489732789496,0.806
0.0018246861896881867,0.807
0.001815795369540795,0.808
0.001806887350476634,0.809
0.0017979732693652608,0.81
0.0017890638644981432,0.811
0.0017801698505088448,0.812
0.0017713029054619066,0.813
0.0017624764781082605,0.814
0.0017537060909232093,0.815
0.0017450091622659726,0.816
0.001736404463152037,0.817
0.001727911354964554,0.818
0.0017195489710296844,0.819
0.0017113355761156955,0.82
0.0017032883591093584,0.821
0.0016954236614329964,0.822
0.001687757332965242,0.823
0.0016803049236378076,0.824
0.0016730816141308955,0.825
0.0016661019184166482,0.826
0.0016593793346875603,0.827
0.0016529262081168641,0.828
0.001646753841882905,0.829
0.0016408725800178504,0.83
0.0016352917322873751,0.831
0.001630019644970336,0.832
0.0016250641865482064,0.833
0.0016204334390459325,0.834
0.001616136202413145,0.835
0.0016121821287725078,0.836
0.0016085815119915004,0.837
0.0016053448680780071,0.838
0.0016024824842622042,0.839
0.0016000040781075657,0.84
0.0015979186132188837,0.841
0.0015962342137558212,0.842
0.0015949580593101497,0.843
0.0015940962177874514,0.844
0.0015936535802773524,0.845
0.001593634077021268,0.846
0.001594041080526811,0.847
0.0015948777506133707,0.848
0.0015961471761525975,0.849
0.0015978522810490016,0.85
0.0015999955169102447,0.851
0.001602578460652377,0.852
0.0016056015704221042,0.853
0.0016090642689709006,0.854
0.0016129652150665666,0.855
0.0016173025179304424,0.856
0.001622073810781118,0.857
0.001627276231642437,0.858
0.0016329063751587237,0.859
0.0016389602248286085,0.86
0.0016454329992163905,0.861
0.001652318935839809,0.862
0.0016596113336812368,0.863
0.0016673031648990254,0.864
0.001675388098642699,0.865
0.0016838615127334686,0.866
0.0016927211839660983,0.867
0.0017019674891444046,0.868
0.0017116030432016958,0.869
0.001721631798680275,0.87
0.0017320579163089655,0.871
0.001742885169139092,0.872
0.0017541174056514726,0.873
0.0017657596348648584,0.874
0.0017778189399085043,0.875
0.0017903048427535114,0.876
0.001803229087274631,0.877
0.0018166049457968055,0.878
0.0018304462346754495,0.879
0.0018447663215009225,0.88
0.0018595775109050178,0.881
0.00187489097028913,0.882
0.0018907168677374637,0.883
0.00190706432594736,0.884
0.0019239412384637056,0.885
0.0019413542917103748,0.886
0.001959309303079417,0.887
0.001977811604498975,0.888
0.0019968661969796703,0.889
0.0020164776468328664,0.89
0.0020366498402211064,0.891
0.0020573857188602644,0.892
0.0020786870495973658,0.893
0.002100554201950261,0.894
0.0021229859605613834,0.895
0.0021459795716525275,0.896
0.0021695311773296546,0.897
0.0021936364794541653,0.898
0.002218291312958721,0.899
0.0022434918953442118,0.9
0.0022692346463483834,0.901
0.002295515602504283,0.902
0.002322329693826813,0.903
0.0023496703863768744,0.904
0.002377529938866378,0.905
0.0024058999459746593,0.906
0.0024347717485335195,0.907
0.002464136598234957,0.908
0.002493985624642936,0.909
0.002524309654177609,0.91
0.00255509890176617,0.911
0.0025863425236546814,0.912
0.002618028096269946,0.913
0.0026501412866155134,0.914
0.002682665935557584,0.915
0.0027155843816232096,0.916
0.0027488776512488815,0.917
0.0027825253264264975,0.918
0.002816505156461455,0.919
0.00285079263417155,0.92
0.002885360749560603,0.921
0.0029201800598372255,0.922
0.0029552192173715503,0.923
0.0029904460148038447,0.924
0.003025828759478143,0.925
0.0030613376030781975,0.926
0.0030969454306862326,0.927
0.003132628007029437,0.928
0.0031683632614548816,0.929
0.003204129850189793,0.93
0.0032399055689022473,0.931
0.0032756665387157356,0.932
0.0033113875158212037,0.933
0.003347042648760147,0.934
0.0033826059943889795,0.935
0.003418051792359016,0.936
0.0034533548097729627,0.937
0.003488491004530282,0.938
0.0035234385802507145,0.939
0.0035581792865220863,0.94
0.003592699641685543,0.941
0.003626991690944356,0.942
0.003661052987347491,0.943
0.0036948856689828277,0.944
0.003728494728757955,0.945
0.0037618858382908013,0.946
0.0037950634975099226,0.947
0.0038280304129593833,0.948
0.003860788206654766,0.949
0.003893338611595712,0.95
0.003925684411162649,0.951
0.0039578299833480535,0.952
0.003989781543539603,0.953
0.004021547146041764,0.954
0.004053136428707302,0.955
0.0040845600193744865,0.956
0.004115828535149554,0.957
0.004146951272877964,0.958
0.004177935003790539,0.959
0.004208783327339336,0.96
0.004239496525349315,0.961
0.004270071635901684,0.962
0.004300502962473438,0.963
0.004330783277138339,0.964
0.004360905317060851,0.965
0.004390862919583735,0.966
0.0044206514476405065,0.967
0.004450267480912813,0.968
0.004479707949404861,0.969
0.004508968970006564,0.97
0.004538044615040197,0.971
0.004566925912473788,0.972
0.004595600606485955,0.973
0.004624054026751821,0.974
0.004652270776456075,0.975
0.004680236649706679,0.976
0.004707940292073643,0.977
0.004735374194741279,0.978
0.004762534718106197,0.979
0.004789421066372152,0.98
0.004816033383189754,0.981
0.004842370549152613,0.982
0.0048684287584979495,0.983
0.004894201498112192,0.984
0.004919680172248673,0.985
0.00494485416545055,0.986
0.004969710311311072,0.987
0.00499423314544471,0.988
0.005018407024636722,0.989
0.005042219432984301,0.99
0.005065663944098342,0.991
0.005088741756685332,0.992
0.005111461257905659,0.993
0.0051338355043708305,0.994
0.0051558786850428385,0.995
0.005177604356140461,0.996
0.00519902738516917,0.997
0.005220168110718546,0.998
0.005241056033604474,0.999
0.005261731792123195,1.0
0.005282247191265506,1.001
0.005302663389375825,1.002
0.005323047651864032,1.003
0.005343469418070703,1.004
0.005363996910160103,1.005
0.005384695532212855,1.006
0.00540562798079276,1.007
0.0054268546160626254,1.008
0.005448433058170242,1.009
0.005470417207170365,1.01
0.0054928563758464615,1.011
0.005515795035280999,1.012
0.005539273362079187,1.013
0.005563328511466055,1.014
0.005587996212758885,1.015
0.005613312067512394,1.016
0.005639312042875139,1.017
0.0056660319534359805,1.018
0.0056935060762036485,1.019
0.005721765561431222,1.02
0.005750837697817128,1.021
0.005780746429284329,1.022
0.0058115132921410404,1.023
0.005843157773263578,1.024
0.005875696774713819,1.025
0.005909143619099838,1.026
0.005943507716944756,1.027
0.005978795610173088,1.028
0.006015012701545113,1.029
0.0060521645037831286,1.03
0.006090256845371022,1.031
0.00612929499777418,1.032
0.006169282047979721,1.033
0.0062102172884936835,1.034
0.006252095506889917,1.035
0.006294907262328659,1.036
0.006338639317776754,1.037
0.006383274490531748,1.038
0.006428791002950359,1.039
0.006475162169818581,1.04
0.006522357135320858,1.041
0.0065703423589642505,1.042
0.006619082979941662,1.043
0.006668543430622816,1.044
0.006718686983501304,1.045
0.006769474377777586,1.046
0.0068208625795189316,1.047
0.006872805021097504,1.048
0.006925253402554144,1.049
0.006978159838500258,1.05
0.0070314783212840695,1.051
0.007085165292797903,1.052
0.007139179569991751,1.053
0.007193482005453355,1.054
0.007248035218566129,1.055
0.007302803525148462,1.056
0.007357752920246273,1.057
0.0074128507543984486,1.058
0.007468064676206884,1.059
0.007523360731626935,1.06
0.007578701596268306,1.061
0.007634046816505378,1.062
0.007689355772096824,1.063
0.007744591922167083,1.064
0.007799726427531827,1.065
0.007854740078081957,1.066
0.007909623111472556,1.067
0.007964373008621371,1.068
0.00801899086170776,1.069
0.008073477221018551,1.07
0.008127828491224579,1.071
0.008182034889261615,1.072
0.00823608009014072,1.073
0.008289941617240103,1.074
0.008343591234430873,1.075
0.008396995435202134,1.076
0.008450116339173662,1.077
0.008502913070102385,1.078
0.00855534340002901,1.079
0.00860736517655471,1.08
0.008658936892443745,1.081
0.008710016797891722,1.082
0.008760560727285002,1.083
0.008810520487515947,1.084
0.008859844943776308,1.085
0.008908483433464473,1.086
0.008956388973746834,1.087
0.00900351914439146,1.088
0.009049833960878651,1.089
0.009095292152145613,1.09
0.009139849645714479,1.091
0.009183462595483088,1.092
0.009226092548915318,1.093
0.009267710001993038,1.094
0.00930829483621195,1.095
0.009347833761138976,1.096
0.009386315700578332,1.097
0.009423727396812836,1.098
0.009460052288681905,1.099
0.009495273575514822,1.1
0.009529379154399059,1.101
0.009562365776984223,1.102
0.009594241249682167,1.103
0.009625024230049963,1.104
0.009654741434467247,1.105
0.009683422770916862,1.106
0.009711096605283744,1.107
0.009737788552907514,1.108
0.009763524784769514,1.109
0.009788337029526379,1.11
0.009812266153852747,1.111
0.00983536322697931,1.112
0.009857688092825731,1.113
0.00987930582394182,1.114
0.009900281930408294,1.115
0.009920678188854361,1.116
0.009940551332351623,1.117
0.009959954871932577,1.118
0.009978941928157141,1.119
0.009997567140768325,1.12
0.010015887213131307,1.121
0.01003396029610659,1.122
0.010051844474404215,1.123
0.010069595611705418,1.124
0.01008726485701072,1.125
0.010104896498849228,1.126
0.01012252720525663,1.127
0.01014018690507303,1.128
0.01015790024690371,1.129
0.010175687442193165,1.13
0.010193564001947843,1.131
0.010211539510308452,1.132
0.010229616437711081,1.133
0.010247790314772716,1.134
0.010266051241213426,1.135
0.010284385156963243,1.136
0.01030277352734857,1.137
0.010321191998624565,1.138
0.010339610391749448,1.139
0.01035799543007508,1.14
0.010376314632466434,1.141
0.010394538882101111,1.142
0.010412642450241191,1.143
0.010430600363925941,1.144
0.010448384408166575,1.145
0.0104659608842714,1.146
0.010483292125298617,1.147
0.010500340026117272,1.148
0.010517068895328835,1.149
0.010533446920881432,1.15
0.010549446749249848,1.151
0.010565045662750936,1.152
0.010580225439973969,1.153
0.01059497150035715,1.154
0.010609270674898662,1.155
0.010623107787878595,1.156
0.010636463469104898,1.157
0.010649316045031781,1.158
0.010661647061064438,1.159
0.010673447229344435,1.16
0.010684720205390241,1.161
0.010695483224301914,1.162
0.010705764619643331,1.163
0.010715598881876027,1.164
0.010725020683776457,1.165
0.010734060350109566,1.166
0.010742742920381021,1.167
0.010751090327676117,1.168
0.010759124338399335,1.169
0.010766868754796193,1.17
0.010774350752246455,1.171
0.010781601491643557,1.172
0.010788655923960866,1.173
0.010795551564991065,1.174
0.010802326085149406,1.175
0.010809013995496232,1.176
0.010815643651527923,1.177
0.010822236202978374,1.178
0.010828806601865179,1.179
0.010835364936269649,1.18
0.010841916609081608,1.181
0.010848461214451124,1.182
0.010854990807606775,1.183
0.010861488726225317,1.184
0.010867929783730197,1.185
0.010874281562518209,1.186
0.010880506130065208,1.187
0.01088656193890154,1.188
0.01089240587925434,1.189
0.010897995232284635,1.19
0.010903288996431379,1.191
0.010908247914905665,1.192
0.010912832583529026,1.193
0.010917000243377451,1.194
0.010920703422708431,1.195
0.010923893444268185,1.196
0.010926527770330173,1.197
0.010928577842699103,1.198
0.010930035200907644,1.199
0.010930914974573202,1.2
0.010931256484505198,1.201
0.010931121209355353,1.202
0.010930588749488507,1.203
0.010929751578130456,1.204
0.010928709295912524,1.205
