VaMe,time
0.0023247016987261683,0.001
0.0024442512635891385,0.002
0.002564498167730936,0.003
0.0026852893955887965,0.004
0.002806480882612452,0.005
0.0029279417345640843,0.006
0.0030495567553782185,0.007
0.003171226845389646,0.008
0.0032928671260369358,0.009
0.0034144030130656144,0.01
0.0035357653206737477,0.011
0.0036568868227173394,0.012
0.0037777022440962493,0.013
0.0038981507603914976,0.014
0.004018178448790604,0.015
0.004137739246803909,0.016
0.0042567943747393675,0.017
0.0043753106837531456,0.018
0.004493258494669384,0.019
0.004610609435310367,0.02
0.00472733459459055,0.021
0.004843403049786277,0.022
0.004958780763514445,0.023
0.005073430215212916,0.024
0.005187311303137418,0.025
0.005300383506579008,0.026
0.005412608719452061,0.027
0.0055239540317209915,0.028
0.005634393766593623,0.029
0.00574391021354056,0.03
0.00585249279977542,0.031
0.005960135811129975,0.032
0.006066835120887843,0.033
0.006172585002549947,0.034
0.006277376683381978,0.035
0.006381199316211182,0.036
0.006484042175222584,0.037
0.006585896709778194,0.038
0.006686758171545451,0.039
0.00678662702508045,0.04
0.006885510300406926,0.041
0.006983422886749493,0.042
0.0070803885370736026,0.043
0.007176440124198776,0.044
0.007271618559079255,0.045
0.007365969852750666,0.046
0.007459541009328887,0.047
0.0075523778016567695,0.048
0.007644527067790368,0.049
0.007736042063054364,0.05
0.007826987283162428,0.051
0.007917440638543462,0.052
0.008007492507391136,0.053
0.008097242056464928,0.054
0.008186791877388435,0.055
0.008276242743422606,0.056
0.008365690619053233,0.057
0.008455226348271744,0.058
0.008544936120674397,0.059
0.008634901107568208,0.06
0.008725196407788184,0.061
0.008815890070671644,0.062
0.008907042738684475,0.063
0.008998708125676871,0.064
0.009090934222684055,0.065
0.009183764865024476,0.066
0.009277241136129363,0.067
0.00937140204353862,0.068
0.009466283991564071,0.069
0.009561919153343909,0.07
0.009658334158063282,0.071
0.009755550971400613,0.072
0.00985359007957107,0.073
0.009952474180017944,0.074
0.010052230566974293,0.075
0.01015289123174805,0.076
0.010254490287899513,0.077
0.01035705982365729,0.078
0.010460627718214665,0.079
0.010565220039826342,0.08
0.01067086608749447,0.081
0.01077760239181154,0.082
0.010885473968751879,0.083
0.010994532787484364,0.084
0.011104834086195182,0.085
0.011216431577258608,0.086
0.011329372973705187,0.087
0.011443697391743944,0.088
0.011559434879917965,0.089
0.01167660659659776,0.09
0.011795224433251095,0.091
0.01191529026584788,0.092
0.012036795520702276,0.093
0.012159721543141523,0.094
0.01228404090146426,0.095
0.012409719332724356,0.096
0.012536717676790357,0.097
0.012664992993228187,0.098
0.01279449818055971,0.099
0.012925180085593298,0.1
0.013056977559303021,0.101
0.013189821677865997,0.102
0.013323638498954614,0.103
0.013458352195392974,0.104
0.013593886156200602,0.105
0.013730161180957682,0.106
0.013867092531557762,0.107
0.014004589995638148,0.108
0.014142563091777995,0.109
0.014280928585657741,0.11
0.014419616146356836,0.111
0.014558570089767383,0.112
0.01469774686308718,0.113
0.014837108838498779,0.114
0.014976616630500345,0.115
0.015116224433063399,0.116
0.015255881565798006,0.117
0.01539553823792157,0.118
0.015535151364625244,0.119
0.015674688279068764,0.12
0.015814127828255947,0.121
0.01595345872235874,0.122
0.01609267526051496,0.123
0.01623177105681009,0.124
0.01637073283243019,0.125
0.016509537722876638,0.126
0.016648155341134483,0.127
0.016786551632489956,0.128
0.016924691099294457,0.129
0.017062536371330803,0.13
0.0172000454374745,0.131
0.017337167607773128,0.132
0.017473840522318772,0.133
0.017609990375547172,0.134
0.01774553496398409,0.135
0.017880387200384144,0.136
0.01801445721998684,0.137
0.018147652273339043,0.138
0.01827987409118237,0.139
0.018411014753292043,0.14
0.018540954538842924,0.141
0.018669564519363843,0.142
0.01879671213395705,0.143
0.018922265912143375,0.144
0.019046097175551262,0.145
0.01916807817294326,0.146
0.019288077152104385,0.147
0.019405952889406993,0.148
0.01952155291532303,0.149
0.019634717148231496,0.15
0.019745283842396977,0.151
0.01985309399091753,0.152
0.01995799267271185,0.153
0.020059827189968724,0.154
0.020158442261879274,0.155
0.020253673874322756,0.156
0.020345345708909727,0.157
0.020433271341827555,0.158
0.020517260896799804,0.159
0.02059712871909024,0.16
0.020672700212644324,0.161
0.020743817133560653,0.162
0.02081034045631936,0.163
0.020872149606188967,0.164
0.020929136884838613,0.165
0.020981198036317823,0.166
0.02102822516272554,0.167
0.02107010974520963,0.168
0.021106755740444197,0.169
0.021138095007316386,0.17
0.02116409817283235,0.171
0.0211847782544748,0.172
0.02120018673019999,0.173
0.02121040298111905,0.174
0.0212155194079623,0.175
0.021215627633078965,0.176
0.02121081365984702,0.177
0.021201164521693832,0.178
0.021186780048393923,0.179
0.021167782684168236,0.18
0.021144323154504218,0.181
0.02111658209418576,0.182
0.02108476791627529,0.183
0.02104911117043455,0.184
0.021009855571331736,0.185
0.020967247059456972,0.186
0.0209215257229248,0.187
0.02087292640369561,0.188
0.020821687773735283,0.189
0.020768063450962906,0.19
0.02071232941830571,0.191
0.02065478566089252,0.192
0.02059575206646598,0.193
0.020535559775332675,0.194
0.02047454036755962,0.195
0.02041301690661725,0.196
0.02035130081245053,0.197
0.020289694371220465,0.198
0.020228494626004324,0.199
0.02016799535837558,0.2
0.020108486794184807,0.201
0.02005025372383577,0.202
0.019993572622129387,0.203
0.019938708186280893,0.204
0.019885910081471194,0.205
0.01983541144326597,0.206
0.019787429805993767,0.207
0.019742168885011752,0.208
0.019699819187331418,0.209
0.019660557010852023,0.21
0.019624543250634303,0.211
0.01959192408266874,0.212
0.019562833910000476,0.213
0.019537398830103525,0.214
0.019515738792582553,0.215
0.019497967688434214,0.216
0.019484191397106134,0.217
0.019474504455808766,0.218
0.019468986891261558,0.219
0.019467703050950778,0.22
0.019470702793291262,0.221
0.019478023645352113,0.222
0.019489692768559455,0.223
0.01950572867971423,0.224
0.01952614290543569,0.225
0.019550941368367346,0.226
0.019580124922958204,0.227
0.01961368830322988,0.228
0.019651617219296397,0.229
0.019693885166882228,0.23
0.0197404532731297,0.231
0.019791274613222477,0.232
0.019846300402107636,0.233
0.019905484505072516,0.234
0.01996878443212236,0.235
0.020036158333794178,0.236
0.02010755912405479,0.237
0.020182929645342136,0.238
0.020262203163850676,0.239
0.020345308928405425,0.24
0.020432178450789092,0.241
0.020522748945910326,0.242
0.020616962828387757,0.243
0.020714763472738554,0.244
0.02081608856817595,0.245
0.02092086418832912,0.246
0.021029002942696752,0.247
0.021140406142064774,0.248
0.021254966565442134,0.249
0.021372569233137503,0.25
0.021493090008785447,0.251
0.02161639278982597,0.252
0.021742326212061014,0.253
0.021870721202316305,0.254
0.02200139059290794,0.255
0.022134130623507463,0.256
0.022268722929599787,0.257
0.0224049358284824,0.258
0.022542524391305625,0.259
0.0226812290449221,0.26
0.022820773255333524,0.261
0.022960862663514183,0.262
0.023101188064637193,0.263
0.023241431908227767,0.264
0.02338127632928066,0.265
0.02352041112879629,0.266
0.023658540368699747,0.267
0.023795386030897297,0.268
0.02393068721647345,0.269
0.02406419377712926,0.27
0.024195656026315515,0.271
0.024324818078546338,0.272
0.02445142300670833,0.273
0.024575228740960745,0.274
0.02469602626796486,0.275
0.024813653275985417,0.276
0.02492800015552429,0.277
0.025039007178438783,0.278
0.025146653053281814,0.279
0.0252509368346108,0.28
0.025351859441933636,0.281
0.025449415297415887,0.282
0.02554359822141612,0.283
0.025634413148997687,0.284
0.02572188399872457,0.285
0.025806055564634604,0.286
0.02588699135134133,0.287
0.02596476969351179,0.288
0.02603948004134145,0.289
0.02611122028505787,0.29
0.026180094888970006,0.291
0.026246212773625373,0.292
0.026309683529792842,0.293
0.0263706110724705,0.294
0.026429086846565614,0.295
0.02648518858976007,0.296
0.026538988107815104,0.297
0.026590563762155746,0.298
0.02664001094427683,0.299
0.026687446971359836,0.3
0.026733009358384734,0.301
0.026776847794043376,0.302
0.02681911215054432,0.303
0.026859942199822767,0.304
0.026899465556751406,0.305
0.026937804244883286,0.306
0.026975083533953222,0.307
0.02701143722484102,0.308
0.02704700741979506,0.309
0.027081938685746557,0.31
0.027116368796709873,0.311
0.027150422483116495,0.312
0.02718421390046229,0.313
0.027217855356188456,0.314
0.027251464667770276,0.315
0.027285166090860957,0.316
0.02731908406360279,0.317
0.027353333783251166,0.318
0.027388017029946865,0.319
0.027423227383463856,0.32
0.027459058786013617,0.321
0.027495609439150474,0.322
0.027532978538312956,0.323
0.027571258115892918,0.324
0.027610526022899026,0.325
0.027650845793279248,0.326
0.02769227244815388,0.327
0.02773485836190059,0.328
0.027778655205727233,0.329
0.0278237115703253,0.33
0.027870067463680467,0.331
0.02791774749588487,0.332
0.027966754953478206,0.333
0.028017068346436518,0.334
0.028068640318024633,0.335
0.0281213981970133,0.336
0.028175245827876384,0.337
0.028230065449140654,0.338
0.028285717946632854,0.339
0.028342042190879286,0.34
0.028398856907928947,0.341
0.02845596724872353,0.342
0.028513174247443134,0.343
0.028570283859348785,0.344
0.028627113330434495,0.345
0.02868349355287254,0.346
0.02873926659485286,0.347
0.028794278250322197,0.348
0.028848367637081238,0.349
0.028901360066485585,0.35
0.02895306929681014,0.351
0.029003307787670483,0.352
0.029051898155511402,0.353
0.02909868089813215,0.354
0.029143516744456106,0.355
0.029186283268794532,0.356
0.02922686590621184,0.357
0.029265145886677803,0.358
0.029300992631351393,0.359
0.029334267818791525,0.36
0.02936483898921236,0.361
0.029392593962255444,0.362
0.029417449365673195,0.363
0.029439350282169468,0.364
0.02945826006368571,0.365
0.029474144473345475,0.366
0.029486962864047395,0.367
0.029496676333319784,0.368
0.02950326665124987,0.369
0.029506752449479607,0.37
0.02950719550562302,0.371
0.02950469622222122,0.372
0.02949938018139393,0.373
0.029491380056452646,0.374
0.029480820408954993,0.375
0.029467813207743308,0.376
0.029452464559937337,0.377
0.02943488551417062,0.378
0.029415200953199893,0.379
0.02939355534954806,0.38
0.02937011580411576,0.381
0.02934507255481435,0.382
0.02931863678702749,0.383
0.02929103524454794,0.384
0.029262501054427,0.385
0.029233262251725647,0.386
0.029203534475450814,0.387
0.029173524693327544,0.388
0.029143444494538644,0.389
0.029113525084865286,0.39
0.029084027870038,0.391
0.029055248131037555,0.392
0.029027511092617832,0.393
0.0290011609612862,0.394
0.02897654567632787,0.395
0.028954003838005733,0.396
0.028933860992696566,0.397
0.0289164352352909,0.398
0.028902044645489823,0.399
0.028891010520236547,0.4
0.028883655619739122,0.401
0.028880299010487057,0.402
0.02888124939866405,0.403
0.028886798651702114,0.404
0.028897216685206988,0.405
0.02891274823682684,0.406
0.028933611395029053,0.407
0.028959997246944775,0.408
0.028992069838736655,0.409
0.02902996593379952,0.41
0.02907379463471219,0.411
0.029123637404658346,0.412
0.029179549273900134,0.413
0.02924156192128279,0.414
0.029309688591180102,0.415
0.02938392976534451,0.416
0.02946427775109247,0.417
0.029550718115267955,0.418
0.02964322656165954,0.419
0.029741763328799655,0.42
0.02984627211649856,0.421
0.029956688275016078,0.422
0.030072952021671828,0.423
0.030195019178470856,0.424
0.03032286547060874,0.425
0.030456483572125777,0.426
0.030595873910629998,0.427
0.03074103205395549,0.428
0.03089193753798772,0.429
0.031048549160505097,0.43
0.031210807144914476,0.431
0.03137863773296229,0.432
0.031551956835090454,0.433
0.031730672842789284,0.434
0.03191468964972394,0.435
0.03210391016737037,0.436
0.03229823967124856,0.437
0.032497587558205344,0.438
0.03270186585288185,0.439
0.032910983217693056,0.44
0.033124835810674325,0.441
0.03334330113625728,0.442
0.03356624062371837,0.443
0.03379350842122145,0.444
0.0340249587263689,0.445
0.034260446765856586,0.446
0.03449982275561552,0.447
0.03474292191514687,0.448
0.034989557441606575,0.449
0.03523952092867201,0.45
0.03549258608377268,0.451
0.03574850873018752,0.452
0.03600702313553892,0.453
0.03626784222813635,0.454
0.03653066654358208,0.455
0.03679519710463713,0.456
0.037061144182863,0.457
0.037328227693962504,0.458
0.037596168454272626,0.459
0.037864674740847294,0.46
0.03813343586813746,0.461
0.03840213050989528,0.462
0.03867044307652632,0.463
0.03893807706379918,0.464
0.03920476069970255,0.465
0.0394702443547633,0.466
0.03973429027293524,0.467
0.03999665714706491,0.468
0.04025708638834738,0.469
0.040515298830168404,0.47
0.04077100304032167,0.471
0.041023907021861,0.472
0.041273725587079764,0.473
0.04152018139748179,0.474
0.0417630004279808,0.475
0.042001903004580184,0.476
0.04223659250187641,0.477
0.042466746976045674,0.478
0.04269202047224491,0.479
0.042912054888408116,0.48
0.04312649569367117,0.481
0.04333500356729001,0.482
0.04353725654480211,0.483
0.043732940198098806,0.484
0.04392173203218038,0.485
0.044103297546736246,0.486
0.044277308403373905,0.487
0.04444347084843072,0.488
0.0446015453551895,0.489
0.04475134768928851,0.49
0.044892730143328924,0.491
0.04502555425328248,0.492
0.04514968119711534,0.493
0.04526499460565895,0.494
0.04537143837147308,0.495
0.04546904306096227,0.496
0.045557928897658626,0.497
0.04563828392702248,0.498
0.04571032725787555,0.499
0.04577428455059139,0.5
0.045830397938974504,0.501
0.04587895935714147,0.502
0.04592033887153052,0.503
0.04595499232243077,0.504
0.04598344754289796,0.505
0.046006274808859465,0.506
0.04602405245468422,0.507
0.04603734408869623,0.508
0.04604669730140894,0.509
0.046052655888262975,0.51
0.04605577128511389,0.511
0.0460566075176352,0.512
0.04605574086265735,0.513
0.04605375632559915,0.514
0.04605124223780323,0.515
0.04604878342213453,0.516
0.04604695287396878,0.517
0.04604630197247757,0.518
0.04604735077886217,0.519
0.04605058228517936,0.52
0.04605644260586829,0.521
0.046065343687195136,0.522
0.04607766413429316,0.523
0.04609374742302637,0.524
0.0461138993075907,0.525
0.04613838656965921,0.526
0.0461674384411689,0.527
0.04620125045719559,0.528
0.04623998880071454,0.529
0.04628379221983726,0.53
0.046332769803209134,0.531
0.04638699741639838,0.532
0.04644651869740808,0.533
0.04651135146006263,0.534
0.046581492561094485,0.535
0.04665691592743386,0.536
0.04673756948447444,0.537
0.04682338231094894,0.538
0.04691428390071673,0.539
0.04701022543541009,0.54
0.0471111922974674,0.541
0.047217202849233475,0.542
0.04732829319865469,0.543
0.04744449455120587,0.544
0.04756581890631731,0.545
0.04769226419681688,0.546
0.04782383101062075,0.547
0.047960535786804426,0.548
0.048102414139305265,0.549
0.04824951555196442,0.55
0.04840189300181837,0.551
0.04855959148825082,0.552
0.04872263867777781,0.553
0.04889103927115448,0.554
0.049064772855628255,0.555
0.049243793531498554,0.556
0.04942802891440826,0.557
0.0496173763630304,0.558
0.049811697047781454,0.559
0.050010813285858796,0.56
0.05021451356300034,0.561
0.050422561980204485,0.562
0.05063470578135731,0.563
0.050850678103409507,0.564
0.05107019636317704,0.565
0.051292958327713106,0.566
0.05151863864408565,0.567
0.05174688811586383,0.568
0.05197733647842267,0.569
0.052209597481071734,0.57
0.05244327357792456,0.571
0.05267795714313012,0.572
0.05291322602026258,0.573
0.0531486337939003,0.574
0.0533837001133366,0.575
0.053617909265437975,0.576
0.053850719431332184,0.577
0.054081576945346564,0.578
0.05430993006904676,0.579
0.05453524157616838,0.58
0.05475700133065115,0.581
0.054974739139629684,0.582
0.05518803608022806,0.583
0.055396529969603564,0.584
0.05559990895060289,0.585
0.055797889946767376,0.586
0.055990193775311996,0.587
0.05617654553073001,0.588
0.05635671454106403,0.589
0.056530572551202654,0.59
0.05669813852770203,0.591
0.056859593023154825,0.592
0.05701525781910722,0.593
0.0571655454424646,0.594
0.05731089882236801,0.595
0.057451757649156644,0.596
0.0575885688524783,0.597
0.05772181535438592,0.598
0.057852031514410124,0.599
0.05797979920890278,0.6
0.0581057319321634,0.601
0.0582304550396175,0.602
0.05835458858223942,0.603
0.05847873621389539,0.604
0.058603480539522045,0.605
0.0587293828472117,0.606
0.05885698386400472,0.607
0.05898680207040291,0.608
0.05911932705331248,0.609
0.05925500979012416,0.61
0.05939425897013561,0.611
0.05953745035497173,0.612
0.05968494390537145,0.613
0.05983709851155589,0.614
0.059994278905426274,0.615
0.06015685318431429,0.616
0.06032518113208267,0.617
0.06049959735102526,0.618
0.06068039946683233,0.619
0.06086785027840876,0.62
0.06106219002294187,0.621
0.061263646830674125,0.622
0.06147243746862359,0.623
0.06168875767115582,0.624
0.061912769152314744,0.625
0.06214459625003334,0.626
0.062384337634189865,0.627
0.06263208359754395,0.628
0.06288792671467097,0.629
0.06315196090904296,0.63
0.0634242688603599,0.631
0.06370490364456187,0.632
0.06399387941563581,0.633
0.06429118108179892,0.634
0.06459678427777864,0.635
0.0649106704826969,0.636
0.06523283035081198,0.637
0.06556325495250068,0.638
0.06590191775068352,0.639
0.06624875440783064,0.64
0.06660365076635044,0.641
0.06696644240255899,0.642
0.06733691710226239,0.643
0.06771481234636768,0.644
0.0680998102116446,0.645
0.06849153498505899,0.646
0.06888955319423559,0.647
0.06929337459471323,0.648
0.06970245829345863,0.649
0.0701162274953096,0.65
0.0705340882052504,0.651
0.07095544400858017,0.652
0.07137970227550483,0.653
0.07180627074861666,0.654
0.07223454580424737,0.655
0.07266389512096576,0.656
0.0730936408492605,0.657
0.07352305418922866,0.658
0.07395136786435534,0.659
0.07437780052308268,0.66
0.07480158285121738,0.661
0.07522197885415832,0.662
0.07563829736331384,0.663
0.07604988901040484,0.664
0.07645612554446095,0.665
0.07685636831882191,0.666
0.07724995118206086,0.667
0.0776361990920789,0.668
0.0780144708256053,0.669
0.07838419724048681,0.67
0.07874489802191169,0.671
0.07909617249142105,0.672
0.07943766609150418,0.673
0.07976902564925474,0.674
0.08008987420087356,0.675
0.080399828297156,0.676
0.08069854385306031,0.677
0.08098576017853926,0.678
0.08126132494331867,0.679
0.08152519432878577,0.68
0.08177740688449375,0.681
0.0820180374638925,0.682
0.08224715486914749,0.683
0.08246481531399104,0.684
0.08267109755559525,0.685
0.08286615144431292,0.686
0.08305023176776087,0.687
0.08322370801037429,0.688
0.08338705012541998,0.689
0.08354079308753931,0.69
0.08368548926791179,0.691
0.08382167109000596,0.692
0.08394984844966137,0.693
0.08407053948890642,0.694
0.08418430864088629,0.695
0.08429179045422953,0.696
0.08439369335311699,0.697
0.08449078494898847,0.698
0.0845838628656459,0.699
0.08467371787727983,0.7
0.08476110291381542,0.701
0.08484672469491722,0.702
0.08493126033891085,0.703
0.0850153821808604,0.704
0.08509977368193196,0.705
0.08518512988538109,0.706
0.08527214202314938,0.707
0.08536147190470368,0.708
0.08545373068070997,0.709
0.08554947424445518,0.71
0.08564920946366192,0.711
0.08575339507631884,0.712
0.08586243236734689,0.713
0.08597665635362546,0.714
0.08609633594782125,0.715
0.08622167645245138,0.716
0.0863528163755735,0.717
0.08648982430300589,0.718
0.08663270328732048,0.719
0.08678139678497566,0.72
0.086935787694458,0.721
0.0870956967505489,0.722
0.08726089379196439,0.723
0.0874311226686726,0.724
0.08760612663054537,0.725
0.087785661086782,0.726
0.08796948723620762,0.727
0.0881573494197508,0.728
0.08834895486241828,0.729
0.088543980027057,0.73
0.08874210606659494,0.731
0.08894306180049329,0.732
0.08914665323841886,0.733
0.08935277067104115,0.734
0.08956137138615013,0.735
0.08977244084207614,0.736
0.08998594781062769,0.737
0.09020182376784121,0.738
0.09041998030547639,0.739
0.09064033941447895,0.74
0.09086284423153361,0.741
0.09108744099998169,0.742
0.09131404671116593,0.743
0.0915425314871982,0.744
0.09177272826782143,0.745
0.09200444713407369,0.746
0.09223747061938609,0.747
0.09247153945819916,0.748
0.09270635639543132,0.749
0.09294161558667656,0.75
0.09317703688855954,0.751
0.09341238422721516,0.752
0.09364746392482669,0.753
0.09388210848876741,0.754
0.09411615317905872,0.755
0.09434941124084338,0.756
0.09458165066270798,0.757
0.09481257480271647,0.758
0.09504181335869714,0.759
0.09526892991560908,0.76
0.09549344311178988,0.761
0.09571485243184605,0.762
0.09593266180565183,0.763
0.09614639739155756,0.764
0.0963556178229371,0.765
0.09655991712610146,0.766
0.09675892205964085,0.767
0.0969522860094021,0.768
0.09713968057994968,0.769
0.0973207841017839,0.77
0.09749526434267138,0.771
0.09766275518428827,0.772
0.09782283916306755,0.773
0.09797505634994448,0.774
0.09811894511691997,0.775
0.09825409749678592,0.776
0.09838020789754828,0.777
0.09849710196493323,0.778
0.09860473797239559,0.779
0.09870317776063123,0.78
0.09879253221623825,0.781
0.09887290333602358,0.782
0.09894435895848042,0.783
0.09900695243310023,0.784
0.09906075717822582,0.785
0.09910588368785202,0.786
0.09914247321399804,0.787
0.09917067731565493,0.788
0.09919063514503268,0.789
0.09920245901039064,0.79
0.09920623400083103,0.791
0.09920203097350518,0.792
0.09918992614837169,0.793
0.0991700167480843,0.794
0.09914242156918888,0.795
0.09910726039221844,0.796
0.0990646250316949,0.797
0.09901457694811176,0.798
0.09895719111562112,0.799
0.09889262210071524,0.8
0.09882115469625749,0.801
0.09874321939089552,0.802
0.09865936863086137,0.803
0.09857021993286484,0.804
0.09847638864514754,0.805
0.09837844973890514,0.806
0.09827694640339506,0.807
0.09817241667325288,0.808
0.0980654040918257,0.809
0.09795644688461766,0.81
0.09784605518049423,0.811
0.09773468656940551,0.812
0.09762272753200012,0.813
0.09751048349272562,0.814
0.09739817567473746,0.815
0.09728594048718703,0.816
0.09717382798744842,0.817
0.09706179939013865,0.818
0.09694972561010252,0.819
0.0968373885169023,0.82
0.09672448875215253,0.821
0.09661066522016735,0.822
0.09649552516891322,0.823
0.096378676117479,0.824
0.09625974801106386,0.825
0.09613839471457968,0.826
0.09601427191788389,0.827
0.09588701042386862,0.828
0.09575621965033823,0.829
0.09562153201140937,0.83
0.09548265863126197,0.831
0.09533942153020522,0.832
0.09519174758675727,0.833
0.09503962570596694,0.834
0.09488304994114782,0.835
0.09472199446906704,0.836
0.09455644354237651,0.837
0.09438644377133572,0.838
0.09421213437242458,0.839
0.09403374022379354,0.84
0.09385153230612903,0.841
0.09366577460664027,0.842
0.09347669343260033,0.843
0.09328449068877576,0.844
0.09308938203305207,0.845
0.09289163009058014,0.846
0.09269156209613721,0.847
0.09248957200710976,0.848
0.09228610725054505,0.849
0.09208164032407942,0.85
0.09187663129302638,0.851
0.09167150064421241,0.852
0.09146663271713552,0.853
0.09126240546239177,0.854
0.09105922222736061,0.855
0.0908575266982261,0.856
0.09065779536039605,0.857
0.09046050937595546,0.858
0.09026611784989634,0.859
0.09007501619754439,0.86
0.08988755113044708,0.861
0.08970403358997188,0.862
0.0895247374872045,0.863
0.08934988878342874,0.864
0.08917966868988803,0.865
0.08901424244301767,0.866
0.08885379784107436,0.867
0.08869857011502062,0.868
0.08854884045056702,0.869
0.08840490813534688,0.87
0.08826705536372022,0.871
0.0881355369324943,0.872
0.08801060323499951,0.873
0.08789252681650327,0.874
0.08778160197894781,0.875
0.08767811704373718,0.876
0.08758232422363778,0.877
0.0874944286757228,0.878
0.08741458949599179,0.879
0.08734291887594067,0.88
0.08727949204105483,0.881
0.08722438133470092,0.882
0.08717769513248357,0.883
0.08713959107668873,0.884
0.08711025377432081,0.885
0.08708985656759216,0.886
0.08707854366053316,0.887
0.08707644439950035,0.888
0.08708369070806306,0.889
0.08710040975836918,0.89
0.08712670029260172,0.891
0.0871626242881036,0.892
0.08720822799935976,0.893
0.08726357158396598,0.894
0.08732874156932556,0.895
0.08740383912551739,0.896
0.08748895179772331,0.897
0.08758412857983291,0.898
0.08768938069441597,0.899
0.08780471067384574,0.9
0.0879301520217195,0.901
0.08806580270826488,0.902
0.08821184494780061,0.903
0.08836854742130885,0.904
0.08853624805116751,0.905
0.08871531895247776,0.906
0.08890612296000541,0.907
0.08910898226162854,0.908
0.08932417568895204,0.909
0.08955195718421162,0.91
0.08979257432210284,0.911
0.09004627495360382,0.912
0.09031330137870343,0.913
0.09059387521486603,0.914
0.0908881774565831,0.915
0.09119632933377766,0.916
0.09151837951450924,0.917
0.09185430115983001,0.918
0.09220399861437802,0.919
0.09256731955326862,0.92
0.092944066029429,0.921
0.0933339982864052,0.922
0.09373682837522755,0.923
0.09415220630188596,0.924
0.09457970702843876,0.925
0.09501882414480287,0.926
0.0954689682241958,0.927
0.09592946947725278,0.928
0.09639958828387282,0.929
0.09687852890702398,0.93
0.09736544384240162,0.931
0.09785942801032044,0.932
0.09835952520190679,0.933
0.09886476679935749,0.934
0.09937423055664692,0.935
0.09988708953434085,0.936
0.10040262916622122,0.937
0.10092022163712333,0.938
0.10143927000122487,0.939
0.10195917273646843,0.94
0.10247935221996728,0.941
0.10299932446680234,0.942
0.10351875253947261,0.943
0.10403745118801708,0.944
0.10455534125192374,0.945
0.10507237653486455,0.946
0.1055884885370777,0.947
0.1061035791731271,0.948
0.10661753978910593,0.949
0.10713025570111503,0.95
0.10764158416029881,0.951
0.10815132258334681,0.952
0.10865918842951683,0.953
0.10916481417027435,0.954
0.10966774843972109,0.955
0.11016746746442332,0.956
0.1106634066165723,0.957
0.11115500483833868,0.958
0.11164174486283154,0.959
0.1121231769603941,0.96
0.11259891870623774,0.961
0.11306862610339093,0.962
0.11353194646255452,0.963
0.11398849275517052,0.964
0.11443787462028214,0.965
0.11487976914766893,0.966
0.11531398489621494,0.967
0.11574048874025068,0.968
0.11615938639666218,0.969
0.11657086126668645,0.97
0.11697509941211406,0.971
0.11737225207164624,0.972
0.11776245950186766,0.973
0.11814589802321446,0.974
0.11852280170097215,0.975
0.11889344412016926,0.976
0.11925809319869585,0.977
0.11961697379061227,0.978
0.11997027135789838,0.979
0.12031817020022663,0.98
0.12066089033976168,0.981
0.12099869826945185,0.982
0.12133188811404057,0.983
0.1216607414945544,0.984
0.12198548707124751,0.985
0.12230628967950226,0.986
0.12262328033786384,0.987
0.12293660733913596,0.988
0.12324648415559412,0.989
0.12355322298009559,0.99
0.12385724783050962,0.991
0.12415908132069013,0.992
0.1244593019932091,0.993
0.12475848428375956,0.994
0.12505715992988858,0.995
0.1253558326264256,0.996
0.12565502651686972,0.997
0.1259553224633664,0.998
0.12625735689519094,0.999
0.1265617835378546,1.0
0.12686921835783482,1.001
0.12718020472450714,1.002
0.12749521625372895,1.003
0.12781467022961523,1.004
0.12813892241653138,1.005
0.12846825490228717,1.006
0.12880288648657776,1.007
0.1291430074335044,1.008
0.12948881049993596,1.009
0.12984049344548593,1.01
0.13019823091596458,1.011
0.1305621377604158,1.012
0.13093225615532086,1.013
0.13130857417914935,1.014
0.13169104953247562,1.015
0.1320796129510955,1.016
0.13247414771317292,1.017
0.13287445939727321,1.018
0.13328026121895292,1.019
0.13369118771921185,1.02
0.13410682038354718,1.021
0.13452670238822123,1.022
0.13495033402345505,1.023
0.13537715175138929,1.024
0.13580650543202258,1.025
0.13623765559916962,1.026
0.1366697971951141,1.027
0.13710209220734984,1.028
0.13753369069498306,1.029
0.13796373100820436,1.03
0.1383913174694218,1.031
0.1388154853694683,1.032
0.13923518123413808,1.033
0.13964927800648294,1.034
0.1400566084196369,1.035
0.14045598587356228,1.036
0.14084619789714098,1.037
0.141225977899425,1.038
0.14159398446207422,1.039
0.14194882082260604,1.04
0.1422890928043423,1.041
0.1426134735097975,1.042
0.1429207465885738,1.043
0.14320981407761507,1.044
0.14347966361008982,1.045
0.14372930496561773,1.046
0.14395771632866602,1.047
0.14416384990304115,1.048
0.14434670031058278,1.049
0.14450539077420077,1.05
0.14463923712044185,1.051
0.1447477765458718,1.052
0.14483076025457123,1.053
0.1448881121739474,1.054
0.14491985854244932,1.055
0.14492604373879234,1.056
0.14490667072980923,1.057
0.14486170514627175,1.058
0.14479113733681206,1.059
0.14469505981918396,1.06
0.14457372619026876,1.061
0.1444275780807187,1.062
0.14425723462826323,1.063
0.14406344287636766,1.064
0.1438469991039392,1.065
0.1436086774526905,1.066
0.14334921470494966,1.067
0.14306935776283344,1.068
0.1427699263412746,1.069
0.1424518453351154,1.07
0.1421161344297055,1.071
0.14176386119025705,1.072
0.14139607611225116,1.073
0.1410137639793178,1.074
0.14061783932908245,1.075
0.14020917672023744,1.076
0.13978864446851202,1.077
0.13935712441207046,1.078
0.13891551801954874,1.079
0.13846474307143078,1.08
0.13800572283795978,1.081
0.13753936689745394,1.082
0.1370665414772671,1.083
0.13658803629682595,1.084
0.1361045531093151,1.085
0.1356167344854069,1.086
0.13512521746666778,1.087
0.13463068357363023,1.088
0.13413388916667507,1.089
0.13363566947662595,1.09
0.13313691410443518,1.091
0.13263851831041368,1.092
0.13214132916706361,1.093
0.1316461208064447,1.094
0.13115361344261386,1.095
0.1306645090116275,1.096
0.13017950996784275,1.097
0.12969931132196555,1.098
0.1292245711788376,1.099
0.1287558753328257,1.1
0.128293719399009,1.101
0.1278385160621893,1.102
0.12739060709585323,1.103
0.12695026015491903,1.104
0.12651765659036374,1.105
0.12609289148795155,1.106
0.12567599196084153,1.107
0.12526693584655857,1.108
0.12486565172693875,1.109
0.12447200046397452,1.11
0.12408575747714379,1.111
0.12370661173573344,1.112
0.12333417147108026,1.113
0.1229679612945451,1.114
0.1226074253753121,1.115
0.12225195964914665,1.116
0.12190096256522862,1.117
0.12155387228987467,1.118
0.12121016733009511,1.119
0.12086933245495265,1.12
0.12053083104974296,1.121
0.12019413451686113,1.122
0.1198588058223446,1.123
0.11952458443326879,1.124
0.11919142671055452,1.125
0.11885948551415745,1.126
0.11852903522926905,1.127
0.1182003780908983,1.128
0.1178737961722634,1.129
0.11754957916198383,1.13
0.11722808337264712,1.131
0.11690976657995882,1.132
0.11659518517213978,1.133
0.11628496282186954,1.134
0.11597974243681715,1.135
0.11568013507091708,1.136
0.11538668361698941,1.137
0.11509985388106597,1.138
0.11482004507234028,1.139
0.11454759861873576,1.14
0.11428279250773765,1.141
0.11402582570928947,1.142
0.1137768097965992,1.143
0.11353577725109515,1.144
0.11330269412578192,1.145
0.11307746037461114,1.146
0.11285990018003139,1.147
0.11264976265617384,1.148
0.112446745484576,1.149
0.11225052853220333,1.15
0.11206079580709631,1.151
0.1118772343971843,1.152
0.11169951093893002,1.153
0.11152724273215535,1.154
0.1113599930930726,1.155
0.11119730196413141,1.156
0.11103873002993654,1.157
0.1108838900484261,1.158
0.1107324551491737,1.159
0.1105841433592751,1.16
0.11043868083183375,1.161
0.11029575779346294,1.162
0.11015500972943358,1.163
0.11001604457306727,1.164
0.10987849603369106,1.165
0.10974207059696678,1.166
0.10960657324834203,1.167
0.10947190838907019,1.168
0.10933805620258281,1.169
0.10920502870061342,1.17
0.10907281825279874,1.171
0.1089413646445087,1.172
0.10881056076618126,1.173
0.10868028657705907,1.174
0.10855044459858959,1.175
0.1084209804521904,1.176
0.1082918839061762,1.177
0.10816317089406302,1.178
0.10803485082643244,1.179
0.10790688855542394,1.18
0.10777917449171023,1.181
0.10765151091054408,1.182
0.10752360860230334,1.183
0.10739508471537122,1.184
0.10726546099766583,1.185
0.10713416446745457,1.186
0.10700053395403512,1.187
0.10686384015262877,1.188
0.10672331971195687,1.189
0.10657820975422777,1.19
0.10642776464721194,1.191
0.10627124328481749,1.192
0.10610787763782502,1.193
0.10593686282968084,1.194
0.10575739480822113,1.195
0.10556872823032518,1.196
0.10537020922797896,1.197
0.10516126146193037,1.198
0.10494133664842402,1.199
0.10470987834454541,1.2
0.10446634424962932,1.201
0.10421027049333174,1.202
0.10394132384780067,1.203
0.1036593093934481,1.204
0.10336413193592796,1.205
0.1030557305356229,1.206
0.10273402572722415,1.207
0.1023989134908117,1.208
0.10205029792623074,1.209
0.10168812664510977,1.21
0.10131240679631838,1.211
0.10092320115916462,1.212
0.10052061090933365,1.213
0.10010475184576799,1.214
0.0996757294974723,1.215
0.09923361606679665,1.216
0.09877842952269275,1.217
0.0983101171929754,1.218
0.09782855388108092,1.219
0.09733356322776265,1.22
0.09682495709537113,1.221
0.09630257962112249,1.222
0.09576634406351589,1.223
0.0952162525315267,1.224
0.09465239163267418,1.225
0.09407490260438667,1.226
0.09348393523317643,1.227
0.0928796120338759,1.228
0.09226203013577008,1.229
0.09163129825147907,1.23
0.09098758051335977,1.231
0.09033112483911376,1.232
0.08966226882907043,1.233
0.08898142292714312,1.234
0.08828903342187025,1.235
0.08758553719275208,1.236
0.08687133531489036,1.237
0.08614680496868828,1.238
0.0854123356777661,1.239
0.08466836157710667,1.24
0.08391537452565193,1.241
0.08315391430445054,1.242
0.082384538454568,1.243
0.08160778926106854,1.244
0.08082418849352806,1.245
0.0800342707162242,1.246
0.07923862882475839,1.247
0.07843793894585163,1.248
0.07763295088951984,1.249
0.07682445012509274,1.25
0.07601321925217028,1.251
0.07520003237029359,1.252
0.07438568315167579,1.253
0.07357101491828909,1.254
0.07275692804377545,1.255
0.07194436347185636,1.256
0.07113427253270875,1.257
0.07032758463676164,1.258
0.06952518211201475,1.259
0.0687278867669925,1.26
0.06793645622031197,1.261
0.06715158414151798,1.262
0.066373901186077,1.263
0.06560397715228523,1.264
0.06484232489756145,1.265
0.06408940524277801,1.266
0.063345631737592,1.267
0.06261137466734228,1.268
0.06188696450166668,1.269
0.06117269547757682,1.27
0.060468829773399284,1.271
0.0597756018099515,1.272
0.05909322112257944,1.273
0.05842187172187412,1.274
0.05776170643219296,1.275
0.05711283811822784,1.276
0.05647533467680365,1.277
0.055849221838722145,1.278
0.05523448774343741,1.279
0.05463108269848349,1.28
0.054038919082867405,1.281
0.053457881043118785,1.282
0.05288784368619917,1.283
0.052328691823638196,1.284
0.05178032883783106,1.285
0.05124267093335435,1.286
0.05071563014444805,1.287
0.050199102532733755,1.288
0.04969297824408911,1.289
0.04919716962567221,1.29
0.0487116391330521,1.291
0.048236413912720856,1.292
0.04777158325457733,1.293
0.047317280157836615,1.294
0.046873653039554986,1.295
0.04644084075323,1.296
0.04601896500742605,1.297
0.04560813972403386,1.298
0.045208481979317476,1.299
0.044820112013251305,1.3
0.04444314210016118,1.301
0.04407766349007689,1.302
0.04372374143905376,1.303
0.04338141735450028,1.304
0.043050709186500745,1.305
0.0427316105596832,1.306
0.042424098023250194,1.307
0.04212814693501651,1.308
0.04184374499677445,1.309
0.04157089358100552,1.31
0.041309596244062156,1.311
0.04105984494184272,1.312
0.04082161782632432,1.313
0.04059488939394253,1.314
0.040379639583615214,1.315
0.04017585101218185,1.316
0.039983496516742975,1.317
0.039802529466817296,1.318
0.039632885973706594,1.319
0.03947449337496873,1.32
0.03932727331437741,1.321
0.03919113567623997,1.322
0.03906596936620722,1.323
0.03895163835075549,1.324
0.0388479834696074,1.325
0.0387548230941027,1.326
0.03867195130485132,1.327
0.03859914049128987,1.328
0.03853615080842415,1.329
0.03848273945427897,1.33
0.03843866198656687,1.331
0.03840366493327695,1.332
0.03837747778609414,1.333
0.03835981505224578,1.334
0.03835038958182038,1.335
0.038348928299973065,1.336
0.03835518249423702,1.337
0.03836893054894144,1.338
0.038389973782920785,1.339
0.038418126641711514,1.34
0.03845320255463795,1.341
0.03849499932411294,1.342
0.038543293192537034,1.343
0.03859784767718818,1.344
0.03865843127261613,1.345
0.03872483366359338,1.346
0.03879687455487707,1.347
0.03887440265747066,1.348
0.03895728444478756,1.349
0.03904538630842303,1.35
0.039138559486188176,1.351
0.03923663700635921,1.352
0.03933944158901004,1.353
0.039446795432948836,1.354
0.03955852598295601,1.355
0.039674467544398365,1.356
0.03979446009095175,1.357
0.039918345816917514,1.358
0.04004596299563808,1.359
0.040177136913995326,1.36
0.040311671644349005,1.361
0.04044935091168179,1.362
0.04058995188734653,1.363
0.040733265647192464,1.364
0.040879115160033314,1.365
0.04102736532888947,1.366
0.04117792262472479,1.367
0.04133072407959171,1.368
0.04148571779424931,1.369
0.04164284147693307,1.37
0.04180201073428218,1.371
0.0419631235960262,1.372
0.042126074334372265,1.373
0.042290766884955644,1.374
0.042457124820840214,1.375
0.04262509763449074,1.376
0.04279466230133349,1.377
0.04296581889507394,1.378
0.04313858011880134,1.379
0.043312956686668694,1.38
0.04348894232731634,1.381
0.04366650239316619,1.382
0.043845568128421955,1.383
0.04402603546029888,1.384
0.044207764974572496,1.385
0.0443905817810956,1.386
0.044574279077814076,1.387
0.04475862893112882,1.388
0.04494339688304442,1.389
0.04512835322226001,1.39
0.04531327602706149,1.391
0.04549794481342548,1.392
0.04568212712215238,1.393
0.04586556392104049,1.394
0.046047960392934704,1.395
0.04622898344794177,1.396
0.04640826392930191,1.397
0.04658540539195656,1.398
0.04676000138434089,1.399
0.046931656308784,1.4
0.04710000140235273,1.401
0.047264699028376975,1.402
0.04742543159347252,1.403
0.04758188037413914,1.404
0.04773371385637008,1.405
0.047880601756887416,1.406
0.04802224655654046,1.407
0.04815841315899991,1.408
0.048288946157202084,1.409
0.04841377222355842,1.41
0.04853288807392752,1.411
0.048646336599671706,1.412
0.04875417626833282,1.413
0.048856453906957996,1.414
0.04895319367512235,1.415
0.04904440449443173,1.416
0.04913009371089175,1.417
0.049210275566129474,1.418
0.049284972619472275,1.419
0.04935421250271382,1.42
0.04941802244858335,1.421
0.04947642347656663,1.422
0.04952942529134975,1.423
0.04957702214660725,1.424
0.049619189364619495,1.425
0.049655880015267294,1.426
0.04968702145981316,1.427
0.049712511929923396,1.428
0.04973221784472083,1.429
0.04974597295353714,1.43
0.04975358035718465,1.431
0.049754817711643924,1.432
0.04974944439416246,1.433
0.04973720755511515,1.434
0.049717842659339886,1.435
0.04969106709949384,1.436
0.04965657576233817,1.437
0.04961405307588182,1.438
0.04956320417003295,1.439
0.04950379209989276,1.44
0.0494356657107761,1.441
0.049358768540400805,1.442
0.04927312509148131,1.443
0.04917880749964443,1.444
0.04907589751722568,1.445
0.048964468645447776,1.446
0.04884459802680808,1.447
0.04871638900444387,1.448
0.04857998261044878,1.449
0.0484355533352607,1.45
0.04828329399481251,1.451
0.048123396261502645,1.452
0.047956033431163954,1.453
0.04778135046047401,1.454
0.04759946365988889,1.455
0.04741046924813129,1.456
0.047214456943598195,1.457
0.04701152262015808,1.458
0.04680177347380953,1.459
0.04658532099397676,1.46
0.046362266349241614,1.461
0.04613269653048454,1.462
0.04589670402430897,1.463
0.045654418471795924,1.464
0.04540603009172973,1.465
0.045151795261900315,1.466
0.04489202390395078,1.467
0.04462705298390616,1.468
0.04435721714628286,1.469
0.04408283416658973,1.47
0.043804213595424475,1.471
0.043521676793311224,1.472
0.04323557306611682,1.473
0.04294628681477197,1.474
0.04265423564317948,1.475
0.04235985991747869,1.476
0.04206360525109322,1.477
0.04176590335281299,1.478
0.041467162015172,1.479
0.041167769392794915,1.48
0.0408681037900158,1.481
0.04056853800158981,1.482
0.04026943571645229,1.483
0.039971142826261095,1.484
0.03967397785589484,1.485
0.03937822571438499,1.486
0.03908413747516307,1.487
0.03879193645447665,1.488
0.038501828400983866,1.489
0.038214012050715875,1.49
0.03792868613489054,1.491
0.03764605011333305,1.492
0.03736629795216299,1.493
0.03708960778340239,1.494
0.03681613459648418,1.495
0.036546011634267545,1.496
0.03627935803808617,1.497
0.036016286253294776,1.498
0.035756905887051424,1.499
0.03550132401696934,1.5
0.03524964282210728,1.501
0.03500195541917375,1.502
0.034758340596972394,1.503
0.03451885691552078,1.504
0.03428353716646313,1.505
0.034052385473348046,1.506
0.03382537844414347,1.507
0.033602468531264446,1.508
0.03338358651197042,1.509
0.0331686413807433,1.51
0.032957518055442864,1.511
0.032750076276594056,1.512
0.0325461547380182,1.513
0.03234558039891168,1.514
0.03214817908882933,1.515
0.03195378326713899,1.516
0.031762233731570805,1.517
0.03157337353001919,1.518
0.03138703827870036,1.519
0.031203055053569448,1.52
0.031021257372352305,1.521
0.03084150830070698,1.522
0.030663718412979463,1.523
0.03048785155050596,1.524
0.03031391684428283,1.525
0.030141949235492835,1.526
0.02997198709190431,1.527
0.02980406089038039,1.528
0.029638198341890392,1.529
0.02947443518296843,1.53
0.029312819681346077,1.531
0.029153408897867193,1.532
0.028996259874961742,1.533
0.028841419204908972,1.534
0.0286889141343458,1.535
0.02853874758377509,1.536
0.02839089689921432,1.537
0.028245314238526636,1.538
0.0281019284833256,1.539
0.027960650148665913,1.54
0.027821378776933654,1.541
0.0276840106398488,1.542
0.027548444759415324,1.543
0.02741458564315176,1.544
0.027282341582041056,1.545
0.027151618278149617,1.546
0.027022310060848334,1.547
0.026894294209766835,1.548
0.026767431642104295,1.549
0.026641570020432735,1.55
0.026516543625988098,1.551
0.026392169469763267,1.552
0.02626824316543605,1.553
0.026144538013400054,1.554
0.026020809752200988,1.555
0.025896808557472287,1.556
0.025772296576031823,1.557
0.025647065624390262,1.558
0.02552094922481614,1.559
0.025393825180268646,1.56
0.025265607810238976,1.561
0.02513623175276755,1.562
0.025005633715750212,1.563
0.024873743710132595,1.564
0.024740491878352075,1.565
0.02460582353399603,1.566
0.02446971225957308,1.567
0.024332167689508282,1.568
0.02419323815948033,1.569
0.024053008668453474,1.57
0.023911594681907823,1.571
0.023769132362490474,1.572
0.02362576594553529,1.573
0.023481635026848236,1.574
0.023336868321731718,1.575
0.02319158811497601,1.576
0.023045921011796634,1.577
0.022900007740133118,1.578
0.02275400843414567,1.579
0.022608102263743022,1.58
0.022462481091989672,1.581
0.022317338929594525,1.582
0.0221728626819628,1.583
0.02202923001833225,1.584
0.02188661349821742,1.585
0.02174518429825662,1.586
0.02160511092289602,1.587
0.021466553872672156,1.588
0.02132966120281564,1.589
0.021194568970646952,1.59
0.021061405034854253,1.591
0.020930291614801304,1.592
0.02080134414326508,1.593
0.0206746673751358,1.594
0.020550352340281672,1.595
0.020428477243925238,1.596
0.02030911133662784,1.597
0.02019231825807158,1.598
0.020078156628211073,1.599
0.01996667757875987,1.6
0.01985792058090577,1.601
0.01975191064004173,1.602
0.01964865877723418,1.603
0.019548163860235224,1.604
0.019450412721683658,1.605
0.019355378592909655,1.606
0.01926302099536326,1.607
0.019173289071051525,1.608
0.01908612629411643,1.609
0.01900147314294956,1.61
0.018919265943867468,1.611
0.018839432924727607,1.612
0.018761892347009534,1.613
0.018686557133391617,1.614
0.01861334415576438,1.615
0.018542182758175596,1.616
0.018473018832715894,1.617
0.01840581311782872,1.618
0.018340533948903236,1.619
0.018277147547279007,1.62
0.018215612465200818,1.621
0.018155882159435997,1.622
0.018097911654773757,1.623
0.018041662073732055,1.624
0.017987100811105237,1.625
0.017934197834840158,1.626
0.017882919579335785,1.627
0.0178332233522174,1.628
0.01778505560201712,1.629
0.017738354310485756,1.63
0.017693052065648078,1.631
0.017649076512641127,1.632
0.017606347909847803,1.633
0.017564777016738618,1.634
0.017524267555592637,1.635
0.017484723745306827,1.636
0.017446059284846032,1.637
0.017408204050471863,1.638
0.017371106472013627,1.639
0.017334730656500926,1.64
0.017299048617234677,1.641
0.017264031506550946,1.642
0.017229647337628103,1.643
0.017195868718908255,1.644
0.017162685395268818,1.645
0.017130114436412318,1.646
0.017098204672160736,1.647
0.01706703432896799,1.648
0.01703670200103526,1.649
0.01700731387216433,1.65
0.01697897400948686,1.651
0.016951783115794438,1.652
0.01692584300803335,1.653
0.01690125986815316,1.654
0.016878142931948257,1.655
0.01685659942729683,1.656
0.016836728464563692,1.657
0.016818617523710232,1.658
0.01680234298353486,1.659
0.016787972017459827,1.66
0.01677556273033415,1.661
0.016765162368974806,1.662
0.016756805921738935,1.663
0.016750517312212367,1.664
0.016746312823175274,1.665
0.01674420466105495,1.666
0.016744203240511613,1.667
0.016746317865428587,1.668
0.0167505559763801,1.669
0.016756921335471568,1.67
0.01676541157634654,1.671
0.01677601549237688,1.672
0.016788710345983376,1.673
0.016803459629379874,1.674
0.01682021201976341,1.675
0.016838901835879713,1.676
0.016859450335041905,1.677
0.01688176712067723,1.678
0.01690575152187957,1.679
0.016931294024638745,1.68
0.01695827777046223,1.681
0.01698658008310502,1.682
0.017016073922686354,1.683
0.017046629073734287,1.684
0.017078112766357897,1.685
0.017110389381653584,1.686
0.01714331899242322,1.687
0.01717675476407685,1.688
0.017210539651942202,1.689
0.017244503380274355,1.69
0.01727846084773506,1.691
0.01731221205159491,1.692
0.017345542449553508,1.693
0.017378223128634577,1.694
0.01741001136059206,1.695
0.017440652583796182,1.696
0.017469884595293705,1.697
0.01749744409528248,1.698
0.0175230748561945,1.699
0.017546535967935976,1.7
0.01756760811778275,1.701
0.017586095862023355,1.702
0.017601824351878653,1.703
0.017614630530480905,1.704
0.01762435339772911,1.705
0.017630832561581225,1.706
0.01763391950126406,1.707
0.017633495193970342,1.708
0.01762948504344305,1.709
0.01762186637802294,1.71
0.017610666786134235,1.711
0.01759595324452859,1.712
0.017577814916311878,1.713
0.017556347507864615,1.714
0.017531648803980875,1.715
0.01750382647789818,1.716
0.017473009277328592,1.717
0.01743935362264792,1.718
0.01740304393985315,1.719
0.017364287926271336,1.72
0.017323308388723736,1.721
0.01728033333994263,1.722
0.017235586615630683,1.723
0.017189282479139638,1.724
0.017141626082506894,1.725
0.017092817220250526,1.726
0.01704305333141459,1.727
0.016992529845843797,1.728
0.01694143774651977,1.729
0.01688995952843873,1.73
0.016838266414497156,1.731
0.016786518963320382,1.732
0.016734869671318018,1.733
0.016683464544920118,1.734
0.01663244219471767,1.735
0.016581931173332308,1.736
0.016532047906707717,1.737
0.016482897063022136,1.738
0.016434573455175853,1.739
0.016387163233749485,1.74
0.016340743346286563,1.741
0.016295379647337287,1.742
0.01625112468975435,1.743
0.016208016235973628,1.744
0.01616607685028007,1.745
0.016125314562967254,1.746
0.016085724843575372,1.747
0.016047293851929267,1.748
0.016010002354063017,1.749
0.015973829505404987,1.75
0.01593875560287899,1.751
0.01590476282610025,1.752
0.015871833200957298,1.753
0.01583994434594145,1.754
0.015809066267279355,1.755
0.01577916299853619,1.756
0.01575019897486796,1.757
0.01572214662648931,1.758
0.015694992311120367,1.759
0.015668739494544913,1.76
0.015643408826198867,1.761
0.01561903498422275,1.762
0.015595660353488154,1.763
0.01557332712850355,1.764
0.015552072687936376,1.765
0.015531932580095933,1.766
0.015512949259370837,1.767
0.015495180947205388,1.768
0.015478706886462766,1.769
0.015463627889984096,1.77
0.015450062402108085,1.771
0.015438139100079957,1.772
0.015427987991838818,1.773
0.015419733409031518,1.774
0.015413492127685915,1.775
0.015409376162902595,1.776
0.01540749655648216,1.777
0.01540796548000333,1.778
0.015410896399416929,1.779
0.015416402967184313,1.78
0.015424597298209903,1.781
0.015435588099411802,1.782
0.015449478882496724,1.783
0.01546636630930114,1.784
0.01548633864659337,1.785
0.015509474320051876,1.786
0.015535840598153194,1.787
0.015565492456247821,1.788
0.015598471649227563,1.789
0.015634805968050152,1.79
0.0156745087081441,1.791
0.01571757861601927,1.792
0.015764000639387814,1.793
0.015813747508320902,1.794
0.015866781926134423,1.795
0.015923059045646525,1.796
0.015982528750368756,1.797
0.01604513713802015,1.798
0.016110826654814548,1.799
0.016179534564019646,1.8
0.016251190015835262,1.801
0.016325711148870926,1.802
0.016403004205039543,1.803
0.016482964863818745,1.804
0.016565479704477453,1.805
0.016650425845969093,1.806
0.016737668991110857,1.807
0.01682706223161588,1.808
0.01691844747942814,1.809
0.01701165848527443,1.81
0.01710652317199532,1.811
0.017202864167757334,1.812
0.01730049743521743,1.813
0.017399229484847907,1.814
0.017498854775972333,1.815
0.01759915559922282,1.816
0.017699905173909007,1.817
0.01780087236430585,1.818
0.017901826135935404,1.819
0.01800253884359089,1.82
0.018102787934058905,1.821
0.018202355832111057,1.822
0.01830102802429415,1.823
0.018398589575422983,1.824
0.01849482042597343,1.825
0.018589490475171312,1.826
0.01868235692190075,1.827
0.01877316603676847,1.828
0.018861658661560157,1.829
0.01894757711957535,1.83
0.019030671992810316,1.831
0.01911070785961758,1.832
0.01918746696233033,1.833
0.01926074966346977,1.834
0.019330370765382736,1.835
0.019396151522340158,1.836
0.019457910254642375,1.837
0.019515458774512388,1.838
0.019568609001736383,1.839
0.019617185109546277,1.84
0.019661033763300903,1.841
0.019700028672024576,1.842
0.019734068069110523,1.843
0.01976306505529626,1.844
0.01978693517054357,1.845
0.019805591080371877,1.846
0.019818949575502343,1.847
0.019826943635679516,1.848
0.019829529661060847,1.849
0.019826686644325686,1.85
0.01981840846357872,1.851
0.01980469254410725,1.852
0.019785530838424804,1.853
0.019760908869175094,1.854
0.019730812719625186,1.855
0.019695238757390803,1.856
0.019654201839179725,1.857
0.01960774042851211,1.858
0.019555917757899274,1.859
0.01949881817208869,1.86
0.019436538232593385,1.861
0.0193691753575984,1.862
0.01929682241087185,1.863
0.019219574421785766,1.864
0.019137542701924345,1.865
0.01905086732786349,1.866
0.01895972329714812,1.867
0.01886431916814052,1.868
0.018764888511386517,1.869
0.018661676600280643,1.87
0.018554928272152646,1.871
0.018444884033053027,1.872
0.01833178512318111,1.873
0.01821588082770518,1.874
0.01809743210989269,1.875
0.017976710481667386,1.876
0.017853993234671996,1.877
0.017729556485384695,1.878
0.01760366817959078,1.879
0.017476584068408182,1.88
0.017348547843060964,1.881
0.017219792870149162,1.882
0.017090542411499886,1.883
0.016961008025422455,1.884
0.016831388363658314,1.885
0.016701870291817078,1.886
0.016572631529475548,1.887
0.016443842486464483,1.888
0.01631566591693386,1.889
0.01618825480267507,1.89
0.01606175077144754,1.891
0.01593628530866182,1.892
0.01581198318836752,1.893
0.015688965588090947,1.894
0.015567351090583966,1.895
0.015447254096488682,1.896
0.015328781529024072,1.897
0.015212030521179141,1.898
0.015097089425492217,1.899
0.014984041122836923,1.9
0.014872965558246944,1.901
0.01476393952106406,1.902
0.014657033973836843,1.903
0.0145523117764333,1.904
0.014449828942146296,1.905
0.014349639046847431,1.906
0.014251797506693123,1.907
0.014156363200980378,1.908
0.014063396821328056,1.909
0.013972956726891752,1.91
0.013885094808131954,1.911
0.013799855594200758,1.912
0.013717279156594759,1.913
0.013637404967062394,1.914
0.01356027399866387,1.915
0.013485928447505246,1.916
0.013414409572933167,1.917
0.013345754424841538,1.918
0.013279992406392339,1.919
0.01321714287023611,1.92
0.01315721461279203,1.921
0.013100206887470251,1.922
0.013046110773563694,1.923
0.012994910178862848,1.924
0.012946582368566772,1.925
0.012901098051827098,1.926
0.01285842102788945,1.927
0.012818507399462215,1.928
0.012781304385482686,1.929
0.012746749009865,1.93
0.012714767456525203,1.931
0.012685275762913839,1.932
0.012658181504690396,1.933
0.012633385498036828,1.934
0.012610782732971108,1.935
0.012590262047708146,1.936
0.0125717046664104,1.937
0.012554982987667685,1.938
0.012539961325332524,1.939
0.012526498474156728,1.94
0.012514450184168828,1.941
0.012503669748219683,1.942
0.012494006354358546,1.943
0.012485303229832897,1.944
0.012477398917223267,1.945
0.012470132460512132,1.946
0.012463349549998984,1.947
0.012456906193063104,1.948
0.012450668169365233,1.949
0.012444506359447388,1.95
0.012438291138866285,1.951
0.012431891619251083,1.952
0.012425182120615838,1.953
0.012418051715504955,1.954
0.012410411402077656,1.955
0.012402196351871285,1.956
0.012393362594686165,1.957
0.012383878825528263,1.958
0.01237371727241823,1.959
0.012362850613987786,1.96
0.012351257733150605,1.961
0.012338932648340396,1.962
0.012325889515377742,1.963
0.012312161018297232,1.964
0.012297791028430892,1.965
0.012282825903571475,1.966
0.012267310922857076,1.967
0.01225129352003304,1.968
0.012234827730952288,1.969
0.012217974321699798,1.97
0.012200796377158717,1.971
0.01218335438029523,1.972
0.0121657054121052,1.973
0.012147906911395107,1.974
0.012130021112964871,1.975
0.012112116847437189,1.976
0.01209426806487569,1.977
0.012076549732404964,1.978
0.012059032824255167,1.979
0.012041781630681283,1.98
0.01202485536427487,1.981
0.012008312230702643,1.982
0.011992212952516826,1.983
0.011976622412495714,1.984
0.011961609188652411,1.985
0.011947243057123889,1.986
0.011933591097248501,1.987
0.011920714150000974,1.988
0.01190866575866708,1.989
0.011897493706233834,1.99
0.011887241951310029,1.991
0.011877951071678558,1.992
0.011869656937432482,1.993
0.011862388410377435,1.994
0.01185616557942586,1.995
0.011850999683795495,1.996
0.011846894238538849,1.997
0.01184384600458411,1.998
0.011841845072356983,1.999
0.01184087406611598,2.0
0.011840906857193986,2.001
0.011841907619698378,2.002
0.011843831100100734,2.003
0.011846624176756793,2.004
0.01185022812125208,2.005
0.011854581094739556,2.006
0.011859620642615717,2.007
0.011865285837252592,2.008
0.01187151849659434,2.009
0.011878262807565983,2.01
0.011885462795715018,2.011
0.011893058504964103,2.012
0.011900984457949347,2.013
0.011909173297189471,2.014
0.011917562765998148,2.015
0.011926102043954211,2.016
0.011934755107863773,2.017
0.011943500332251633,2.018
0.011952326420477053,2.019
0.011961225776958106,2.02
0.01197018792407325,2.021
0.01197919633642354,2.022
0.01198822942451916,2.023
0.01199726271489821,2.024
0.012006269598592858,2.025
0.012015220724432266,2.026
0.012024083356924696,2.027
0.012032821890126576,2.028
0.012041400063794594,2.029
0.012049784464862285,2.03
0.01205794799615941,2.031
0.012065871568442993,2.032
0.012073542548025087,2.033
0.012080950169791311,2.034
0.01208808144536857,2.035
0.012094922136126738,2.036
0.01210146290922256,2.037
0.012107706238497273,2.038
0.012113670179422107,2.039
0.01211938787612117,2.04
0.01212490321284846,2.041
0.012130263950911175,2.042
0.012135515173954213,2.043
0.012140696649647384,2.044
0.012145844924612799,2.045
0.012150997041502756,2.046
0.012156192839584199,2.047
0.012161475229004345,2.048
0.012166888908964385,2.049
0.01217247802802078,2.05
0.012178283214703177,2.051
0.012184338491287389,2.052
0.012190668998393606,2.053
0.012197290445024028,2.054
0.012204210066543628,2.055
0.012211427859272001,2.056
0.012218937132230028,2.057
0.01222672409538149,2.058
0.012234766694715984,2.059
0.012243033738919877,2.06
0.012251485816567901,2.061
0.01226007838803564,2.062
0.012268765908477922,2.063
0.01227750547675513,2.064
0.012286258820660515,2.065
0.01229499170857483,2.066
0.012303670597925918,2.067
0.012312258549976939,2.068
0.012320714657842131,2.069
0.012328999048631769,2.07
0.012337080591794055,2.071
0.012344943310023502,2.072
0.012352589633218364,2.073
0.012360040045904578,2.074
0.012367329232420378,2.075
0.012374499309615913,2.076
0.01238159217617138,2.077
0.012388645271753778,2.078
0.012395693500230827,2.079
0.012402774705103462,2.08
0.01240993426417192,2.081
0.012417226830324743,2.082
0.012424715116629414,2.083
0.012432466209423572,2.084
0.012440546368331529,2.085
0.012449016152488413,2.086
0.012457928232914268,2.087
0.012467328369079668,2.088
0.012477257279958283,2.089
0.012487751174038518,2.09
0.012498840484257591,2.091
0.012510547665107301,2.092
0.012522885889635979,2.093
0.012535859958324876,2.094
0.01254946859341286,2.095
0.012563706404809888,2.096
0.01257856464577195,2.097
0.012594030598646293,2.098
0.012610085684295997,2.099
0.012626703036695218,2.1
0.012643846331586312,2.101
0.012661471051422965,2.102
0.012679527104564216,2.103
0.012697960967042073,2.104
0.012716716514044475,2.105
0.012735734446843843,2.106
0.012754950526162106,2.107
0.012774293108074885,2.108
0.012793680807056475,2.109
0.012813021178545436,2.11
0.0128322104667028,2.111
0.012851133589989492,2.112
0.012869664113596515,2.113
0.01288766480115439,2.114
0.012904988908674605,2.115
0.01292148166845572,2.116
0.012936981393965576,2.117
0.012951319845559448,2.118
0.012964321512733057,2.119
0.012975802153820198,2.12
0.012985568727341149,2.121
0.01299342298217107,2.122
0.01299916832829468,2.123
0.013002617776918222,2.124
0.013003600911214207,2.125
0.01300196815441447,2.126
0.012997590808422317,2.127
0.012990355924748752,2.128
0.012980157630285356,2.129
0.012966891419318342,2.13
0.012950457868577103,2.131
0.01293077409220647,2.132
0.012907785594120707,2.133
0.012881473274714039,2.134
0.012851853955926175,2.135
0.01281897459496783,2.136
0.012782901401159745,2.137
0.012743707367775112,2.138
0.012701465032424123,2.139
0.012656248647865269,2.14
0.012608141561301214,2.141
0.012557241889374344,2.142
0.01250366364475056,2.143
0.012447533600940199,2.144
0.012388985092064047,2.145
0.012328150842917399,2.146
0.012265158051030836,2.147
0.01220012782630134,2.148
0.012133177480237399,2.149
0.012064422533915587,2.15
0.011993976913216148,2.151
0.011921951400418818,2.152
0.01184845107166743,2.153
0.011773573241888949,2.154
0.011697407633914239,2.155
0.011620038929823495,2.156
0.011541550188016402,2.157
0.011462025673307322,2.158
0.011381552469592517,2.159
0.011300220644805514,2.16
0.011218121919915714,2.161
0.011135346995599463,2.162
0.011051982212467386,2.163
0.010968107228115264,2.164
0.010883795393738073,2.165
0.010799116585725271,2.166
0.01071414069385385,2.167
0.01062894033833367,2.168
0.010543592245340678,2.169
0.010458177068358193,2.17
0.01037277764949108,2.171
0.010287475968564445,2.172
0.010202349649099763,2.173
0.010117469806827798,2.174
0.010032901452282868,2.175
0.009948705442954828,2.176
0.00986494004552155,2.177
0.009781661138310627,2.178
0.009698921017466488,2.179
0.009616766435458038,2.18
0.009535237308271462,2.181
0.009454367181086734,2.182
0.009374184807500604,2.183
0.009294715330769573,2.184
0.009215980215470251,2.185
0.009137996058382244,2.186
0.009060773427567427,2.187
0.008984317216072306,2.188
0.0089086286822835,2.189
0.008833707856145496,2.19
0.008759555040947739,2.191
0.008686170952957564,2.192
0.008613555528213678,2.193
0.008541705775964803,2.194
0.008470613735022996,2.195
0.008400266024553578,2.196
0.008330645439413512,2.197
0.00826173344638821,2.198
0.008193512315407499,2.199
0.008125966427811196,2.2
0.008059082694298118,2.201
0.007992850089051314,2.202
0.007927258387235235,2.203
0.007862296278316038,2.204
0.007797949167993848,2.205
0.007734197343673552,2.206
0.0076710154280337575,2.207
0.0076083733979039085,2.208
0.0075462384938006785,2.209
0.007484577363701038,2.21
0.007423358301838525,2.211
0.007362553521617788,2.212
0.007302141188920805,2.213
0.0072421067635509056,2.214
0.007182443143816496,2.215
0.007123149231212487,2.216
0.007064226825718563,2.217
0.00700567686743926,2.218
0.0069474976822606295,2.219
0.006889686893030787,2.22
0.006832245258521729,2.221
0.006775179786913527,2.222
0.006718505142388691,2.223
0.006662243445371613,2.224
0.006606422854901922,2.225
0.006551075461341752,2.226
0.006496234988447313,2.227
0.006441934647215741,2.228
0.006388205281207938,2.229
0.006335073854297082,2.23
0.006282562521641025,2.231
0.0062306886878096815,2.232
0.00617946609219377,2.233
0.006128906441687755,2.234
0.006079021069389402,2.235
0.006029822308133988,2.236
0.005981324368791444,2.237
0.005933543593168307,2.238
0.005886498087575127,2.239
0.005840206873847485,2.24
0.005794688754425711,2.241
0.0057499610569400565,2.242
0.005706038341328557,2.243
0.005662931244529022,2.244
0.005620645959272702,2.245
0.0055791847335090895,2.246
0.005538547125659652,2.247
0.005498731511268469,2.248
0.005459736611459567,2.249
0.005421562939260182,2.25
0.005384213970610771,2.251
0.0053476967626050545,2.252
0.0053120217496778616,2.253
0.005277201573642657,2.254
0.00524324907473886,2.255
0.005210175216880233,2.256
0.005177988324722241,2.257
0.005146695212801871,2.258
0.005116303191701604,2.259
0.005086821720181646,2.26
0.005058263307375572,2.261
0.005030643698196832,2.262
0.005003981434255825,2.263
0.004978296917521024,2.264
0.004953611122107784,2.265
0.004929944103685773,2.266
0.004907313525434931,2.267
0.004885733617814614,2.268
0.00486521496772395,2.269
0.0048457650038641305,2.27
0.004827388600484324,2.271
0.004810088376143925,2.272
0.004793864606589613,2.273
0.004778714817013596,2.274
0.004764633179627626,2.275
0.0047516099450986785,2.276
0.004739631144903442,2.277
0.004728678553957778,2.278
0.004718729781158555,2.279
0.004709758651417058,2.28
0.004701736151429971,2.281
0.004694631869522252,2.282
0.004688415630787795,2.283
0.004683059057350425,2.284
0.004678536808175705,2.285
0.004674827246768465,2.286
0.004671912318178242,2.287
0.004669776507376273,2.288
0.0046684049703433475,2.289
0.004667781586737257,2.29
0.004667888374593337,2.291
0.004668706939868985,2.292
0.004670220933304033,2.293
0.0046724181445187115,2.294
0.004675291655881153,2.295
0.004678839941637036,2.296
0.00468306593465067,2.297
0.004687975216256188,2.298
0.004693573679546294,2.299
0.004699865439120211,2.3
0.004706851966820511,2.301
0.004714532551256159,2.302
0.004722905015435304,2.303
0.004731965728358946,2.304
0.004741708863029242,2.305
0.004752125548508969,2.306
0.004763203675804959,2.307
0.004774928412020843,2.308
0.004787282686631024,2.309
0.0048002470310039395,2.31
0.004813799025709625,2.311
0.004827913357096057,2.312
0.0048425630880592615,2.313
0.0048577215799456555,2.314
0.004873364119129092,2.315
0.004889468732125931,2.316
0.00490601601242387,2.317
0.00492298795856726,2.318
0.004940366117890457,2.319
0.004958129892501208,2.32
0.004976256081813789,2.321
0.004994719761623793,2.322
0.0050134954369152355,2.323
0.005032557539434698,2.324
0.005051880155236597,2.325
0.005071436286703313,2.326
0.005091197005569232,2.327
0.005111130761664867,2.328
0.00513120294910726,2.329
0.005151375689006081,2.33
0.005171607722976261,2.331
0.005191854330307566,2.332
0.005212067250110496,2.333
0.005232194662193344,2.334
0.0052521813224802845,2.335
0.005271968945318394,2.336
0.0052914968694756665,2.337
0.005310702931651521,2.338
0.00532952431045212,2.339
0.005347897939509991,2.34
0.005365760002738635,2.341
0.00538304472374405,2.342
0.0053996842708129615,2.343
0.0054156115380281054,2.344
0.0054307651226049225,2.345
0.00544509441808115,2.346
0.005458563258681274,2.347
0.005471151149259465,2.348
0.005482851561327332,2.349
0.005493667382842966,2.35
0.0055036052023454156,2.351
0.005512672341926327,2.352
0.005520879035088814,2.353
0.005528243230800891,2.354
0.0055347941498045785,2.355
0.005540573129705138,2.356
0.005545631929206135,2.357
0.00555002917216176,2.358
0.0055538259863873295,2.359
0.0055570822565386676,2.36
0.0055598547839570195,2.361
0.005562197266700342,2.362
0.005564160655868147,2.363
0.005565792862947834,2.364
0.005567137945940134,2.365
0.005568235307539515,2.366
0.0055691193222908416,2.367
0.005569819589610254,2.368
