VaMe,time
0.0004916768293924246,0.001
0.0006858101729962765,0.002
0.0008812306617593478,0.003
0.0010778142502784781,0.004
0.001275441964185707,0.005
0.0014740017472395172,0.006
0.0016733895715282908,0.007
0.0018735097672259225,0.008
0.0020742746832761528,0.009
0.002275603904912747,0.01
0.0024774232933456397,0.011
0.0026796640842628697,0.012
0.002882262207728603,0.013
0.0030851578809665305,0.014
0.0032882953728504663,0.015
0.0034916226566076894,0.016
0.0036950905087787204,0.017
0.003898650919621018,0.018
0.0041022559136021375,0.019
0.004305858642686166,0.02
0.0045094171280570285,0.021
0.004712898888376475,0.022
0.004916284267004387,0.023
0.005119566980170844,0.024
0.005322751139510592,0.025
0.005525846055469203,0.026
0.005728863437435054,0.027
0.005931820486621797,0.028
0.006134746356740398,0.029
0.006337687004411699,0.03
0.006540705955171455,0.031
0.006743880775839568,0.032
0.006947296695899508,0.033
0.007151041047251822,0.034
0.007355202119881668,0.035
0.007559871833796879,0.036
0.00776514823130232,0.037
0.00797113500727479,0.038
0.008177938179243246,0.039
0.008385662066697249,0.04
0.008594407280607043,0.041
0.008804271031713414,0.042
0.009015347335259109,0.043
0.009227726178758557,0.044
0.009441494056143397,0.045
0.009656737581560378,0.046
0.009873548357838541,0.047
0.010092026190447953,0.048
0.010312279229124166,0.049
0.0105344210110382,0.05
0.010758565492964485,0.051
0.01098482248782502,0.052
0.011213295973052985,0.053
0.011444085256689404,0.054
0.01167728671628247,0.055
0.011912994478400843,0.056
0.012151300051282022,0.057
0.012392291416793976,0.058
0.012636051872586956,0.059
0.01288265866451561,0.06
0.013132181329462806,0.061
0.013384679851133991,0.062
0.013640203177947171,0.063
0.013898788627731898,0.064
0.014160461829212259,0.065
0.014425236450571985,0.066
0.014693113932983833,0.067
0.014964084130491946,0.068
0.015238126925521765,0.069
0.01551521394814734,0.07
0.015795309598679554,0.071
0.016078371033092762,0.072
0.0163643470765719,0.073
0.016653176229652452,0.074
0.016944784344527845,0.075
0.017239083153935953,0.076
0.017535970446990998,0.077
0.017835331267118053,0.078
0.018137038995122305,0.079
0.018440955863279332,0.08
0.018746933042100303,0.081
0.019054810664303354,0.082
0.01936441820271593,0.083
0.019675575464761827,0.084
0.019988094101221387,0.085
0.020301779073183604,0.086
0.020616429179485914,0.087
0.020931835679855126,0.088
0.02124777905844463,0.089
0.021564026600400986,0.09
0.021880334508857745,0.091
0.022196454908756744,0.092
0.02251214429819239,0.093
0.022827169826830147,0.094
0.023141311251157624,0.095
0.023454357462706,0.096
0.023766098265204934,0.097
0.024076316151456084,0.098
0.02438478524100555,0.099
0.024691278991822184,0.1
0.024995580315312814,0.101
0.02529748730037561,0.102
0.025596812145585145,0.103
0.0258933737397017,0.104
0.026186986752080168,0.105
0.02647745335058253,0.106
0.02676456261531676,0.107
0.0270480957957297,0.108
0.02732783140707986,0.109
0.027603546620314924,0.11
0.027875014615189677,0.111
0.02814199874174923,0.112
0.02840424623385911,0.113
0.028661486739506473,0.114
0.028913438555196902,0.115
0.029159819118243356,0.116
0.029400354140601395,0.117
0.029634781810530166,0.118
0.029862850017590918,0.119
0.030084307149187587,0.12
0.030298893489887336,0.121
0.030506343688424333,0.122
0.03070640236994306,0.123
0.03089884376345302,0.124
0.031083485283427238,0.125
0.03126019010038654,0.126
0.03142885725293802,0.127
0.03158940259246406,0.128
0.0317417427557805,0.129
0.03188579635336671,0.13
0.03202150226327684,0.131
0.03214884076164059,0.132
0.03226784497948053,0.133
0.03237859845748772,0.134
0.03248121923009293,0.135
0.032575836833176566,0.136
0.03266257774113717,0.137
0.03274157114496375,0.138
0.03281296816137602,0.139
0.0328769585137148,0.14
0.032933776044488064,0.141
0.032983692126220265,0.142
0.03302699910455499,0.143
0.033063990001841875,0.144
0.03309494640452209,0.145
0.03312014238194635,0.146
0.03313985822543138,0.147
0.033154392484391844,0.148
0.033164066801648996,0.149
0.03316922295926262,0.15
0.033170213018524956,0.151
0.03316738546808016,0.152
0.03316107412132234,0.153
0.03315159663109955,0.154
0.03313926159803885,0.155
0.033124376251521516,0.156
0.03310724847370955,0.157
0.03308818190707797,0.158
0.033067466946693234,0.159
0.0330453746482963,0.16
0.03302215939798834,0.161
0.032998067996478524,0.162
0.03297334825634384,0.163
0.03294825288490378,0.164
0.03292303764743333,0.165
0.032897954100162156,0.166
0.03287323969191779,0.167
0.03284911224534743,0.168
0.032825774190215325,0.169
0.03280342342221167,0.17
0.03278226383754547,0.171
0.03276251170992627,0.172
0.03274439683043003,0.173
0.032728158282414294,0.174
0.0327140355216142,0.175
0.03270225713137613,0.176
0.032693032396218284,0.177
0.032686550308094656,0.178
0.03268298461561398,0.179
0.03268249925088366,0.18
0.0326852503385981,0.181
0.03269138420304205,0.182
0.03270103205627301,0.183
0.03271430344977467,0.184
0.032731282630658706,0.185
0.03275203017256231,0.186
0.032776587033260154,0.187
0.03280497678937009,0.188
0.03283720449370898,0.189
0.03287325304311778,0.19
0.03291307998241034,0.191
0.0329566180738451,0.192
0.03300377997654553,0.193
0.03305446451315415,0.194
0.03310856232247883,0.195
0.033165960046956926,0.196
0.03322654255520133,0.197
0.033290192578376,0.198
0.03335678715711856,0.199
0.03342619092112916,0.2
0.03349824893241045,0.201
0.03357278502109605,0.202
0.0336496087712036,0.203
0.033728527285754324,0.204
0.03380935602478168,0.205
0.03389192582298704,0.206
0.03397608480368253,0.207
0.03406169432599311,0.208
0.03414861868486161,0.209
0.0342367119586322,0.21
0.03432581219172182,0.211
0.03441575062918935,0.212
0.0345063705999891,0.213
0.03459754504310536,0.214
0.034689186167104154,0.215
0.03478124436307646,0.216
0.034873695237302174,0.217
0.0349665197050271,0.218
0.035059692250551916,0.219
0.035153189399778816,0.22
0.03524701121321696,0.221
0.035341199312461456,0.222
0.03543584224540947,0.223
0.035531066758800044,0.224
0.03562701811437623,0.225
0.0357238392594195,0.226
0.035821662830513946,0.227
0.035920619870361506,0.228
0.03602085361133335,0.229
0.03612252601997385,0.23
0.036225813923597944,0.231
0.03633089664997527,0.232
0.03643794094995907,0.233
0.036547093353787405,0.234
0.0366584850092206,0.235
0.03677224209644477,0.236
0.03688849273386068,0.237
0.037007367662480424,0.238
0.03712899556761184,0.239
0.03725349441460885,0.24
0.03738096159824645,0.241
0.03751146831762141,0.242
0.03764506199000136,0.243
0.03778177403869105,0.244
0.037921627691151295,0.245
0.038064643129901904,0.246
0.038210839700588375,0.247
0.038360235551217585,0.248
0.0385128452376531,0.249
0.038668675735427684,0.25
0.03882772109755702,0.251
0.038989955891750125,0.252
0.03915532831394337,0.253
0.03932375568331677,0.254
0.039495124872997424,0.255
0.039669296888101994,0.256
0.039846112804699865,0.257
0.04002539966670815,0.258
0.040206976494528285,0.259
0.040390660604664064,0.26
0.04057627370433902,0.261
0.04076364633981301,0.262
0.040952618634971454,0.263
0.041143035207368395,0.264
0.041334734202146124,0.265
0.04152753673520077,0.266
0.04172124766191096,0.267
0.041915670888898166,0.268
0.042110629840755566,0.269
0.04230598180700551,0.27
0.042501620633968375,0.271
0.042697466387979,0.272
0.04289344560766187,0.273
0.04308947460195549,0.274
0.043285459645825315,0.275
0.0434813131542241,0.276
0.043676971133232594,0.277
0.043872399795244064,0.278
0.044067588215125936,0.279
0.04426253035468967,0.28
0.04445720679789918,0.281
0.04465157916255326,0.282
0.04484559897332448,0.283
0.04503921930808906,0.284
0.04523239869444453,0.285
0.04542509553198678,0.286
0.04561725582816522,0.287
0.04580879963589376,0.288
0.04599961393864901,0.289
0.04618955520390256,0.29
0.04637845616068125,0.291
0.04656613041025097,0.292
0.046752373429638346,0.293
0.046936960860791264,0.294
0.04711964482122235,0.295
0.04730014845531078,0.296
0.04747815991317158,0.297
0.04765333025570837,0.298
0.047825279705065636,0.299
0.04799361096494359,0.3
0.04815792465444256,0.301
0.048317832583143594,0.302
0.04847296536007957,0.303
0.04862297112459804,0.304
0.04876750335416401,0.305
0.04890620274780167,0.306
0.04903869027417465,0.307
0.04916458417638436,0.308
0.04928353167759337,0.309
0.04939523744890099,0.31
0.049499479081324946,0.311
0.04959610609876368,0.312
0.049685021864805105,0.313
0.04976615337948769,0.314
0.04983942482871408,0.315
0.04990475445252757,0.316
0.04996207647426597,0.317
0.050011369492126756,0.318
0.050052674015047816,0.319
0.050086093542645455,0.32
0.05011177973250274,0.321
0.05012990547026949,0.322
0.050140637041482826,0.323
0.05014412294106714,0.324
0.05014050520374854,0.325
0.050129938097415165,0.326
0.0501125966592713,0.327
0.05008866944580453,0.328
0.05005834049670676,0.329
0.0500217758434435,0.33
0.04997912909884115,0.331
0.04993056241586092,0.332
0.04987626627424106,0.333
0.049816466106392274,0.334
0.04975141223762255,0.335
0.04968135830162424,0.336
0.049606545609614576,0.337
0.04952721036438238,0.338
0.04944360953184394,0.339
0.049356046563462194,0.34
0.04926488385853839,0.341
0.04917053874860125,0.342
0.04907346479505718,0.343
0.048974124528595876,0.344
0.048872966180776994,0.345
0.048770417425744714,0.346
0.04866689592256623,0.347
0.04856282382726636,0.348
0.048458636359336324,0.349
0.04835478311932936,0.35
0.04825172390790161,0.351
0.048149920426093167,0.352
0.04804982458859328,0.353
0.04795186549434102,0.354
0.04785644127487262,0.355
0.04776392179102827,0.356
0.04767465973705671,0.357
0.04758900168054697,0.358
0.04750729280732952,0.359
0.04742987341341212,0.36
0.04735706842323644,0.361
0.04728917573926857,0.362
0.047226462004150524,0.363
0.04716916819568469,0.364
0.04711751815191762,0.365
0.04707172287138117,0.366
0.047031978888502475,0.367
0.046998461768945426,0.368
0.04697131735813581,0.369
0.04695065603390665,0.37
0.04693655406604691,0.371
0.04692905998450077,0.372
0.0469282003866093,0.373
0.04693398165397913,0.374
0.04694638665112962,0.375
0.04696536804146591,0.376
0.04699084367352929,0.377
0.04702269895905928,0.378
0.04706079416277852,0.379
0.04710497007970946,0.38
0.04715504775400866,0.381
0.047210822533453704,0.382
0.04727205806183238,0.383
0.04733848721087333,0.384
0.04740981989097382,0.385
0.047485750155900334,0.386
0.047565955506385815,0.387
0.047650089289504566,0.388
0.047737777768546534,0.389
0.047828632429523336,0.39
0.0479222729204386,0.391
0.04801834776360638,0.392
0.048116544233307544,0.393
0.04821658363489532,0.394
0.04831820283901843,0.395
0.04842113369658584,0.396
0.04852510089545054,0.397
0.04862984658343117,0.398
0.04873516715276308,0.399
0.048840943328101113,0.4
0.04894715472718857,0.401
0.049053876345299424,0.402
0.04916125716057355,0.403
0.049269485284394586,0.404
0.04937875397339437,0.405
0.049489250757993236,0.406
0.04960117711567257,0.407
0.04971478035629526,0.408
0.049830376355226316,0.409
0.04994835528427948,0.41
0.05006917051214757,0.411
0.05019331390052216,0.412
0.0503212847687774,0.413
0.05045356498927203,0.414
0.05059061070425919,0.415
0.05073285738905667,0.416
0.05088072512319597,0.417
0.05103461624910228,0.418
0.05119490670178943,0.419
0.051361935693059586,0.42
0.05153599809878741,0.421
0.05171734190075683,0.422
0.05190617116900453,0.423
0.052102654142921874,0.424
0.05230693438812215,0.425
0.05251914133887564,0.426
0.052739396278020254,0.427
0.05296781064433889,0.428
0.0532044767049476,0.429
0.05344945788753257,0.43
0.05370279016938703,0.431
0.0539644972261512,0.432
0.05423461001492627,0.433
0.05451318076849517,0.434
0.05480028729137835,0.435
0.05509602696844761,0.436
0.05540050150692833,0.437
0.05571379683175778,0.438
0.0560359682253609,0.439
0.056367039573857254,0.44
0.05670701360111037,0.441
0.05705588230239104,0.442
0.057413631418156946,0.443
0.057780239559820416,0.444
0.058155674988666334,0.445
0.05853989276230015,0.446
0.058932833586909365,0.447
0.05933442401297839,0.448
0.059744576415427665,0.449
0.06016318700072907,0.45
0.06059013083900069,0.451
0.06102525410624099,0.452
0.06146836463964597,0.453
0.06191922290037737,0.454
0.06237753684585929,0.455
0.06284296344451472,0.456
0.06331511616752165,0.457
0.06379357628238964,0.458
0.06427790689520305,0.459
0.06476766911132463,0.46
0.06526243882940998,0.461
0.06576182164457449,0.462
0.06626546252110997,0.463
0.06677304653301117,0.464
0.06728428737283006,0.465
0.06779890387586579,0.466
0.06831659640231845,0.467
0.06883704497931346,0.468
0.06935993724654804,0.469
0.06988500809555874,0.47
0.07041206774151611,0.471
0.070941006908827,0.472
0.0714717773138893,0.473
0.07200435368176687,0.474
0.07253869524826687,0.475
0.07307472849571174,0.476
0.07361235323469245,0.477
0.07415145127194293,0.478
0.07469188097680564,0.479
0.07523346057370264,0.48
0.07577595360626384,0.481
0.0763190633842341,0.482
0.07686243204276261,0.483
0.07740564561813837,0.484
0.07794825408916414,0.485
0.07848980394203985,0.486
0.07902986956076782,0.487
0.07956807142143815,0.488
0.08010407395009295,0.489
0.08063756117208555,0.49
0.08116820288292717,0.491
0.0816956426769773,0.492
0.08221952667247177,0.493
0.08273955306793516,0.494
0.08325551099211619,0.495
0.08376729385975627,0.496
0.08427488481402705,0.497
0.08477831741379545,0.498
0.08527762578390385,0.499
0.08577281353681823,0.5
0.08626386142228276,0.501
0.08675075907737069,0.502
0.08723353315155408,0.503
0.08771225966798801,0.504
0.08818706112046282,0.505
0.08865809142839634,0.506
0.08912551171883484,0.507
0.08958946074604686,0.508
0.09005003023251068,0.509
0.0905072611665731,0.51
0.09096116593487406,0.511
0.09141176195824446,0.512
0.09185909914596103,0.513
0.09230327180154786,0.514
0.09274441122405536,0.515
0.09318265881408215,0.516
0.09361812951167643,0.517
0.09405089030231066,0.518
0.09448097114614276,0.519
0.09490839457521262,0.52
0.09533319798569209,0.521
0.09575543626788814,0.522
0.09617516456559985,0.523
0.0965924085682682,0.524
0.09700713913612596,0.525
0.09741926661583258,0.526
0.09782865038106511,0.527
0.09823510389278849,0.528
0.09863838632047726,0.529
0.09903819592504998,0.53
0.099434185466863,0.531
0.09982599768374195,0.532
0.10021330052694959,0.533
0.1005958047123246,0.534
0.10097325554986598,0.535
0.10134540146573531,0.536
0.10171196081102794,0.537
0.10207262018606213,0.538
0.10242707366756397,0.539
0.10277507742175752,0.54
0.10311649211179787,0.541
0.10345130343138559,0.542
0.10377962052780404,0.543
0.10410165401985426,0.544
0.10441767612400873,0.545
0.10472796925068867,0.546
0.10503278210964108,0.547
0.10533231966418737,0.548
0.10562677122437115,0.549
0.10591635115380545,0.55
0.10620132718187536,0.551
0.10648202914864485,0.552
0.10675884045050507,0.553
0.10703217712674021,0.554
0.1073024606350786,0.555
0.10757008970576186,0.556
0.1078354145393106,0.557
0.10809871498257291,0.558
0.10836018633134349,0.559
0.10861993874304994,0.56
0.10887801075719936,0.561
0.10913438828390414,0.562
0.10938901838616404,0.563
0.1096418107000012,0.564
0.10989262458315381,0.565
0.11014125134774584,0.566
0.11038741048033807,0.567
0.11063076642096224,0.568
0.11087094897420466,0.569
0.1111075566059351,0.57
0.11134014056643494,0.571
0.1115681927595568,0.572
0.11179116352426458,0.573
0.11200850527717682,0.574
0.1122197130080239,0.575
0.11242433820573683,0.576
0.11262196880160831,0.577
0.11281218538088332,0.578
0.11299452576836347,0.579
0.11316848837151482,0.58
0.11333356787526778,0.581
0.11348929211314725,0.582
0.1136352407966909,0.583
0.11377104494889138,0.584
0.11389637170957183,0.585
0.11401089849090715,0.586
0.11411427896350662,0.587
0.11420611013606527,0.588
0.11428592369516073,0.589
0.11435321659945419,0.59
0.11440750544111905,0.591
0.1144483777528155,0.592
0.11447552457309015,0.593
0.11448874775086502,0.594
0.11448794088716809,0.595
0.11447304812877068,0.596
0.11444401099575847,0.597
0.11440072422665774,0.598
0.11434302615452048,0.599
0.11427072851027205,0.6
0.11418366450501292,0.601
0.11408173419485836,0.602
0.11396493910543837,0.603
0.11383340208213019,0.604
0.11368736721546076,0.605
0.11352717510629409,0.606
0.11335321249579071,0.607
0.11316585353785184,0.608
0.11296543534932879,0.609
0.112752291419684,0.61
0.11252681031422661,0.611
0.11228947261574658,0.612
0.11204084744241194,0.613
0.11178155133943939,0.614
0.11151218939638652,0.615
0.11123331634717624,0.616
0.11094543951269825,0.617
0.11064904228872557,0.618
0.11034459635331739,0.619
0.11003255470904519,0.62
0.10971333321619145,0.621
0.10938728836024476,0.622
0.10905469788244215,0.623
0.10871575502104491,0.624
0.1083705862917575,0.625
0.10801929064835628,0.626
0.10766198823933187,0.627
0.10729886507306247,0.628
0.10693019934575745,0.629
0.10655635719168227,0.63
0.10617775381502917,0.631
0.10579479924759029,0.632
0.10540787577896674,0.633
0.10501737405013223,0.634
0.10462375716440768,0.635
0.10422760773609056,0.636
0.10382964072984269,0.637
0.10343068373033945,0.638
0.10303163279204958,0.639
0.10263339613488913,0.64
0.10223684183569215,0.641
0.1018427674956854,0.642
0.10145189694906033,0.643
0.10106489012086324,0.644
0.1006823532828411,0.645
0.10030485016192088,0.646
0.09993291778677339,0.647
0.09956708650013942,0.648
0.09920789914583546,0.649
0.09885592243909172,0.65
0.09851174477632856,0.651
0.09817595865755055,0.652
0.09784913124792416,0.653
0.09753177396344664,0.654
0.09722432609098781,0.655
0.09692715585634713,0.656
0.09664056539128275,0.657
0.09636478784463465,0.658
0.09609997829738968,0.659
0.09584620654072774,0.66
0.09560345918545858,0.661
0.09537165515068276,0.662
0.09515067348266941,0.663
0.09494038756029867,0.664
0.09474069686963102,0.665
0.09455154762558261,0.666
0.09437293628995795,0.667
0.09420489421068728,0.668
0.09404745561276051,0.669
0.0939006202634333,0.67
0.09376433546632744,0.671
0.09363851309659829,0.672
0.09352306713019634,0.673
0.09341794735364108,0.674
0.09332315763329559,0.675
0.09323875590619742,0.676
0.09316483692136834,0.677
0.093101503122987,0.678
0.09304883219714323,0.679
0.09300685017587806,0.68
0.09297551642949486,0.681
0.09295472255203503,0.682
0.09294430258520675,0.683
0.09294404822662194,0.684
0.09295372016516952,0.685
0.09297304616281316,0.686
0.09300170715457112,0.687
0.09303933561787656,0.688
0.09308554975769447,0.689
0.09314001291109326,0.69
0.09320248832413511,0.691
0.0932728684449304,0.692
0.09335116905143752,0.693
0.09343748693683904,0.694
0.09353193823954625,0.695
0.09363461866722567,0.696
0.09374561315830014,0.697
0.09386503131995859,0.698
0.09399302718176149,0.699
0.09412978775821684,0.7
0.09427549839189393,0.701
0.09443030521808975,0.702
0.09459429776943433,0.703
0.09476751593610974,0.704
0.09494996282815733,0.705
0.09514160655193496,0.706
0.09534236898055809,0.707
0.095552111879739,0.708
0.09577063790877587,0.709
0.09599771469670068,0.71
0.09623311042052397,0.711
0.09647662334260271,0.712
0.09672809425233862,0.713
0.09698739588295287,0.714
0.09725440180330189,0.715
0.09752895682999659,0.716
0.09781088031807843,0.717
0.09810000682857237,0.718
0.09839623468519829,0.719
0.09869955226302224,0.72
0.09901003003390763,0.721
0.09932778038731005,0.722
0.09965290683397877,0.723
0.0999854833834732,0.724
0.10032558255668757,0.725
0.1006733220031921,0.726
0.10102889117327428,0.727
0.10139254521692757,0.728
0.10176457001038838,0.729
0.10214523388891335,0.73
0.10253475533647412,0.731
0.10293330474820167,0.732
0.10334102409135233,0.733
0.1037580370977024,0.734
0.104184440562903,0.735
0.10462028235336704,0.736
0.10506553675441561,0.737
0.10552008757031604,0.738
0.10598372322641465,0.739
0.10645614413216546,0.74
0.10693698351117485,0.741
0.10742583887422325,0.742
0.10792230472818064,0.743
0.10842599577031294,0.744
0.10893655162845686,0.745
0.10945361754886211,0.746
0.10997680909713357,0.747
0.11050569254956948,0.748
0.11103980863473142,0.749
0.11157872733458703,0.75
0.11212210023130068,0.751
0.11266968981538296,0.752
0.11322136986931372,0.753
0.11377709861288672,0.754
0.11433687215387572,0.755
0.11490067039683384,0.756
0.11546841243989016,0.757
0.1160399382104805,0.758
0.11661501836847664,0.759
0.11719337935276092,0.76
0.11777473387019746,0.761
0.11835881621519385,0.762
0.11894542064272409,0.763
0.11953443494042743,0.764
0.12012585754627927,0.765
0.1207197868564468,0.766
0.12131637639394441,0.767
0.12191577223332026,0.768
0.1225180838121857,0.769
0.12312342183805625,0.77
0.12373196941079004,0.771
0.12434403153337599,0.772
0.12496004013067381,0.773
0.12558051537989548,0.774
0.12620599966649332,0.775
0.12683700269171808,0.776
0.12747399514939167,0.777
0.12811744504570266,0.778
0.12876785541308283,0.779
0.12942577325435262,0.78
0.1300917655462935,0.781
0.13076637399645694,0.782
0.1314500728214886,0.783
0.1321432533548229,0.784
0.13284623358579942,0.785
0.13355926860714692,0.786
0.13428254664585215,0.787
0.13501617508583671,0.788
0.13576016896321225,0.789
0.13651445253226943,0.79
0.137278877586122,0.791
0.13805325291065146,0.792
0.13883737160966972,0.793
0.1396310207961742,0.794
0.14043396311318074,0.795
0.14124589963161985,0.796
0.14206645114575336,0.797
0.14289518241695862,0.798
0.14373164522408224,0.799
0.14457540220214224,0.8
0.14542601840584565,0.801
0.14628302622114797,0.802
0.1471458803777243,0.803
0.1480139284909951,0.804
0.148886407960855,0.805
0.1497624514009735,0.806
0.15064108153133646,0.807
0.15152119946123738,0.808
0.15240157934344917,0.809
0.1532808691075871,0.81
0.15415758859727138,0.811
0.1550301291208764,0.812
0.15589676454896426,0.813
0.15675566709889555,0.814
0.1576049106771747,0.815
0.1584424634491928,0.816
0.15926619811333953,0.817
0.16007394034448721,0.818
0.1608635376880124,0.819
0.16163291401827018,0.82
0.16238008580460112,0.821
0.16310312944569955,0.822
0.1638001151897871,0.823
0.16446906857618335,0.824
0.16510801548523069,0.825
0.16571509107804772,0.826
0.1662886466513549,0.827
0.16682730768793866,0.828
0.16732996325924085,0.829
0.167795682615011,0.83
0.16822359291351632,0.831
0.16861280901621062,0.832
0.16896247777241957,0.833
0.16927188234193818,0.834
0.16954050886298092,0.835
0.16976803119855086,0.836
0.16995422526735499,0.837
0.17009887410697747,0.838
0.17020174392557627,0.839
0.1702626423682296,0.84
0.17028148505623492,0.841
0.17025830131827732,0.842
0.1701931741541704,0.843
0.1700861715099875,0.844
0.16993734572162975,0.845
0.16974681499947777,0.846
0.16951486217466655,0.847
0.16924198519199815,0.848
0.1689288764224121,0.849
0.16857633887809167,0.85
0.16818518693854198,0.851
0.16775621354139428,0.852
0.16729025653059096,0.853
0.16678830186934232,0.854
0.16625154744832468,0.855
0.16568140157480574,0.856
0.16507942161491468,0.857
0.1644472164337271,0.858
0.16378636431098553,0.859
0.16309839919410307,0.86
0.16238486123020096,0.861
0.16164735518958034,0.862
0.16088757191713832,0.863
0.16010726354626736,0.864
0.1593081844694858,0.865
0.15849203057875344,0.866
0.15766041848004214,0.867
0.156814911462429,0.868
0.15595705398620918,0.869
0.1550883796273095,0.87
0.15421038789869224,0.871
0.1533245047269037,0.872
0.15243205154267644,0.873
0.15153424192990136,0.874
0.15063220025155458,0.875
0.1497269838302503,0.876
0.1488195998451887,0.877
0.14791101804080634,0.878
0.14700218039302698,0.879
0.14609400536367975,0.88
0.14518738202756834,0.881
0.14428314970481085,0.882
0.14338206827267383,0.883
0.14248480259684568,0.884
0.1415919424918251,0.885
0.14070405034150907,0.886
0.13982171276714353,0.887
0.1389455811597658,0.888
0.1380763931592959,0.889
0.1372149680839284,0.89
0.1363621716573376,0.891
0.1355188597631003,0.892
0.13468583782420404,0.893
0.13386387025753763,0.894
0.1330537271369073,0.895
0.1322562248645691,0.896
0.1314722352501153,0.897
0.13070266409632106,0.898
0.12994841284726724,0.899
0.1292103395677523,0.9
0.12848923156331857,0.901
0.12778579320860048,0.902
0.1271006430215406,0.903
0.12643431027875143,0.904
0.12578723165558994,0.905
0.12515976376215954,0.906
0.12455222121763282,0.907
0.123964925502947,0.908
0.12339823977620958,0.909
0.12285257332908646,0.91
0.12232835129456465,0.911
0.1218259666453344,0.912
0.1213457560836135,0.913
0.12088802207263069,0.914
0.12045307049531863,0.915
0.12004122242233978,0.916
0.11965279044618231,0.917
0.11928804152308937,0.918
0.1189471817899812,0.919
0.11863037447227057,0.92
0.11833776304711315,0.921
0.11806947089463019,0.922
0.11782557740063536,0.923
0.1176060938297243,0.924
0.11741096231978035,0.925
0.11724007644213666,0.926
0.11709330255056785,0.927
0.11697048815271513,0.928
0.1168714574248026,0.929
0.11679599917525178,0.93
0.11674385234118638,0.931
0.11671469224748549,0.932
0.11670811831361103,0.933
0.1167236426530285,0.934
0.11676068278918227,0.935
0.11681856756439793,0.936
0.11689656196690347,0.937
0.11699390524877783,0.938
0.11710985053860853,0.939
0.11724369457679978,0.94
0.11739478791617702,0.941
0.11756251946152628,0.942
0.11774627776567104,0.943
0.11794540927948263,0.944
0.11815920589467642,0.945
0.11838693110183032,0.946
0.11862785715122999,0.947
0.11888128318697751,0.948
0.11914652571083538,0.949
0.11942288593063745,0.95
0.11970960864202831,0.951
0.12000585766066993,0.952
0.12031071931860472,0.953
0.12062321519213262,0.954
0.12094230109572433,0.955
0.12126685481861296,0.956
0.1215956769643775,0.957
0.12192752092298824,0.958
0.12226113877965819,0.959
0.12259531735633745,0.96
0.12292888636867531,0.961
0.1232606923721461,0.962
0.12358955871571405,0.963
0.12391428141749875,0.964
0.12423368720395615,0.965
0.12454671830568612,0.966
0.12485249166860131,0.967
0.12515030771741018,0.968
0.12543960661808654,0.969
0.12571988896793704,0.97
0.1259906447098316,0.971
0.126251337498192,0.972
0.12650144475807676,0.973
0.12674050856883523,0.974
0.12696816146382392,0.975
0.12718412062358506,0.976
0.12738815630482325,0.977
0.12758004265613646,0.978
0.12775950527872498,0.979
0.12792618883264403,0.98
0.12807965683725828,0.981
0.12821940619085667,0.982
0.1283448697469349,0.983
0.1284554024877182,0.984
0.1285502746727228,0.985
0.12862869376304287,0.986
0.12868984418645588,0.987
0.12873291506140525,0.988
0.1287570953319363,0.989
0.12876154200435747,0.99
0.12874536488591695,0.991
0.12870766975393105,0.992
0.12864764504343668,0.993
0.1285646424235904,0.994
0.12845821657166012,0.995
0.12832811113796022,0.996
0.12817419192218696,0.997
0.12799635528553563,0.998
0.12779447610322917,0.999
0.12756843731977796,1.0
0.1273182047452442,1.001
0.12704388469518169,1.002
0.1267457381926485,1.003
0.12642415285565986,1.004
0.12607958240656714,1.005
0.12571247460921975,1.006
0.12532322190632592,1.007
0.1249121576129214,1.008
0.12447958230408826,1.009
0.12402578852998426,1.01
0.12355106849049358,1.011
0.12305570391632359,1.012
0.12253994099545741,1.013
0.12200396355567815,1.014
0.1214478927989704,1.015
0.12087182959425946,1.016
0.12027591967845495,1.017
0.11966040788086099,1.018
0.11902565747014819,1.019
0.11837212119889735,1.02
0.11770027872358424,1.021
0.117010603964092,1.022
0.11630361464940614,1.023
0.11557997188751766,1.024
0.11484055828940658,1.025
0.11408649665342813,1.026
0.11331910654179252,1.027
0.11253981600632645,1.028
0.11175006784734316,1.029
0.11095127078067282,1.03
0.11014480829247446,1.031
0.10933206433407242,1.032
0.10851442855540061,1.033
0.10769328130060692,1.034
0.10686997408701877,1.035
0.10604581797265585,1.036
0.10522208524351463,1.037
0.10440002255220286,1.038
0.10358086868727828,1.039
0.10276586875128074,1.04
0.10195627840715157,1.041
0.10115335571415972,1.042
0.10035834216561254,1.043
0.09957243723356736,1.044
0.09879677410987346,1.045
0.09803240871630604,1.046
0.09728032888588413,1.047
0.0965414772439489,1.048
0.09581677727910086,1.049
0.09510715603350574,1.05
0.09441355748876792,1.051
0.09373694065606074,1.052
0.09307825996134754,1.053
0.09243843512437928,1.054
0.09181832949636824,1.055
0.09121874984179518,1.056
0.09064045746344429,1.057
0.09008417281421391,1.058
0.08955056872642353,1.059
0.0890402580583839,1.06
0.08855378254855668,1.061
0.08809160617622763,1.062
0.08765411220372121,1.063
0.08724160177857171,1.064
0.08685429410927317,1.065
0.0864923287697747,1.066
0.08615576773383377,1.067
0.08584459503517766,1.068
0.08555871696776801,1.069
0.08529796586029866,1.07
0.08506210378083219,1.071
0.0848508224411283,1.072
0.08466374601789212,1.073
0.08450044640195774,1.074
0.08436046830157994,1.075
0.08424335251923537,1.076
0.08414864765748294,1.077
0.08407590536179249,1.078
0.08402466041974993,1.079
0.08399440870524412,1.08
0.08398460350363217,1.081
0.08399467639510155,1.082
0.08402406628373053,1.083
0.08407223831998192,1.084
0.08413868690563946,1.085
0.08422292501777301,1.086
0.0843244653431688,1.087
0.08444279990484414,1.088
0.08457738342297433,1.089
0.08472762210783318,1.09
0.08489286548036751,1.091
0.0850723990705513,1.092
0.08526544348061754,1.093
0.08547116870098474,1.094
0.08568872288773476,1.095
0.0859172651589775,1.096
0.08615599196368855,1.097
0.08640415020684318,1.098
0.08666103344092024,1.099
0.08692596028517337,1.1
0.08719824103457735,1.101
0.08747715238785664,1.102
0.08776194300579175,1.103
0.08805186909048392,1.104
0.08834623639841326,1.105
0.08864442717682137,1.106
0.08894590227977085,1.107
0.0892501759239317,1.108
0.08955677210241242,1.109
0.08986519124638795,1.11
0.09017491433677723,1.111
0.09048543674381151,1.112
0.09079630007490024,1.113
0.09110710168975619,1.114
0.0914174805520413,1.115
0.0917270870211791,1.116
0.0920355470903264,1.117
0.09234243114644144,1.118
0.09264723388432003,1.119
0.0929493666901302,1.12
0.09324816009238951,1.121
0.0935428748811924,1.122
0.09383272286484902,1.123
0.09411689668466461,1.124
0.09439460340695685,1.125
0.09466509260703854,1.126
0.09492766842812557,1.127
0.09518167718055104,1.128
0.09542647308936773,1.129
0.09566138809750958,1.13
0.09588573891050102,1.131
0.09609887116096892,1.132
0.09630020621029756,1.133
0.09648926068352887,1.134
0.09666563106875249,1.135
0.09682894963247914,1.136
0.09697883093371272,1.137
0.09711484137199047,1.138
0.09723650845458079,1.139
0.09734335048589764,1.14
0.0974349021600776,1.141
0.09751073185455336,1.142
0.0975704550773675,1.143
0.09761374474110286,1.144
0.09764033315803572,1.145
0.09764999649073945,1.146
0.09764252058385817,1.147
0.09761767414155328,1.148
0.0975752258428308,1.149
0.0975150040712806,1.15
0.09743695687518568,1.151
0.09734117324108249,1.152
0.09722785297402997,1.153
0.09709724202385592,1.154
0.09694958090558324,1.155
0.09678510363037904,1.156
0.09660406665840716,1.157
0.09640675881180408,1.158
0.0961934760486145,1.159
0.09596449128952142,1.16
0.09572005608769073,1.161
0.09546043031906337,1.162
0.09518590347694857,1.163
0.09489678307944846,1.164
0.09459335925593744,1.165
0.0942758811421511,1.166
0.0939445694335004,1.167
0.09359964797761443,1.168
0.09324136412653052,1.169
0.09286998850400673,1.17
0.09248580108073295,1.171
0.09208907413950473,1.172
0.09168006097792725,1.173
0.09125899388502447,1.174
0.09082608835873432,1.175
0.09038154543197528,1.176
0.0899255428161496,1.177
0.08945821701747686,1.178
0.08897966037700229,1.179
0.08848995321019364,1.18
0.0879892172805611,1.181
0.08747766164928657,1.182
0.08695560431733092,1.183
0.08642346490979987,1.184
0.0858817303339194,1.185
0.08533090496200317,1.186
0.08477147042051797,1.187
0.08420387856026128,1.188
0.08362857315230646,1.189
0.08304601406403399,1.19
0.0824566862542106,1.191
0.0818610929170817,1.192
0.08125973879165649,1.193
0.08065311001463384,1.194
0.08004165537529641,1.195
0.07942577144980839,1.196
0.07880579211694118,1.197
0.07818198223410604,1.198
0.07755453568003402,1.199
0.07692357855787828,1.2
0.07628917800034975,1.201
0.07565135542981484,1.202
0.07501010100115749,1.203
0.07436538435607509,1.204
0.07371715643964559,1.205
0.07306534073032148,1.206
0.07240982392061457,1.207
0.07175046539017306,1.208
0.07108713298043864,1.209
0.0704197507609466,1.21
0.06974833842868754,1.211
0.0690730288210603,1.212
0.06839405674384143,1.213
0.06771171999128098,1.214
0.06702633124285921,1.215
0.06633819780593347,1.216
0.06564764657140386,1.217
0.06495506691291282,1.218
0.06426093617833503,1.219
0.06356581628145683,1.22
0.06287032532461442,1.221
0.062175096491026684,1.222
0.06148074542315231,1.223
0.060787861253739126,1.224
0.06009701251501424,1.225
0.05940874753879202,1.226
0.05872358552551611,1.227
0.058042013552490404,1.228
0.0573644980437092,1.229
0.056691498416205445,1.23
0.05602346700043173,1.231
0.0553608359432346,1.232
0.054704009065319976,1.233
0.05405337186419722,1.234
0.053409310047055326,1.235
0.052772219785625706,1.236
0.05214250500429387,1.237
0.051520566428663726,1.238
0.05090678921348827,1.239
0.05030153460723153,1.24
0.049705137681795845,1.241
0.04911790950089894,1.242
0.04854013989643754,1.243
0.047972097006762186,1.244
0.04741402229401328,1.245
0.04686612511965191,1.246
0.046328584431374845,1.247
0.04580156015630671,1.248
0.04528520879917729,1.249
0.04477969642480485,1.25
0.04428520557888928,1.251
0.0438019351067147,1.252
0.0433300932875853,1.253
0.042869885874964576,1.254
0.04242150218447907,1.255
0.04198510506380535,1.256
0.041560830082376786,1.257
0.041148792442502,1.258
0.04074909448133875,1.259
0.040361828190941355,1.26
0.039987071143561266,1.261
0.039624878460735,1.262
0.039275278592096036,1.263
0.038938278210988546,1.264
0.038613870980636594,1.265
0.038302040756768144,1.266
0.038002756968186696,1.267
0.03771597070363632,1.268
0.03744162163761843,1.269
0.03717965395389253,1.27
0.03693003005925711,1.271
0.03669273428206841,1.272
0.03646776590893169,1.273
0.036255124948750474,1.274
0.03605479658324266,1.275
0.03586674178448299,1.276
0.03569089714469483,1.277
0.03552717903847177,1.278
0.035375486213839374,1.279
0.0352356995994425,1.28
0.03510768072905093,1.281
0.0349912702983908,1.282
0.03488628786264967,1.283
0.03479253287640146,1.284
0.03470978651223152,1.285
0.034637813320522695,1.286
0.0345763619438169,1.287
0.03452516464354364,1.288
0.03448393604278286,1.289
0.034452371919856055,1.29
0.034430148886065104,1.291
0.0344169253111569,1.292
0.03441234306521178,1.293
0.03441602878109483,1.294
0.03442759273300887,1.295
0.034446625032958596,1.296
0.03447269372073627,1.297
0.034505350693680686,1.298
0.034544144644117036,1.299
0.03458863390896329,1.3
0.03463839285697052,1.301
0.034693009019085536,1.302
0.0347520718289661,1.303
0.03481515943948492,1.304
0.034881833987215,1.305
0.034951648827275514,1.306
0.03502415981493339,1.307
0.03509893189640168,1.308
0.03517553856557807,1.309
0.03525355458821615,1.31
0.03533254494043615,1.311
0.035412059235413414,1.312
0.03549164074001311,1.313
0.035570847294342754,1.314
0.03564927283284013,1.315
0.035726560265906405,1.316
0.03580240136272447,1.317
0.035876523124016194,1.318
0.03594866559166088,1.319
0.036018563801153605,1.32
0.03608594671605073,1.321
0.03615055231935783,1.322
0.03621214677345828,1.323
0.036270538722483946,1.324
0.036325586771399,1.325
0.03637720025868509,1.326
0.036425333204224024,1.327
0.036469971349319355,1.328
0.03651111309675471,1.329
0.03654874949548581,1.33
0.036582854010594454,1.331
0.0366133870205971,1.332
0.03664030608161037,1.333
0.03666357127132197,1.334
0.036683143671114936,1.335
0.03669898016982505,1.336
0.03671102859461015,1.337
0.036719226497677754,1.338
0.03672350496296949,1.339
0.03672379629133378,1.34
0.03672004231144872,1.341
0.03671219907657387,1.342
0.03670023417012941,1.343
0.036684116089877844,1.344
0.03666380295944745,1.345
0.036639242790240105,1.346
0.03661038836510291,1.347
0.03657721585070194,1.348
0.03653973490555475,1.349
0.036497985279083156,1.35
0.03645202134806794,1.351
0.03640189426512188,1.352
0.03634764667535743,1.353
0.03628932410509334,1.354
0.036226990281169956,1.355
0.0361607328146632,1.356
0.036090655789125396,1.357
0.036016863881170154,1.358
0.03593944889108781,1.359
0.035858488199917556,1.36
0.035774052485001887,1.361
0.03568621208590638,1.362
0.035595035954228006,1.363
0.035500584258457465,1.364
0.035402898703565104,1.365
0.03530199492883909,1.366
0.035197860252932554,1.367
0.035090457921108376,1.368
0.03497973657687258,1.369
0.03486564172654142,1.37
0.03474812510305047,1.371
0.034627148256132834,1.372
0.03450267811514422,1.373
0.03437467633941251,1.374
0.03424309162110967,1.375
0.03410786510370189,1.376
0.033968948006912546,1.377
0.033826321203063815,1.378
0.03368000825906221,1.379
0.033530078734273175,1.38
0.033376641756584086,1.381
0.033219832044028466,1.382
0.033059791901794894,1.383
0.03289665399412276,1.384
0.03273053093408166,1.385
0.03256151464497038,1.386
0.03238968176169909,1.387
0.032215099579540704,1.388
0.03203783060237094,1.389
0.03185793609685003,1.39
0.03167547914798892,1.391
0.03149052735132961,1.392
0.03130315498320646,1.393
0.031113444338394913,1.394
0.030921485941283303,1.395
0.030727377471979424,1.396
0.03053122139064176,1.397
0.03033312128057227,1.398
0.03013317681817098,1.399
0.029931477110303976,1.4
0.029728093857600894,1.401
0.02952307971697258,1.402
0.02931647631263702,1.403
0.029108329254669992,1.404
0.0288987039628661,1.405
0.0286876977875832,1.406
0.02847544554940098,1.407
0.028262116941481737,1.408
0.028047906160794157,1.409
0.027833016222290074,1.41
0.02761764371242865,1.411
0.027401972162778645,1.412
0.027186176743816695,1.413
0.026970433790733175,1.414
0.02675492810024957,1.415
0.02653985618878169,1.416
0.026325426092277754,1.417
0.026111854397225954,1.418
0.02589936123367128,1.419
0.025688163976199493,1.42
0.02547847035324925,1.421
0.025270472146855835,1.422
0.025064341814328546,1.423
0.02486023365494741,1.424
0.02465828804870833,1.425
0.024458635739130274,1.426
0.024261400100959427,1.427
0.024066696401583067,1.428
0.023874628235187493,1.429
0.023685283629601664,1.43
0.023498734292498734,1.431
0.02331503807076501,1.432
0.023134240725030532,1.433
0.02295637462427899,1.434
0.02278145728011635,1.435
0.022609494114951993,1.436
0.02244048522771643,1.437
0.022274432018160074,1.438
0.02211134050955793,1.439
0.021951220623741757,1.44
0.02179408182813695,1.441
0.021639926702686493,1.442
0.02148874631539316,1.443
0.021340521764375103,1.444
0.021195231941255728,1.445
0.021052863219684293,1.446
0.020913416904362724,1.447
0.02077691227330212,1.448
0.020643384273440018,1.449
0.020512875878162803,1.45
0.020385427896686157,1.451
0.020261073265493514,1.452
0.02013984075890012,1.453
0.02002176424867194,1.454
0.019906890258786322,1.455
0.019795280363780803,1.456
0.019687008178275213,1.457
0.01958215187846822,1.458
0.019480785058096785,1.459
0.0193829711168684,1.46
0.019288764283354062,1.461
0.019198214120757253,1.462
0.01911136842773821,1.463
0.01902827264898017,1.464
0.018948966457996003,1.465
0.018873479101229364,1.466
0.018801825551990597,1.467
0.018734004771749035,1.468
0.018669999393914543,1.469
0.018609775485381147,1.47
0.018553282545716338,1.471
0.018500454438839502,1.472
0.018451210598171258,1.473
0.018405456243316763,1.474
0.01836308154747838,1.475
0.01832396141046539,1.476
0.018287957302385242,1.477
0.018254920335800156,1.478
0.018224693480739962,1.479
0.01819711147515335,1.48
0.0181719986867774,1.481
0.018149167946058604,1.482
0.018128423659008536,1.483
0.01810956841012909,1.484
0.018092409040576768,1.485
0.018076758776802527,1.486
0.018062433892672397,1.487
0.01804924711101405,1.488
0.01803700495588125,1.489
0.018025513901047008,1.49
0.018014590883351753,1.491
0.018004070779526787,1.492
0.01799380773267073,1.493
0.01798367048770711,1.494
0.01797353342532564,1.495
0.017963267520756433,1.496
0.01795273742572388,1.497
0.017941806947446473,1.498
0.01793034822339249,1.499
0.017918248766332502,1.5
0.01790541382797381,1.501
0.01789176341862777,1.502
0.01787722450731038,1.503
0.017861722291989474,1.504
0.01784517762934839,1.505
0.01782751338107759,1.506
0.01780866366969883,1.507
0.017788578427245703,1.508
0.017767220225891413,1.509
0.017744555530815477,1.51
0.017720547752529375,1.511
0.017695158386658114,1.512
0.017668353132488303,1.513
0.017640104644127803,1.514
0.01761038852868642,1.515
0.01757917739584169,1.516
0.01754644032531021,1.517
0.017512148414954406,1.518
0.017476279735383186,1.519
0.017438818169993375,1.52
0.01739974707383222,1.521
0.017359044276505694,1.522
0.017316684230092777,1.523
0.01727264582894107,1.524
0.017226920133571366,1.525
0.01717951452844013,1.526
0.017130452805641003,1.527
0.01707977171264661,1.528
0.017027514819808586,1.529
0.016973724936549417,1.53
0.01691843756471158,1.531
0.016861678904120988,1.532
0.01680346952246165,1.533
0.016743830968894598,1.534
0.01668279247008076,1.535
0.01662039693499646,1.536
0.016556706101524744,1.537
0.016491804073839073,1.538
0.01642579792737242,1.539
0.016358814018835207,1.54
0.016290989556356036,1.541
0.01622246237977887,1.542
0.016153366126555255,1.543
0.016083834651842623,1.544
0.016014010505200148,1.545
0.01594405042653714,1.546
0.015874125711588406,1.547
0.01580441831598086,1.548
0.01573511427877556,1.549
0.015666396401970942,1.55
0.015598438399129944,1.551
0.015531402192073787,1.552
0.015465437818251333,1.553
0.015400683615452751,1.554
0.015337265488523608,1.555
0.015275296338443154,1.556
0.015214876833789468,1.557
0.015156097014271112,1.558
0.015099037471316797,1.559
0.01504376942202157,1.56
0.014990353696210863,1.561
0.01493883958455654,1.562
0.014889265165633964,1.563
0.014841659658655432,1.564
0.014796046511543258,1.565
0.014752445591864225,1.566
0.014710873673214149,1.567
0.014671343102926074,1.568
0.014633859061159306,1.569
0.01459841658771499,1.57
0.014564999074848567,1.571
0.01453357877610538,1.572
0.014504118017532775,1.573
0.014476569842461876,1.574
0.014450878135935333,1.575
0.014426977884038683,1.576
0.01440479610420597,1.577
0.01438425357648502,1.578
0.014365266954957906,1.579
0.014347750375253186,1.58
0.014331615507437334,1.581
0.014316769527743281,1.582
0.01430311248814144,1.583
0.014290537600565882,1.584
0.014278936132195311,1.585
0.014268204349964004,1.586
0.014258248866163885,1.587
0.01424898860166909,1.588
0.01424035307477611,1.589
0.014232277462582049,1.59
0.014224696029126384,1.591
0.014217537485407678,1.592
0.014210725722505643,1.593
0.014204185324808409,1.594
0.01419784801961253,1.595
0.014191656953606744,1.596
0.014185567568895243,1.597
0.014179544855293711,1.598
0.014173557447020162,1.599
0.014167570620803076,1.6
0.014161542240757316,1.601
0.01415542381887405,1.602
0.014149163895354203,1.603
0.014142710017514179,1.604
0.014136008598213184,1.605
0.014129003805675042,1.606
0.01412163675829358,1.607
0.014113845722396625,1.608
0.01410556706406439,1.609
0.014096735833110057,1.61
0.014087284489326602,1.611
0.014077139873841672,1.612
0.014066222089012983,1.613
0.014054448849548953,1.614
0.01404174358465434,1.615
0.014028042677054,1.616
0.014013298950444028,1.617
0.013997480521006073,1.618
0.013980565190963561,1.619
0.013962532505621768,1.62
0.013943358691253753,1.621
0.013923018877541314,1.622
0.013901494818186512,1.623
0.013878782707741516,1.624
0.013854897588056782,1.625
0.013829873292075474,1.626
0.013803757955390659,1.627
0.01377660617509745,1.628
0.013748471165236401,1.629
0.013719401919622789,1.63
0.0136894468726616,1.631
0.013658659811641693,1.632
0.013627103441115198,1.633
0.013594849321886078,1.634
0.013561974704332284,1.635
0.013528557174988196,1.636
0.013494668948572163,1.637
0.013460373932781097,1.638
0.013425729117620418,1.639
0.013390787925150452,1.64
0.013355602313860477,1.641
0.013320222497166663,1.642
0.013284694479198358,1.643
0.01324905663252271,1.644
0.013213337715720155,1.645
0.013177557528330209,1.646
0.013141728442410171,1.647
0.013105855546611254,1.648
0.013069935270401976,1.649
0.013033954241579966,1.65
0.012997889827789521,1.651
0.012961711581058464,1.652
0.012925381605292382,1.653
0.012888853569217418,1.654
0.012852072884360485,1.655
0.012814980355373564,1.656
0.012777518205401375,1.657
0.012739635648374164,1.658
0.012701292111240712,1.659
0.01266245714691788,1.66
0.012623106566826671,1.661
0.01258321638910635,1.662
0.012542760085050465,1.663
0.01250171381773927,1.664
0.012460067360508401,1.665
0.01241783457991039,1.666
0.01237505934757522,1.667
0.012331815151345078,1.668
0.012288198270018445,1.669
0.01224431681030864,1.67
0.01220028140656921,1.671
0.01215620347132926,1.672
0.012112200434686068,1.673
0.012068401896959074,1.674
0.01202495231803576,1.675
0.011982009872865306,1.676
0.011939742711159752,1.677
0.01189832397093886,1.678
0.011857926640904567,1.679
0.01181871899883808,1.68
0.011780861296533466,1.681
0.011744504414523921,1.682
0.011709790390335224,1.683
0.011676853577377638,1.684
0.011645821280600665,1.685
0.011616813560040627,1.686
0.01158994235970676,1.687
0.011565310313811772,1.688
0.011543009713044231,1.689
0.011523122083828346,1.69
0.011505718626258486,1.691
0.011490861444075165,1.692
0.011478605197194082,1.693
0.011468998617325567,1.694
0.011462085309756091,1.695
0.011457903419485514,1.696
0.011456484263048693,1.697
0.011457851053747973,1.698
0.011462019206693357,1.699
0.011468998303938698,1.7
0.011478794265428326,1.701
0.011491410395443175,1.702
0.011506846897655422,1.703
0.0115250990361147,1.704
0.011546154739395976,1.705
0.011569993218944658,1.706
0.011596585628595193,1.707
0.011625896996525189,1.708
0.011657888028823076,1.709
0.011692516106864692,1.71
0.011729735298435233,1.711
0.01176949533537536,1.712
0.011811739693043046,1.713
0.011856403414015696,1.714
0.01190341190660381,1.715
0.011952681285096951,1.716
0.012004119282452435,1.717
0.012057625552116839,1.718
0.01211309108811643,1.719
0.012170397156606326,1.72
0.012229414509867729,1.721
0.012290003429295145,1.722
0.012352014277082983,1.723
0.012415287876635924,1.724
0.01247965546587941,1.725
0.012544938371895204,1.726
0.012610947611480714,1.727
0.012677483449066208,1.728
0.012744334978907238,1.729
0.012811280439331928,1.73
0.012878089294583905,1.731
0.012944526335147815,1.732
0.013010357098639524,1.733
0.01307535341983531,1.734
0.01313929755222488,1.735
0.013201983153155085,1.736
0.01326321175656768,1.737
0.013322786222351335,1.738
0.01338050795363453,1.739
0.013436183495104169,1.74
0.013489637010358664,1.741
0.013540720840306449,1.742
0.013589319504171833,1.743
0.013635345684299098,1.744
0.013678729530223534,1.745
0.013719407706191457,1.746
0.013757321186062753,1.747
0.013792423552612235,1.748
0.013824691743320386,1.749
0.01385413107464139,1.75
0.013880772096736858,1.751
0.013904660795700928,1.752
0.013925847572719518,1.753
0.013944382990780942,1.754
0.013960322554661028,1.755
0.013973733728460575,1.756
0.013984697954391029,1.757
0.013993306004591265,1.758
0.013999649775421156,1.759
0.014003817107038474,1.76
0.014005893624266831,1.761
0.014005967784015522,1.762
0.014004133113843261,1.763
0.014000485621397017,1.764
0.013995118382171792,1.765
0.013988118200553285,1.766
0.013979567704034447,1.767
0.013969550462140828,1.768
0.013958154573199004,1.769
0.013945472688262057,1.77
0.013931598620188794,1.771
0.013916622163316184,1.772
0.013900625380992064,1.773
0.013883682623359782,1.774
0.013865862776793202,1.775
0.013847230700830437,1.776
0.013827846646085287,1.777
0.013807764228816589,1.778
0.013787028029490828,1.779
0.0137656717497305,1.78
0.013743717431827103,1.781
0.0137211757020293,1.782
0.013698046555999223,1.783
0.01367432003401114,1.784
0.013649976290681157,1.785
0.013624984960670395,1.786
0.013599304175921841,1.787
0.013572879919479596,1.788
0.013545646486565505,1.789
0.013517528612303806,1.79
0.013488445319656765,1.791
0.013458314824182284,1.792
0.013427059103572836,1.793
0.013394606287005941,1.794
0.013360889107521656,1.795
0.013325840166273853,1.796
0.013289389803468164,1.797
0.013251472094385956,1.798
0.013212036570836508,1.799
0.013171058634833187,1.8
0.013128544033730576,1.801
0.013084526082118908,1.802
0.013039056417907773,1.803
0.012992193102132257,1.804
0.012943993337198352,1.805
0.01289451524011979,1.806
0.012843824648834582,1.807
0.012792000346854685,1.808
0.012739135194559855,1.809
0.012685333625546732,1.81
0.012630706615299135,1.811
0.012575365415060477,1.812
0.01251941589122685,1.813
0.012462955842472619,1.814
0.012406075985598819,1.815
0.012348862481638877,1.816
0.012291398719386799,1.817
0.012233765720746635,1.818
0.012176041239730382,1.819
0.012118297695361527,1.82
0.012060599735173995,1.821
0.01200300321860434,1.822
0.011945556603695447,1.823
0.011888303393662106,1.824
0.011831283716741402,1.825
0.011774534304788893,1.826
0.011718086994350084,1.827
0.011661966467387638,1.828
0.011606188671415198,1.829
0.011550761025127854,1.83
0.01149568393859147,1.831
0.011440952360877808,1.832
0.01138655663623049,1.833
0.011332482559598837,1.834
0.011278710665604956,1.835
0.011225214837592984,1.836
0.011171960814669975,1.837
0.011118905948718252,1.838
0.011066001105774152,1.839
0.01101319401581531,1.84
0.010960432796153042,1.841
0.010907668859544995,1.842
0.01085485866526979,1.843
0.010801963776691922,1.844
0.010748948805940964,1.845
0.010695777669506312,1.846
0.010642410605461656,1.847
0.01058880507697861,1.848
0.0105349206800062,1.849
0.010480725030005715,1.85
0.010426197911497922,1.851
0.010371332742432,1.852
0.010316135363846861,1.853
0.010260620564608766,1.854
0.010204806995903435,1.855
0.010148711761884486,1.856
0.010092347048858363,1.857
0.010035720395637788,1.858
0.009978837290321592,1.859
0.009921703495609807,1.86
0.00986432580169319,1.861
0.00980671119432489,1.862
0.009748864871439583,1.863
0.009690787696401248,1.864
0.009632473817059947,1.865
0.009573909187637645,1.866
0.009515071124242004,1.867
0.00945592845672024,1.868
0.00939644228477642,1.869
0.009336567692203854,1.87
0.009276256207658914,1.871
0.009215458418648195,1.872
0.009154126314334344,1.873
0.00909221510695766,1.874
0.009029684342635371,1.875
0.00896649812421088,1.876
0.008902624241525726,1.877
0.008838031994970246,1.878
0.008772689116390897,1.879
0.00870655978604675,1.88
0.008639606081763437,1.881
0.008571792747276477,1.882
0.008503092997795388,1.883
0.008433493393708118,1.884
0.008362996857910907,1.885
0.008291623431281843,1.886
0.008219408693147105,1.887
0.008146400104509207,1.888
0.008072651788983198,1.889
0.007998218961349246,1.89
0.007923154448045982,1.891
0.00784750916791226,1.892
0.007771335484605519,1.893
0.007694690828668861,1.894
0.007617640143876069,1.895
0.007540256942463937,1.896
0.0074626231012124905,1.897
0.00738482761890784,1.898
0.007306964631038985,1.899
0.007229131030852292,1.9
0.0071514240464341655,1.901
0.007073939050913266,1.902
0.006996767751440195,1.903
0.006919996825567956,1.904
0.00684370717195265,1.905
0.006767973984426634,1.906
0.006692867567495682,1.907
0.006618454507408649,1.908
0.0065447988297879615,1.909
0.006471962900837423,1.91
0.00640000789321564,1.911
0.00632899372795454,1.912
0.006258978549994633,1.913
0.0061900179400572256,1.914
0.006122164151023601,1.915
0.006055465639678611,1.916
0.005989967035304813,1.917
0.005925709487423757,1.918
0.005862731151317518,1.919
0.005801067486865024,1.92
0.005740751103451067,1.921
0.005681811122823948,1.922
0.005624272467909794,1.923
0.0055681556904953996,1.924
0.005513477402502014,1.925
0.005460250677107222,1.926
0.005408484915864949,1.927
0.005358185423716881,1.928
0.0053093533455709305,1.929
0.005261986140191239,1.93
0.005216078023144743,1.931
0.005171619868851686,1.932
0.005128598857704866,1.933
0.0050869986915587,1.934
0.005046800742764698,1.935
0.005007985624398188,1.936
0.004970534477697725,1.937
0.004934429619330474,1.938
0.004899654439308179,1.939
0.004866192574687759,1.94
0.004834026520472745,1.941
0.00480313615959039,1.942
0.004773498071584111,1.943
0.004745086017422375,1.944
0.004717871943162278,1.945
0.00469182667951153,1.946
0.004666920113013548,1.947
0.004643120944274434,1.948
0.004620396193306012,1.949
0.0045987105874397615,1.95
0.004578025906966705,1.951
0.0045583003840585,1.952
0.004539488396234241,1.953
0.004521540677091499,1.954
0.004504404978969428,1.955
0.004488026964682313,1.956
0.004472351179312547,1.957
0.004457321967226167,1.958
0.004442884102274897,1.959
0.004428982826919818,1.96
0.004415563059299117,1.961
0.004402568148062112,1.962
0.004389939575955338,1.963
0.004377618655049267,1.964
0.0043655494660966255,1.965
0.004353681581227889,1.966
0.0043419717388201206,1.967
0.004330384128431368,1.968
0.004318889171717464,1.969
0.0043074609508528365,1.97
0.004296074145199011,1.971
0.00428470235805919,1.972
0.004273319020446212,1.973
0.004261899758833505,1.974
0.004250424439224427,1.975
0.004238878203627325,1.976
0.004227251525656502,1.977
0.004215539424450807,1.978
0.004203740021644099,1.979
0.004191852678953401,1.98
0.004179876023174317,1.981
0.004167806272560267,1.982
0.004155636247491946,1.983
0.004143355073141586,1.984
0.004130948358672685,1.985
0.004118398794348584,1.986
0.004105686989880244,1.987
0.004092792058231934,1.988
0.004079691524070378,1.989
0.004066360797203799,1.99
0.004052773305073403,1.991
0.00403890210372254,1.992
0.0040247224297343355,1.993
0.004010214083695947,1.994
0.003995362973103816,1.995
0.003980161541393626,1.996
0.00396460802984727,1.997
0.003948704714290711,1.998
0.003932455483390439,1.999
0.003915863657705884,2.0
0.003898931354672432,2.001
0.0038816607824036387,2.002
0.0038640563249840157,2.003
0.0038461261160532,2.004
0.0038278825883249433,2.005
0.0038093419617630598,2.006
0.0037905228393267064,2.007
0.003771444260066305,2.008
0.0037521237991946558,2.009
0.0037325764544249044,2.01
0.003712814458300798,2.011
0.0036928473459498443,2.012
0.00367268196958673,2.013
0.003652322917204915,2.014
0.0036317735266659904,2.015
0.003611037029111986,2.016
0.003590117264173705,2.017
0.003569018641090616,2.018
0.003547745332179441,2.019
0.0035263003605121666,2.02
0.003504685772169352,2.021
0.0034829043255140556,2.022
0.0034609617944760685,2.023
0.003438868747256545,2.024
0.0034166412572593885,2.025
0.003394300440180651,2.026
0.0033718709594617994,2.027
0.003349378890293786,2.028
0.003326849735851609,2.029
0.003304307642629747,2.03
0.003281776102187197,2.031
0.0032592792680855636,2.032
0.003236842971723457,2.033
0.0032144951735782207,2.034
0.0031922658731457685,2.035
0.0031701865231755022,2.036
0.0031482890308487626,2.037
0.0031266045528530544,2.038
0.0031051625485288264,2.039
0.003083990578452424,2.04
0.0030631147961906764,2.041
0.0030425605716182503,2.042
0.0030223527926323233,2.043
0.003002515726053503,2.044
0.0029830724916184302,2.045
0.0029640444303833165,2.046
0.002945450892672933,2.047
0.002927309672090963,2.048
0.0029096376556561154,2.049
0.0028924511191519057,2.05
0.0028757654486832453,2.051
0.0028595945381593266,2.052
0.0028439505416890335,2.053
0.002828844375638566,2.054
0.0028142865127079005,2.055
0.002800287408422382,2.056
0.0027868573616663126,2.057
0.0027740059459622946,2.058
0.002761741267397116,2.059
0.0027500693422641146,2.06
0.0027389937734593446,2.061
0.002728515659793904,2.062
0.0027186335663809394,2.063
0.002709343499847105,2.064
0.002700638909626187,2.065
0.0026925107429718285,2.066
0.002684947618640944,2.067
0.002677936159911149,2.068
0.00267146145233341,2.069
0.0026655075680959168,2.07
0.0026600580987216557,2.071
0.0026550966221111625,2.072
0.0026506070163969586,2.073
0.002646573541124968,2.074
0.0026429806468576096,2.075
0.0026398125439166535,2.076
0.0026370526322609168,2.077
0.002634682928582758,2.078
0.002632683601403045,2.079
