VaMe,time
0.0075260743715332475,0.001
0.007871571059626417,0.002
0.008218750861080284,0.003
0.008567295950198717,0.004
0.008916895756862641,0.005
0.009267252151454616,0.006
0.009618082054008114,0.007
0.009969116814326719,0.008
0.01032009816808488,0.009
0.010670771889389911,0.01
0.011020882876016724,0.011
0.011370175698984204,0.012
0.0117184001663132,0.013
0.012065317575158205,0.014
0.012410704184414511,0.015
0.01275435084028931,0.016
0.01309605892405149,0.017
0.013435633611709465,0.018
0.013772877194300648,0.019
0.014107586647889293,0.02
0.014439556907643092,0.021
0.014768586464289942,0.022
0.015094481247989332,0.023
0.015417055202916455,0.024
0.015736127367871455,0.025
0.01605151622816174,0.026
0.016363034258066407,0.027
0.01667048688813885,0.028
0.016973677011956765,0.029
0.01727241152546336,0.03
0.017566505956519804,0.031
0.017855785450435417,0.032
0.018140081622529808,0.033
0.018419226100372086,0.034
0.018693044787615437,0.035
0.018961358638751268,0.036
0.019223992344836058,0.037
0.019480786307101886,0.038
0.01973160660850542,0.039
0.019976350109238802,0.04
0.020214943219496767,0.041
0.02044733381888798,0.042
0.020673478516852747,0.043
0.020893332673087156,0.044
0.021106851291965087,0.045
0.021314000117235766,0.046
0.02151476849224466,0.047
0.02170917721390857,0.048
0.021897279358870807,0.049
0.02207915433883763,0.05
0.022254896361533667,0.051
0.022424600782631865,0.052
0.0225883556488514,0.053
0.022746243811528725,0.054
0.022898352109751427,0.055
0.023044779864037076,0.056
0.023185642277080396,0.057
0.023321067757298197,0.058
0.023451189624313504,0.059
0.02357613588043813,0.06
0.02369602518471896,0.061
0.023810973820945814,0.062
0.023921108380684574,0.063
0.024026575846086893,0.064
0.024127546997721152,0.065
0.024224212021852556,0.066
0.024316769538490775,0.067
0.0244054155593884,0.068
0.024490342095904536,0.069
0.024571747847935997,0.07
0.024649852691903944,0.071
0.024724906928900357,0.072
0.024797191906841255,0.073
0.024867012206936646,0.074
0.02493468179852485,0.075
0.02500051023413073,0.076
0.0250647969152333,0.077
0.025127835192751725,0.078
0.025189919240517833,0.079
0.025251346896910984,0.08
0.02531241739613429,0.081
0.025373425746535568,0.082
0.02543465587068423,0.083
0.025496374400569656,0.084
0.02555882636039734,0.085
0.025622233096368973,0.086
0.02568679198523438,0.087
0.02575267689941951,0.088
0.0258200384613624,0.089
0.025889004138579894,0.09
0.025959679356735103,0.091
0.0260321503307909,0.092
0.026106487756370624,0.093
0.026182749916233265,0.094
0.0262609842243187,0.095
0.02634122674604551,0.096
0.02642349960523555,0.097
0.026507807151894578,0.098
0.026594133547788557,0.099
0.026682444309269936,0.1
0.02677269118845857,0.101
0.02686481766799799,0.102
0.02695876320934799,0.103
0.027054465750417728,0.104
0.027151862554694733,0.105
0.02725088975729593,0.106
0.02735148096870975,0.107
0.027453565114336838,0.108
0.027557063445379,0.109
0.027661885509390405,0.11
0.02776792435432973,0.111
0.027875052952578673,0.112
0.027983124894047973,0.113
0.02809198023791488,0.114
0.02820145442606957,0.115
0.028311387888683332,0.116
0.028421635014974963,0.117
0.02853207141396624,0.118
0.0286425982727164,0.119
0.02875314271734625,0.12
0.02886365342993696,0.121
0.028974091370165593,0.122
0.029084417128924483,0.123
0.029194580198769506,0.124
0.029304516961763494,0.125
0.029414157958430182,0.126
0.029523437616623988,0.127
0.029632300207624536,0.128
0.02974070036564818,0.129
0.029848598874557798,0.13
0.029955955211712387,0.131
0.030062718861075723,0.132
0.030168821631957853,0.133
0.030274173076173253,0.134
0.03037866050020483,0.135
0.03048215400624364,0.136
0.030584515609715413,0.137
0.030685610096877484,0.138
0.030785314336676042,0.139
0.030883521618194493,0.14
0.0309801383929884,0.141
0.031075073879847273,0.142
0.031168229875812855,0.143
0.031259501911673496,0.144
0.03134879436299734,0.145
0.03143604046698932,0.146
0.03152121755206309,0.147
0.031604353443664863,0.148
0.03168552319221664,0.149
0.0317648365311007,0.15
0.03184241864498917,0.151
0.03191839228794786,0.152
0.03199287296665633,0.153
0.032065979988337164,0.154
0.032137852527330264,0.155
0.03220865900282639,0.156
0.0322785957814825,0.157
0.03234787603259174,0.158
0.032416713172912504,0.159
0.03248530789999033,0.16
0.032553845772585,0.161
0.03262250175594949,0.162
0.03269144218108312,0.163
0.03276082040924411,0.164
0.032830772014325535,0.165
0.03290141703646845,0.166
0.03297286846278476,0.167
0.03304523875763344,0.168
0.03311863788357944,0.169
0.03319316475850431,0.17
0.03326890384622995,0.171
0.033345935642040005,0.172
0.033424354538885814,0.173
0.033504281666134936,0.174
0.033585866519635,0.175
0.03366927658157986,0.176
0.03375468005596109,0.177
0.03384223524746888,0.178
0.033932096597451944,0.179
0.03402443081227942,0.18
0.034119429478521764,0.181
0.03421731147935019,0.182
0.034318315017741324,0.183
0.034422682383099215,0.184
0.034530645070126625,0.185
0.03464241886240098,0.186
0.034758210776441895,0.187
0.03487822957429662,0.188
0.035002691733378534,0.189
0.035131820825031065,0.19
0.0352658412308112,0.191
0.035404967934270774,0.192
0.035549396172087334,0.193
0.03569929682278032,0.194
0.035854819747366505,0.195
0.03601610019897896,0.196
0.03618326251998637,0.197
0.03635641939751811,0.198
0.036535667408694,0.199
0.036721080462877184,0.2
0.03691270350713424,0.201
0.03711054858627674,0.202
0.037314593494018077,0.203
0.03752478235038638,0.204
0.03774102806304403,0.205
0.037963215800656515,0.206
0.03819120517831179,0.207
0.03842482936054835,0.208
0.03866389203441092,0.209
0.03890816649520338,0.21
0.03915739971275953,0.211
0.03941131862650175,0.212
0.03966963391579969,0.213
0.03993203890597008,0.214
0.04019820425248445,0.215
0.04046777252953532,0.216
0.04074035786407945,0.217
0.0410155506723232,0.218
0.041292922029937736,0.219
0.04157202267934965,0.22
0.0418523777924,0.221
0.04213348616510143,0.222
0.04241483111550649,0.223
0.042695899309392146,0.224
0.04297619820974935,0.225
0.043255265647958493,0.226
0.04353266774045441,0.227
0.04380798441975159,0.228
0.04408079146908907,0.229
0.04435065827978166,0.23
0.04461717124340415,0.231
0.04487996991881415,0.232
0.04513877680674159,0.233
0.04539341068843889,0.234
0.045643780273167775,0.235
0.04588985859488283,0.236
0.04613164647483919,0.237
0.046369145849037716,0.238
0.04660236153647742,0.239
0.0468313255149146,0.24
0.04705612186266017,0.241
0.04727689872079142,0.242
0.04749386583993418,0.243
0.04770728086349348,0.244
0.047917428347141786,0.245
0.048124595364385396,0.246
0.04832904943151272,0.247
0.048531027947196985,0.248
0.0487307430644764,0.249
0.04892839400789775,0.25
0.04912417693781473,0.251
0.04931828884877654,0.252
0.04951092513317436,0.253
0.04970227080019057,0.254
0.049892488022792114,0.255
0.05008170835233608,0.256
0.050270037479126374,0.257
0.05045756997893885,0.258
0.0506444042946634,0.259
0.050830650525913144,0.26
0.05101642776825093,0.261
0.05120185120800742,0.262
0.05138701660001981,0.263
0.051571996756136794,0.264
0.051756856476849813,0.265
0.051941675237883705,0.266
0.052126563550983336,0.267
0.0523116670937385,0.268
0.052497158317641034,0.269
0.05268321778257337,0.27
0.05287001149949135,0.271
0.05305767541894908,0.272
0.05324631404393941,0.273
0.0534360068441991,0.274
0.05362681101909848,0.275
0.05381875629919474,0.276
0.05401183620259257,0.277
0.05420600381944377,0.278
0.054401174543727726,0.279
0.05459722896425825,0.28
0.054794010702491416,0.281
0.05499132506804395,0.282
0.05518894781361889,0.283
0.05538664382930851,0.284
0.055584187390057216,0.285
0.055781376313975305,0.286
0.05597803600004242,0.287
0.056174011986255976,0.288
0.05636915204641418,0.289
0.05656328416968596,0.29
0.05675620414991711,0.291
0.05694768139787137,0.292
0.05713747451771765,0.293
0.057325342586547694,0.294
0.05751104593138476,0.295
0.05769433633024272,0.296
0.0578749409834931,0.297
0.058052550173086664,0.298
0.058226815731113185,0.299
0.05839735470523785,0.3
0.05856374884352233,0.301
0.05872554349798414,0.302
0.058882258132393075,0.303
0.05903341027001859,0.304
0.05917854107093049,0.305
0.059317229367840514,0.306
0.05944908670567505,0.307
0.059573735468684684,0.308
0.05969078844903308,0.309
0.05979985345730678,0.31
0.05990056396776605,0.311
0.05999261276067938,0.312
0.06007576755285513,0.313
0.06014986162263581,0.314
0.06021476322348768,0.315
0.06027034163077609,0.316
0.0603164574939165,0.317
0.06035298660624002,0.318
0.06037985539808933,0.319
0.060397063044913345,0.32
0.06040468096160654,0.321
0.060402829827739,0.322
0.06039164382584071,0.323
0.060371247814753164,0.324
0.060341769225988204,0.325
0.06030337540141503,0.326
0.06025630948253946,0.327
0.06020090806951802,0.328
0.06013759656124332,0.329
0.0600668638291865,0.33
0.05998922396340676,0.331
0.05990518325235288,0.332
0.0598152327618898,0.333
0.05971986710472643,0.334
0.05961960925627772,0.335
0.05951502436673893,0.336
0.059406719000930024,0.337
0.05929532851923856,0.338
0.059181496737407746,0.339
0.05906585261771571,0.34
0.058948990011117905,0.341
0.05883145711555694,0.342
0.058713756380592695,0.343
0.0585963473830096,0.344
0.05847964612402614,0.345
0.05836402091684703,0.346
0.058249788406853936,0.347
0.058137211975030086,0.348
0.05802650165887139,0.349
0.05791781458045682,0.35
0.05781125737982936,0.351
0.05770689193108136,0.352
0.05760474315458987,0.353
0.0575048071015922,0.354
0.057407058381338937,0.355
0.057311456432506507,0.356
0.0572179499260261,0.357
0.05712647815064215,0.358
0.057036967953895436,0.359
0.05694932506169248,0.36
0.0568634222607948,0.361
0.05677909397067457,0.362
0.05669614517871843,0.363
0.056614370612628265,0.364
0.05653357463485702,0.365
0.05645358688792546,0.366
0.05637427240385169,0.367
0.0562955356389508,0.368
0.056217317802495975,0.369
0.05613958631028883,0.37
0.05606231551201571,0.371
0.05598546507576852,0.372
0.05590897416228137,0.373
0.05583278283558722,0.374
0.05575686814728402,0.375
0.05568127404918602,0.376
0.0556061240457828,0.377
0.05553161364358132,0.378
0.05545798433600776,0.379
0.05538548833633689,0.38
0.055314362841690785,0.381
0.055244828587919396,0.382
0.055177105993000984,0.383
0.05511143000469041,0.384
0.055048052704240534,0.385
0.05498723294514247,0.386
0.054929217872781176,0.387
0.05487422708933121,0.388
0.0548224503762219,0.389
0.054774057978938986,0.39
0.05472921191258514,0.391
0.05468806938957763,0.392
0.05465077676387612,0.393
0.054617457217696924,0.394
0.05458820044327069,0.395
0.0545630633867908,0.396
0.05454208214995399,0.397
0.05452528613583368,0.398
0.05451270613935096,0.399
0.05450437292743326,0.4
0.05450030612131692,0.401
0.054500498684492374,0.402
0.054504909364848975,0.403
0.05451347011006519,0.404
0.054526099876099465,0.405
0.054542712180583826,0.406
0.05456321138333237,0.407
0.05458748068177961,0.408
0.05461537315484109,0.409
0.054646717135986386,0.41
0.05468133341184398,0.411
0.05471905170917141,0.412
0.05475971721453689,0.413
0.054803184419211545,0.414
0.05484930071776753,0.415
0.05489788943094602,0.416
0.05494874534997527,0.417
0.05500164507774044,0.418
0.05505636016287724,0.419
0.055112661218608104,0.42
0.05517030990165998,0.421
0.055229043928914104,0.422
0.05528856852765916,0.423
0.0553485641366683,0.424
0.05540870372617297,0.425
0.05546866574537782,0.426
0.05552813420339314,0.427
0.055586786444082485,0.428
0.055644283108896554,0.429
0.05570028025732087,0.43
0.05575446531346788,0.431
0.055806597697002074,0.432
0.05585653437878436,0.433
0.05590423044981315,0.434
0.05594971286631388,0.435
0.055993038295345986,0.436
0.05603426421109572,0.437
0.05607345705665551,0.438
0.056110726810989844,0.439
0.05614625938434771,0.44
0.05618033120544542,0.441
0.05621330461990637,0.442
0.056245607328391733,0.443
0.05627770030540441,0.444
0.05631004305985964,0.445
0.05634307301678695,0.446
0.056377209761682576,0.447
0.05641287366433889,0.448
0.056450500410185456,0.449
0.056490542973356296,0.45
0.05653346138472393,0.451
0.05657970426482518,0.452
0.056629689967969285,0.453
0.05668379676291524,0.454
0.05674236332603555,0.455
0.056805690269554995,0.456
0.05687403660199882,0.457
0.056947616320971346,0.458
0.057026600767280104,0.459
0.057111122808463206,0.46
0.057201276432653644,0.461
0.05729711363809813,0.462
0.05739864636112242,0.463
0.05750585549990251,0.464
0.05761869998907373,0.465
0.057737118127960556,0.466
0.05786102021298071,0.467
0.05799028013018448,0.468
0.058124735543140515,0.469
0.05826419594705073,0.47
0.058408447391780895,0.471
0.05855724772477489,0.472
0.05871032158368992,0.473
0.05886736790844369,0.474
0.0590280771483678,0.475
0.05919214250028565,0.476
0.05935925461686042,0.477
0.05952908678128033,0.478
0.0597012925351713,0.479
0.059875527237868376,0.48
0.06005147790051503,0.481
0.06022887894626282,0.482
0.06040750493654563,0.483
0.06058714474100416,0.484
0.06076757477389109,0.485
0.060948552483061226,0.486
0.06112983160110658,0.487
0.0613111795347623,0.488
0.061492380367373096,0.489
0.06167322130184901,0.49
0.06185347043591999,0.491
0.06203286060464825,0.492
0.06221108904096675,0.493
0.06238782589442128,0.494
0.06256271803839886,0.495
0.06273538298015863,0.496
0.0629053984550073,0.497
0.06307229942998256,0.498
0.06323558888450888,0.499
0.063394756596415,0.5
0.0635492971557257,0.501
0.06369872288891766,0.502
0.06384256906829626,0.503
0.06398038825268294,0.504
0.06411173293499794,0.505
0.06423613652552566,0.506
0.06435311393048779,0.507
0.0644621915084245,0.508
0.06456295065906345,0.509
0.06465506278741757,0.51
0.06473830397166638,0.511
0.06481254611052056,0.512
0.0648777264823074,0.513
0.06493380509920739,0.514
0.0649807300609456,0.515
0.06501843109064395,0.516
0.06504683998763891,0.517
0.06506591839681213,0.518
0.06507567879777582,0.519
0.06507619709258171,0.52
0.06506761889965129,0.521
0.06505016043137554,0.522
0.06502410303382433,0.523
0.06498977895472051,0.524
0.06494754548591405,0.525
0.06489775334397814,0.526
0.06484073307412085,0.527
0.0647768179534514,0.528
0.06470638859782869,0.529
0.0646299099970774,0.53
0.0645479445598215,0.531
0.0644611373444992,0.532
0.06437017786590155,0.533
0.06427575501993896,0.534
0.06417853053692098,0.535
0.06407913919685602,0.536
0.06397819486102334,0.537
0.06387628442188198,0.538
0.06377395811190907,0.539
0.06367173095533521,0.54
0.06357009287731,0.541
0.06346951308213654,0.542
0.06337043303257438,0.543
0.06327326026121959,0.544
0.06317837935018927,0.545
0.06308618021718097,0.546
0.06299708955978353,0.547
0.06291159288792104,0.548
0.06283024113293068,0.549
0.06275363979840255,0.55
0.06268242187863202,0.551
0.06261721396658008,0.552
0.06255861625246753,0.553
0.06250720927170816,0.554
0.062463574944088315,0.555
0.06242831274726393,0.556
0.06240204574431692,0.557
0.0623854203261896,0.558
0.06237910390010603,0.559
0.06238378233639017,0.56
0.06240015608266377,0.561
0.06242893215098547,0.562
0.062470809471701826,0.563
0.06252646028688431,0.564
0.06259651926144645,0.565
0.06268158966809864,0.566
0.06278226016662938,0.567
0.06289911873296587,0.568
0.06303275733174875,0.569
0.0631837677003741,0.57
0.06335273105353227,0.571
0.06354020514669581,0.572
0.06374671160627354,0.573
0.0639727252915008,0.574
0.0642186665112594,0.575
0.0644848964383128,0.576
0.06477171520255645,0.577
0.06507936121703746,0.578
0.06540801079362218,0.579
0.06575777796908483,0.58
0.06612871463854492,0.581
0.06652081193331354,0.582
0.06693400396261721,0.583
0.06736817281903056,0.584
0.06782315168132441,0.585
0.06829872352647172,0.586
0.06879461726709457,0.587
0.06931050761045801,0.588
0.06984602145901898,0.589
0.07040074504835972,0.59
0.07097422414542583,0.591
0.07156595713615505,0.592
0.0721753910431969,0.593
0.07280193044894132,0.594
0.07344495654694433,0.595
0.07410384561637012,0.596
0.07477797934431604,0.597
0.0754667438414578,0.598
0.07616951673352179,0.599
0.07688564645511892,0.6
0.07761443593703643,0.601
0.07835514301372669,0.602
0.07910699562140096,0.603
0.07986920867275028,0.604
0.08064099322904879,0.605
0.08142155628960385,0.606
0.08221009282315284,0.607
0.08300577250461996,0.608
0.08380772375923923,0.609
0.08461501788769599,0.61
0.08542665688111141,0.611
0.08624156760711864,0.612
0.08705860032593564,0.613
0.08787652719979662,0.614
0.08869404081709008,0.615
0.08950975437726291,0.616
0.09032220236151449,0.617
0.091129844674898,0.618
0.09193108211172292,0.619
0.0927242837571675,0.62
0.09350781664547266,0.621
0.09428006516223288,0.622
0.09503943004612266,0.623
0.09578430571003355,0.624
0.09651305434175174,0.625
0.09722400657205328,0.626
0.09791549450631941,0.627
0.09858588856095037,0.628
0.09923360725748664,0.629
0.09985709233817282,0.63
0.10045477288284801,0.631
0.10102506155729693,0.632
0.10156639733216756,0.633
0.10207729878041447,0.634
0.10255638521100187,0.635
0.10300234936280532,0.636
0.1034139005443995,0.637
0.10378973769440714,0.638
0.10412859702860383,0.639
0.10442934515226557,0.64
0.10469105872925381,0.641
0.10491305894837473,0.642
0.10509489067619808,0.643
0.105236248543218,0.644
0.10533688607351002,0.645
0.10539658330362267,0.646
0.10541521220320535,0.647
0.10539284748688849,0.648
0.10532984812997648,0.649
0.10522687828494863,0.65
0.10508486644097981,0.651
0.10490491433716707,0.652
0.10468818867974017,0.653
0.10443585476132776,0.654
0.1041490872623881,0.655
0.10382912477920038,0.656
0.10347731389123838,0.657
0.10309512274825307,0.658
0.10268412855373767,0.659
0.10224598736895847,0.66
0.10178239377580557,0.661
0.10129503595514973,0.662
0.10078555533333743,0.663
0.10025552854756527,0.664
0.09970648049266408,0.665
0.09913991258354568,0.666
0.09855732488432865,0.667
0.09796022367210225,0.668
0.0973501141530438,0.669
0.09672848076654071,0.67
0.09609676162765479,0.671
0.09545632962024772,0.672
0.09480849092983056,0.673
0.09415449767560218,0.674
0.0934955612031319,0.675
0.09283285678177702,0.676
0.09216751834547662,0.677
0.09150062604696153,0.678
0.09083319153081387,0.679
0.09016614673539844,0.68
0.08950034094483288,0.681
0.08883654780112375,0.682
0.08817547999865392,0.683
0.08751780587400922,0.684
0.0868641605888582,0.685
0.08621514582460171,0.686
0.08557131857794813,0.687
0.08493318210377214,0.688
0.08430119493295461,0.689
0.08367579761724706,0.69
0.08305744201578143,0.691
0.08244660973571682,0.692
0.08184381400637228,0.693
0.0812495844974458,0.694
0.08066443945709995,0.695
0.08008885644876566,0.696
0.07952325629697501,0.697
0.07896800303801332,0.698
0.07842340657867665,0.699
0.07788971855986287,0.7
0.07736712728235459,0.701
0.07685575891618866,0.702
0.07635568086285212,0.703
0.07586690133431688,0.704
0.07538937192943632,0.705
0.07492300484377117,0.706
0.0744677040315787,0.707
0.07402339905946097,0.708
0.07359007050227917,0.709
0.07316775866901454,0.71
0.07275655064915341,0.711
0.07235654922014732,0.712
0.07196784377509731,0.713
0.07159050904375756,0.714
0.07122463259031443,0.715
0.07087034491940802,0.716
0.07052782968442864,0.717
0.07019731043196403,0.718
0.06987902185595876,0.719
0.06957317748116854,0.72
0.06927994465528059,0.721
0.06899943217126656,0.722
0.06873168845104821,0.723
0.06847670350500473,0.724
0.06823441141143767,0.725
0.06800469917594106,0.726
0.06778742798650597,0.727
0.06758246178097356,0.728
0.06738969127667006,0.729
0.06720904423023309,0.73
0.06704047800901869,0.731
0.06688395617013274,0.732
0.06673941974039185,0.733
0.06660677217405733,0.734
0.06648588711546118,0.735
0.06637662710090808,0.736
0.06627885890357564,0.737
0.06619246291371866,0.738
0.06611733875823754,0.739
0.06605340801739128,0.74
0.06600061320270495,0.741
0.06595891103737307,0.742
0.0659282581294478,0.743
0.06590859102196527,0.744
0.06589981137106203,0.745
0.06590178861066456,0.746
0.06591437862570534,0.747
0.06593744476490696,0.748
0.06597087036936915,0.749
0.06601455976750126,0.75
0.06606842869485731,0.751
0.06613238689041888,0.752
0.0662063174148123,0.753
0.06629005998392071,0.754
0.06638340553547253,0.755
0.06648610183126066,0.756
0.0665978625211127,0.757
0.06671837320922368,0.758
0.06684729207294177,0.759
0.0669842439902885,0.76
0.06712881205903375,0.761
0.0672805390279439,0.762
0.0674389472995517,0.763
0.06760356921611828,0.764
0.06777397126926228,0.765
0.0679497605456283,0.766
0.06813056823671818,0.767
0.06831601976838166,0.768
0.06850572219554056,0.769
0.0686992897326654,0.77
0.06889638932636681,0.771
0.06909677553652784,0.772
0.06930030139523648,0.773
0.06950690473554999,0.774
0.06971657418476401,0.775
0.0699293061821521,0.776
0.07014507441085888,0.777
0.07036382774138084,0.778
0.07058550775408239,0.779
0.07081006376153258,0.78
0.07103745424582716,0.781
0.0712676370653458,0.782
0.0715005557092321,0.783
0.07173612892928428,0.784
0.07197424833053843,0.785
0.07221478385165014,0.786
0.07245759228886735,0.787
0.07270252109519029,0.788
0.07294940069322028,0.789
0.07319802925420388,0.79
0.07344816944869245,0.791
0.07369956977381628,0.792
0.07395199515595588,0.793
0.07420524166996843,0.794
0.07445912390426215,0.795
0.07471344565483332,0.796
0.07496798535417895,0.797
0.07522251442198835,0.798
0.0754768268908915,0.799
0.07573074944217657,0.8
0.07598412349559777,0.801
0.07623677430470847,0.802
0.07648849673229471,0.803
0.07673907297006656,0.804
0.07698830404590537,0.805
0.07723603069613419,0.806
0.07748213639646591,0.807
0.07772653537069053,0.808
0.07796915007963477,0.809
0.07820988354244261,0.81
0.07844859534807001,0.811
0.07868509374413725,0.812
0.07891914845726894,0.813
0.07915051532801387,0.814
0.0793789622139399,0.815
0.07960429185372236,0.816
0.0798263592482186,0.817
0.08004508002416982,0.818
0.08026042597217987,0.819
0.08047240504415619,0.82
0.08068102871600515,0.821
0.08088628320506626,0.822
0.08108812783585777,0.823
0.08128652440906162,0.824
0.08148147624893096,0.825
0.08167305517096106,0.826
0.08186140787596112,0.827
0.08204674122407672,0.828
0.08222929008934472,0.829
0.08240927766755797,0.83
0.08258688538808132,0.831
0.08276224539378416,0.832
0.08293544988652837,0.833
0.08310656142965464,0.834
0.08327561638680894,0.835
0.08344262293144733,0.836
0.08360755622090772,0.837
0.08377035128893327,0.838
0.08393089297969589,0.839
0.08408900418938162,0.84
0.08424443771142225,0.841
0.0843968745836712,0.842
0.08454592490809427,0.843
0.08469113041912661,0.844
0.08483197552478686,0.845
0.08496790785613238,0.846
0.0850983581848811,0.847
0.08522274736984728,0.848
0.08534047569812468,0.849
0.0854509069427308,0.85
0.0855533719113002,0.851
0.08564720030509168,0.852
0.08573176143630447,0.853
0.0858064902603159,0.854
0.08587088921653124,0.855
0.08592450618392133,0.856
0.0859668964412694,0.857
0.08599758984950469,0.858
0.08601608914605925,0.859
0.08602190270155409,0.86
0.08601458809436907,0.861
0.08599378219098,0.862
0.08595920652754883,0.863
0.08591064480590903,0.864
0.08584789998025878,0.865
0.08577075730740404,0.866
0.08567898051290995,0.867
0.08557233427649111,0.868
0.08545059836240183,0.869
0.08531355428758779,0.87
0.08516096438498708,0.871
0.0849925773945672,0.872
0.08480816219568235,0.873
0.08460753406152048,0.874
0.08439054519888817,0.875
0.08415705642488264,0.876
0.08390694079613042,0.877
0.0836401417448945,0.878
0.08335674844172923,0.879
0.08305703956303122,0.88
0.08274147677290668,0.881
0.08241065220702232,0.882
0.08206521339181085,0.883
0.08170581155362808,0.884
0.08133310659568206,0.885
0.08094781040771688,0.886
0.08055072631784964,0.887
0.08014276395999802,0.888
0.0797249306831754,0.889
0.07929830729476063,0.89
0.0788640169888896,0.891
0.07842319517990401,0.892
0.07797696503227754,0.893
0.07752641955733042,0.894
0.07707260757252757,0.895
0.07661652255694891,0.896
0.07615910171180014,0.897
0.07570124265582365,0.898
0.07524383222982137,0.899
0.07478777424469409,0.9
0.07433400618206668,0.901
0.07388349945388707,0.902
0.07343724223454769,0.903
0.07299621109344237,0.904
0.0725613466171699,0.905
0.07213354658371698,0.906
0.07171367268423536,0.907
0.07130255479532357,0.908
0.07090098452078436,0.909
0.07050970322182183,0.91
0.0701293940672749,0.911
0.06976068041801742,0.912
0.0694041265245339,0.913
0.06906024124456069,0.914
0.06872948758930583,0.915
0.06841229322425815,0.916
0.06810905374100705,0.917
0.06782012666804277,0.918
0.06754582341923318,0.919
0.06728640936499812,0.92
0.06704211266880812,0.921
0.06681313226436003,0.922
0.06659963748007337,0.923
0.06640175967977782,0.924
0.06621958106576327,0.925
0.06605312689240032,0.926
0.06590236339833039,0.927
0.06576719792320511,0.928
0.06564747811158979,0.929
0.06554299210827735,0.93
0.06545347243537042,0.931
0.06537860263121366,0.932
0.065318023636082,0.933
0.0652713369948708,0.934
0.06523810280273853,0.935
0.06521783541176282,0.936
0.06521000727637667,0.937
0.06521406813366257,0.938
0.06522947384736202,0.939
0.06525571330494583,0.94
0.0652923245729643,0.941
0.06533889455363005,0.942
0.06539503908051063,0.943
0.06546037156843099,0.944
0.06553448704241552,0.945
0.0656169821160535,0.946
0.06570749666563123,0.947
0.06580574799273528,0.948
0.06591154213089499,0.949
0.06602476026375033,0.95
0.06614532500690001,0.951
0.06627315925533538,0.952
0.06640815795945712,0.953
0.06655018499402265,0.954
0.0666990851547902,0.955
0.06685469438156005,0.956
0.06701684323130205,0.957
0.06718535774882936,0.958
0.06736006215816699,0.959
0.0675407845133199,0.96
0.06772736247882123,0.961
0.06791964359020718,0.962
0.06811747407983157,0.963
0.0683206789075215,0.964
0.06852905236360195,0.965
0.0687423763111306,0.966
0.06896045609498154,0.967
0.06918315046172878,0.968
0.06941038140548224,0.969
0.06964212055152795,0.97
0.06987835715645142,0.971
0.07011906572828576,0.972
0.07036419679755912,0.973
0.07061369518557778,0.974
0.07086752599021476,0.975
0.07112568993262598,0.976
0.0713882245794003,0.977
0.07165519479517667,0.978
0.07192667618793161,0.979
0.07220273430696328,0.98
0.07248340308932177,0.981
0.07276867119615063,0.982
0.0730584857976746,0.983
0.07335277252274042,0.984
0.07365145998010071,0.985
0.07395449804504961,0.986
0.07426186403709667,0.987
0.07457355423727943,0.988
0.07488956149513167,0.989
0.07520984754506138,0.99
0.07553432793580836,0.991
0.07586287861013917,0.992
0.07619535069952399,0.993
0.07653157604665817,0.994
0.07687135885611768,0.995
0.07721445946241311,0.996
0.07756058266603746,0.997
0.07790937847109727,0.998
0.07826044805305164,0.999
0.0786133435129726,1.0
0.07896756265352645,1.001
0.07932255181946324,1.002
0.07967772393509423,1.003
0.08003248295208112,1.004
0.08038624074846944,1.005
0.08073841803900753,1.006
0.08108842783062693,1.007
0.08143565307960057,1.008
0.08177944282487339,1.009
0.08211913758143327,1.01
0.0824541056230227,1.011
0.08278376591929243,1.012
0.08310758803362475,1.013
0.0834250699423132,1.014
0.08373570268393683,1.015
0.08403894164499366,1.016
0.08433420335304173,1.017
0.0846208848824858,1.018
0.08489838538436788,1.019
0.08516611423290256,1.02
0.08542348204955638,1.021
0.08566987832540254,1.022
0.08590464839532015,1.023
0.08612708635546917,1.024
0.08633644474872827,1.025
0.08653194161646251,1.026
0.08671275370372337,1.027
0.08687801563411228,1.028
0.08702685001984248,1.029
0.08715842060041108,1.03
0.0872719772236718,1.031
0.08736686760670533,1.032
0.08744250796524912,1.033
0.08749833631236002,1.034
0.08753380330082335,1.035
0.08754842758153192,1.036
0.08754187685802513,1.037
0.0875140214366915,1.038
0.08746493936957536,1.039
0.0873948756416276,1.04
0.08730416906172209,1.041
0.08719317692107058,1.042
0.08706223913762015,1.043
0.08691169504124266,1.044
0.0867419190233088,1.045
0.08655333973669492,1.046
0.08634643702603353,1.047
0.08612172526982692,1.048
0.085879732721573,1.049
0.08562098470497663,1.05
0.08534599508076712,1.051
0.0850552664229814,1.052
0.08474929591390304,1.053
0.08442858187731263,1.054
0.08409362543592787,1.055
0.0837449228337015,1.056
0.08338294747062625,1.057
0.08300813061262083,1.058
0.08262085962626735,1.059
0.08222150298742208,1.06
0.08181044950854521,1.061
0.08138814377580529,1.062
0.08095510817892734,1.063
0.08051194698407606,1.064
0.08005933006735771,1.065
0.0795979573853536,1.066
0.07912851665988194,1.067
0.07865166238620801,1.068
0.07816803166062661,1.069
0.07767827623454088,1.07
0.07718308185519483,1.071
0.07668316484164082,1.072
0.07617924842389606,1.073
0.07567203062907472,1.074
0.07516216578484519,1.075
0.07465027038515733,1.076
0.0741369370623188,1.077
0.07362273606196088,1.078
0.0731082030810273,1.079
0.07259382951717851,1.08
0.07208006919428168,1.081
0.07156735632059116,1.082
0.0710561181262675,1.083
0.07054677211153405,1.084
0.07003971066588406,1.085
0.06953528897584518,1.086
0.06903383163192524,1.087
0.06853565371747188,1.088
0.06804107883104243,1.089
0.06755044235914551,1.09
0.06706407843277352,1.091
0.06658229786179265,1.092
0.06610537334085,1.093
0.0656335433404874,1.094
0.06516702719417514,1.095
0.06470603660670589,1.096
0.0642507776282573,1.097
0.06380144481600385,1.098
0.06335821123760861,1.099
0.06292121780529632,1.1
0.062490564433279334,1.101
0.06206630417529374,1.102
0.06164844016318013,1.103
0.06123692412359274,1.104
0.060831654909763395,1.105
0.06043247685844398,1.106
0.060039180398317855,1.107
0.0596515073119378,1.108
0.05926915996496319,1.109
0.058891812456566626,1.11
0.05851912259763227,1.111
0.05815074403427101,1.112
0.057786337432931656,1.113
0.057425579113607364,1.114
0.05706816509374911,1.115
0.05671380853861413,1.116
0.05636222938531069,1.117
0.05601313726622104,1.118
0.05566621487200476,1.119
0.05532111380553689,1.12
0.054977467443895825,1.121
0.05463491196555248,1.122
0.05429310526860843,1.123
0.05395174034767129,1.124
0.053610553119035516,1.125
0.053269325146004014,1.126
0.05292788178884503,1.127
0.05258608591484741,1.128
0.0522438266004194,1.129
0.05190100169772564,1.13
0.05155749735757958,1.131
0.05121317778003458,1.132
0.050867897387220966,1.133
0.05052152952588819,1.134
0.05017399518718245,1.135
0.04982528088056692,1.136
0.049475442335239365,1.137
0.04912459485730352,1.138
0.048772893779514395,1.139
0.04842050942905292,1.14
0.048067602359849526,1.141
0.04771430759496941,1.142
0.0473607343084999,1.143
0.04700697716203511,1.144
0.04665312977584698,1.145
0.04629929470962363,1.146
0.04594558905642043,1.147
0.0455921461753742,1.148
0.045239114296800886,1.149
0.0448866526819545,1.15
0.044534925652479726,1.151
0.04418409426261884,1.152
0.043834305411458094,1.153
0.043485681325367787,1.154
0.04313831695403079,1.155
0.042792289348019666,1.156
0.04244767311994112,1.157
0.04210455353895855,1.158
0.04176303352147075,1.159
0.04142323397390537,1.16
0.041085288021319374,1.161
0.04074933033885964,1.162
0.0404154837876983,1.163
0.04008384819106374,1.164
0.03975449748987561,1.165
0.039427486363485136,1.166
0.03910286059407332,1.167
0.0387806657424316,1.168
0.03846095277133702,1.169
0.03814378087932042,1.17
0.037829217591803355,1.171
0.037517335715591967,1.172
0.03720820642274394,1.173
0.03690188926678105,1.174
0.03659842481121252,1.175
0.03629783750985298,1.176
0.03600014909549111,1.177
0.03570539439687921,1.178
0.035413631724092114,1.179
0.03512494443396195,1.18
0.03483943335667816,1.181
0.034557202373212796,1.182
0.034278343898810675,1.183
0.0340029336405867,1.184
0.033731036865601485,1.185
0.03346271789371982,1.186
0.03319804442750907,1.187
0.03293708498709239,1.188
0.03267990156684876,1.189
0.032426540822888095,1.19
0.032177027367673756,1.191
0.03193136182468727,1.192
0.03168952429392435,1.193
0.03145148144212642,1.194
0.031217193528248553,1.195
0.030986617113722414,1.196
0.030759701510518326,1.197
0.03053638370880055,1.198
0.03031659134633619,1.199
0.030100256689540895,1.2
0.029887333626782652,1.201
0.029677808229390895,1.202
0.029471698897005266,1.203
0.029269046248287783,1.204
0.029069896812598656,1.205
0.028874289916440466,1.206
0.028682256234751475,1.207
0.02849382550741284,1.208
0.028309033089464673,1.209
0.028127918819273037,1.21
0.02795051888401595,1.211
0.027776855809316357,1.212
0.027606932453935303,1.213
0.02744073074882327,1.214
0.027278211430353923,1.215
0.027119314972376914,1.216
0.026963966802285112,1.217
0.026812084929837537,1.218
0.02666358508278867,1.219
0.026518380928466517,1.22
0.026376379784830425,1.221
0.026237475928190472,1.222
0.026101544519670682,1.223
0.025968438948980193,1.224
0.025837993033275566,1.225
0.025710027407220514,1.226
0.025584357321001464,1.227
0.025460797745434388,1.228
0.02533916228691161,1.229
0.025219258049938378,1.23
0.02510088675758707,1.231
0.024983859481858245,1.232
0.024868018754960693,1.233
0.02475325644171949,1.234
0.024639520886656063,1.235
0.024526811828648253,1.236
0.024415164486465895,1.237
0.02430462850573458,1.238
0.02419525317713116,1.239
0.02408708787842299,1.24
0.023980193675752617,1.241
0.023874654848432167,1.242
0.0237705840286874,1.243
0.023668120639452374,1.244
0.0235674243120156,1.245
0.02346866534250764,1.246
0.02337201419127816,1.247
0.023277631903790157,1.248
0.023185663427260066,1.249
0.02309623504424475,1.25
0.023009454864977814,1.251
0.022925413967645598,1.252
0.022844186978182777,1.253
0.02276583241874027,1.254
0.02269039335330198,1.255
0.022617898382087342,1.256
0.02254836256773524,1.257
0.022481787632955958,1.258
0.02241816085705935,1.259
0.02235745293006151,1.26
0.022299616554756676,1.261
0.022244587605701527,1.262
0.02219228830239936,1.263
0.02214263023927685,1.264
0.022095515704868063,1.265
0.022050836734977073,1.266
0.022008472294783636,1.267
0.02196828563529289,1.268
0.021930124666428987,1.269
0.021893825991409474,1.27
0.021859220410928318,1.271
0.021826137526829107,1.272
0.02179440829984495,1.273
0.02176386508183451,1.274
0.02173433903496728,1.275
0.02170565534928974,1.276
0.021677627597864093,1.277
0.02165005384524775,1.278
0.021622716535162567,1.279
0.02159538529652507,1.28
0.02156782040284894,1.281
0.021539775926624524,1.282
0.021511002903439352,1.283
0.021481252886489725,1.284
0.0214502817945802,1.285
0.021417853344462258,1.286
0.02138374079699885,1.287
0.021347725459247405,1.288
0.021309590948528353,1.289
0.021269115871507035,1.29
0.021226072642867418,1.291
0.021180237214875594,1.292
0.021131404556516645,1.293
0.02107940134072756,1.294
0.021024091266394544,1.295
0.02096537181643612,1.296
0.020903163159823917,1.297
0.02083739312557884,1.298
0.020767986736621776,1.299
0.020694867352747046,1.3
0.020617966904716872,1.301
0.020537237120373215,1.302
0.020452656910734522,1.303
0.020364235102583422,1.304
0.020272008735464406,1.305
0.02017603708631584,1.306
0.020076391542429614,1.307
0.01997314387366919,1.308
0.019866360504311356,1.309
0.01975610855873637,1.31
0.019642469348018242,1.311
0.01952555054141208,1.312
0.019405492079460112,1.313
0.019282464339453093,1.314
0.01915665873943566,1.315
0.019028274159779826,1.316
0.018897507209130512,1.317
0.018764552797118375,1.318
0.01862961193700429,1.319
0.018492898611089506,1.32
0.018354641422318276,1.321
0.018215080330438782,1.322
0.018074460275274762,1.323
0.017933023606503142,1.324
0.0177910032966949,1.325
0.017648619039101324,1.326
0.017506076918528082,1.327
0.017363570888133086,1.328
0.01722128396860645,1.329
0.017079388643411426,1.33
0.016938046844011127,1.331
0.016797409987696365,1.332
0.016657619397275853,1.333
0.016518807206189805,1.334
0.01638109758319192,1.335
0.016244607891123943,1.336
0.016109449313708012,1.337
0.01597572657821109,1.338
0.015843536641951827,1.339
0.01571296652348726,1.34
0.015584090993610706,1.341
0.015456971354480516,1.342
0.01533165585110951,1.343
0.015208180887909819,1.344
0.015086572233750447,1.345
0.014966846386454511,1.346
0.014849012632543082,1.347
0.014733076055950988,1.348
0.014619041230278363,1.349
0.014506915751411085,1.35
0.01439671238465841,1.351
0.014288448637894049,1.352
0.014182143128432334,1.353
0.014077810231026397,1.354
0.01397545750786206,1.355
0.013875088785101635,1.356
0.013776709912372795,1.357
0.013680332710910306,1.358
0.01358597565779966,1.359
0.013493661897378608,1.36
0.0134034156279796,1.361
0.013315257899335674,1.362
0.01322920267992657,1.363
0.01314525408448699,1.364
0.013063405428724476,1.365
0.012983639680011634,1.366
0.012905929943339828,1.367
0.012830239175649464,1.368
0.012756519698898851,1.369
0.012684713570504064,1.37
0.012614753834960434,1.371
0.0125465654814422,1.372
0.012480065258212995,1.373
0.012415161342317594,1.374
0.012351755126776253,1.375
0.012289745947106596,1.376
0.012229036931183875,1.377
0.012169539223436884,1.378
0.012111172474781745,1.379
0.012053861055809372,1.38
0.011997528881805749,1.381
0.011942098231850969,1.382
0.011887493971049523,1.383
0.01183364808489151,1.384
0.011780499235688927,1.385
0.011727987734249018,1.386
0.011676051792433908,1.387
0.011624629614425248,1.388
0.01157366449687701,1.389
0.011523106935232978,1.39
0.011472911674816632,1.391
0.011423033190492678,1.392
0.011373425430940798,1.393
0.011324047394654523,1.394
0.011274869921005485,1.395
0.011225878777298475,1.396
0.011177072618644288,1.397
0.01112845686604208,1.398
0.011080036740867142,1.399
0.011031814203173253,1.4
0.010983790420452375,1.401
0.010935970159244912,1.402
0.0108883641197356,1.403
0.01084098828292155,1.404
0.010793860959854336,1.405
0.010746998598682346,1.406
0.010700411874120462,1.407
0.010654103635083139,1.408
0.010608068663258639,1.409
0.01056229378162144,1.41
0.010516758483208322,1.411
0.010471437788737745,1.412
0.010426307272057327,1.413
0.010381348125835433,1.414
0.010336550052418838,1.415
0.010291910490323884,1.416
0.01024743047231193,1.417
0.010203110961242429,1.418
0.010158954653168227,1.419
0.010114973411047088,1.42
0.010071196454821484,1.421
0.010027674841897526,1.422
0.00998448069625451,1.423
0.00994170167299195,1.424
0.00989943264955723,1.425
0.009857768191362394,1.426
0.00981679920109612,1.427
0.009776613627008532,1.428
0.009737297854361211,1.429
0.009698936472188183,1.43
0.00966161073162411,1.431
0.009625396845989438,1.432
0.00959036496547475,1.433
0.0095565791961994,1.434
0.00952409859945006,1.435
0.009492978795257654,1.436
0.009463273634051039,1.437
0.009435036392377999,1.438
0.009408320077849959,1.439
0.00938317665551185,1.44
0.009359655279091742,1.441
0.009337800027010477,1.442
0.00931764814047173,1.443
0.009299229483712142,1.444
0.009282566730347025,1.445
0.009267675281793845,1.446
0.009254562862871997,1.447
0.009243229458113653,1.448
0.009233667624409931,1.449
0.009225862581743398,1.45
0.009219792216020173,1.451
0.009215427949974592,1.452
0.009212736758771814,1.453
0.009211683469410705,1.454
0.009212232334881245,1.455
0.00921434734162537,1.456
0.009217991103596052,1.457
0.0092231227041573,1.458
0.009229695749005593,1.459
0.009237658195234907,1.46
0.0092469541180167,1.461
0.009257525980618391,1.462
0.009269316044669778,1.463
0.009282266425004963,1.464
0.00929631777602895,1.465
0.009311407003224036,1.466
0.00932746506717147,1.467
0.009344416065687769,1.468
0.009362177520211058,1.469
0.009380660554718624,1.47
0.009399769282546072,1.471
0.009419400184492919,1.472
0.00943944218832421,1.473
0.0094597769575931,1.474
0.00948027923659386,1.475
0.009500818532625733,1.476
0.00952126295800336,1.477
0.009541484090633545,1.478
0.009561360820758393,1.479
0.009580780568693938,1.48
0.0095996370105245,1.481
0.009617825357376115,1.482
0.009635239361708221,1.483
0.009651773840577605,1.484
0.009667331342985952,1.485
0.009681828593115482,1.486
0.009695199948477094,1.487
0.009707397148391984,1.488
0.00971838555851976,1.489
0.009728137725439102,1.49
0.009736626455907844,1.491
0.009743821431731754,1.492
0.009749691440806053,1.493
0.00975420951187353,1.494
0.009757357318178795,1.495
0.009759127702548005,1.496
0.00975952548249882,1.497
0.009758566805515003,1.498
0.009756277324713765,1.499
0.009752689382739568,1.5
0.009747838303619352,1.501
0.009741758212967019,1.502
0.009734478916319053,1.503
0.009726025800457902,1.504
0.009716422833672462,1.505
0.00970569662931249,1.506
0.009693879716800387,1.507
0.009681012350982883,1.508
0.009667142750095939,1.509
0.009652325840147144,1.51
0.009636620755981287,1.511
0.009620087492966051,1.512
0.009602783258787346,1.513
0.00958475941774741,1.514
0.009566060053136587,1.515
0.009546722168752825,1.516
0.009526776280580733,1.517
0.009506246355003464,1.518
0.009485149085353363,1.519
0.009463493040780278,1.52
0.009441278161917485,1.521
0.009418495673721414,1.522
0.009395128420660913,1.523
0.009371151995325407,1.524
0.009346536908928857,1.525
0.009321251475470037,1.526
0.00929526478002331,1.527
0.009268549099512191,1.528
0.009241081244511527,1.529
0.009212842477321735,1.53
0.009183816877078603,1.531
0.009153988329272188,1.532
0.009123337375690217,1.533
0.009091840472061434,1.534
0.009059473003029464,1.535
0.00902621427104352,1.536
0.008992051718203279,1.537
0.008956982819841754,1.538
0.00892101397362209,1.539
0.008884156470790695,1.54
0.008846421605953407,1.541
0.008807818898553166,1.542
0.00876835911955048,1.543
0.008728058990408669,1.544
0.008686943633328413,1.545
0.008645045509446007,1.546
0.008602400486247634,1.547
0.00855904314430075,1.548
0.008515004553446932,1.549
0.008470313832293614,1.55
0.00842500135225473,1.551
0.008379101167709851,1.552
0.008332652195434925,1.553
0.008285698460016632,1.554
0.008238288494915253,1.555
0.008190473685381519,1.556
0.008142305526002784,1.557
0.008093833166728261,1.558
0.008045103765644842,1.559
0.007996166263678705,1.56
0.007947076006958483,1.561
0.007897897233328656,1.562
0.007848702217290653,1.563
0.00779956744990251,1.564
0.007750568809614029,1.565
0.007701778791721903,1.566
0.007653266888621156,1.567
0.007605100773303298,1.568
0.007557345885984161,1.569
0.0075100637178081315,1.57
0.007463310707777917,1.571
0.0074171386114034905,1.572
0.007371595014980256,1.573
0.007326722912222956,1.574
0.007282560633048016,1.575
0.0072391435942348575,1.576
0.007196506984226682,1.577
0.007154687459010849,1.578
0.007113722915137031,1.579
0.007073650566642319,1.58
0.007034504678779901,1.581
0.006996315828149963,1.582
0.006959112102284485,1.583
0.006922920723881911,1.584
0.006887768677020076,1.585
0.006853682155799343,1.586
0.006820685282211292,1.587
0.0067887985961151,1.588
0.0067580377278819775,1.589
0.006728412564061526,1.59
0.006699927084823009,1.591
0.006672579793173256,1.592
0.006646364467403035,1.593
0.006621271012918537,1.594
0.006597286272732847,1.595
0.006574394655638024,1.596
0.0065525784545559795,1.597
0.00653181780350286,1.598
0.006512090327974965,1.599
0.0064933706327939275,1.6
0.006475629797110203,1.601
0.006458834986221436,1.602
0.006442949162750169,1.603
0.006427930743231004,1.604
0.006413733150281207,1.605
0.006400304700985512,1.606
0.006387589447746218,1.607
0.006375528957320448,1.608
0.006364064409676404,1.609
0.00635313839424827,1.61
0.00634269599006049,1.611
0.00633268490343138,1.612
0.00632305463488772,1.613
0.006313754817935814,1.614
0.006304733128430258,1.615
0.006295933671869109,1.616
0.006287296875948306,1.617
0.0062787609467395075,1.618
0.006270263943057833,1.619
0.006261745653470638,1.62
0.006253149036890493,1.621
0.006244421183414453,1.622
0.006235513681702839,1.623
0.00622638215685225,1.624
0.006216984668142902,1.625
0.0062072792231252045,1.626
0.0061972221503900984,1.627
0.006186769345041136,1.628
0.006175880094071554,1.629
0.006164521216120959,1.63
0.006152669641386823,1.631
0.006140312707236186,1.632
0.00612744616598111,1.633
0.006114070380715473,1.634
0.006100186024353205,1.635
0.006085791617949165,1.636
0.006070884196850387,1.637
0.006055461635558806,1.638
0.00603952452620239,1.639
0.006023076976430118,1.64
0.006006126572200723,1.641
0.0059886838019845645,1.642
0.005970761142546886,1.643
0.0059523719157092885,1.644
0.005933529009085711,1.645
0.005914243606312277,1.646
0.00589452412758217,1.647
0.005874375567886704,1.648
0.005853799315197063,1.649
0.005832793369827142,1.65
0.005811352731680012,1.651
0.005789469624744971,1.652
0.005767133216896187,1.653
0.005744328943064182,1.654
0.005721038504275591,1.655
0.005697241599123575,1.656
0.005672919051946496,1.657
0.0056480562181672606,1.658
0.005622645847956009,1.659
0.005596689874302097,1.66
0.0055701997223227785,1.661
0.005543194940098269,1.662
0.005515700204545182,1.663
0.005487741557062139,1.664
0.005459344065939645,1.665
0.005430532642001985,1.666
0.005401335005666455,1.667
0.0053717844861238765,1.668
0.005341921433586679,1.669
0.005311793141722496,1.67
0.0052814525296078375,1.671
0.0052509559343901875,1.672
0.005220360400621411,1.673
0.005189721111172653,1.674
0.00515909000083279,1.675
0.005128515976735041,1.676
0.005098045804278715,1.677
0.005067724530513612,1.678
0.005037595148880462,1.679
0.005007697769007134,1.68
0.004978068858904318,1.681
0.004948741102681394,1.682
0.004919743810073315,1.683
0.004891103332443008,1.684
0.00486284314541856,1.685
0.004834983664078881,1.686
0.004807541986859692,1.687
0.004780531672886463,1.688
0.00475396252448717,1.689
0.004727840446780066,1.69
0.004702167783846168,1.691
0.004676944462170714,1.692
0.004652169693999097,1.693
0.004627843642612167,1.694
0.0046039685249157645,1.695
0.004580548778153602,1.696
0.004557590080393191,1.697
0.0045350976015959546,1.698
0.004513074908183971,1.699
0.004491524805310119,1.7
0.004470451551741009,1.701
0.004449862755135472,1.702
0.004429769826497821,1.703
0.004410186716085969,1.704
0.004391127628226033,1.705
0.0043726056734263805,1.706
0.004354633882582011,1.707
0.004337227561016533,1.708
0.0043204059839681225,1.709
0.0043041925055804335,1.71
0.004288613127319869,1.711
0.004273694207878729,1.712
0.0042594607106553025,1.713
0.004245936106797734,1.714
0.0042331434920263086,1.715
0.004221106584101376,1.716
0.004209849872655539,1.717
0.004199397978224715,1.718
0.004189774545434074,1.719
0.00418100103671007,1.72
0.004173095810145539,1.721
0.004166073751228686,1.722
0.004159946380077527,1.723
0.004154722106423304,1.724
0.004150406431873685,1.725
0.004147002102576893,1.726
0.004144509228368554,1.727
0.004142925302800245,1.728
0.00414224501462107,1.729
0.004142459944084939,1.73
0.004143558659547441,1.731
0.004145527664513187,1.732
0.004148352970301068,1.733
0.004152021685110425,1.734
0.004156523115538051,1.735
0.004161849020881378,1.736
0.004167992810574729,1.737
0.0041749479227812586,1.738
0.004182706436865458,1.739
0.004191259105155698,1.74
0.004200596672423562,1.741
0.004210711151226853,1.742
0.00422159600345542,1.743
0.004233245062523705,1.744
0.0042456508773086625,1.745
0.004258803832203845,1.746
0.004272692692798986,1.747
0.004287305573136045,1.748
0.004302630015443391,1.749
0.0043186521181357565,1.75
0.0043353559753634,1.751
0.004352724628205501,1.752
0.004370742189132847,1.753
0.004389395869967498,1.754
0.004408677071221582,1.755
0.004428581266898987,1.756
0.0044491067034656585,1.757
0.0044702522755307025,1.758
0.004492015578154932,1.759
0.004514392375379948,1.76
0.00453737760829357,1.761
0.00456096673164846,1.762
0.004585156290809495,1.763
0.004609943537486275,1.764
0.004635325360643544,1.765
0.004661296951771263,1.766
0.004687850656534793,1.767
0.004714975381729788,1.768
0.004742656752063679,1.769
0.004770877992637831,1.77
0.004799621300320475,1.771
0.004828869302536919,1.772
0.0048586061230390075,1.773
0.0048888176164187044,1.774
0.004919490510980598,1.775
0.004950610735153902,1.776
0.004982162108864707,1.777
0.005014126614444794,1.778
0.0050464860067451515,1.779
0.0050792234229713835,1.78
0.005112324037475571,1.781
0.0051457745725211335,1.782
0.005179561866313101,1.783
0.0052136709986698865,1.784
0.005248083790362818,1.785
0.005282778222690273,1.786
0.005317728388709014,1.787
0.005352904402985329,1.788
0.005388272676970039,1.789
0.005423797220409689,1.79
0.005459441622491368,1.791
0.005495170789912247,1.792
0.005530951791941473,1.793
0.005566753482808348,1.794
0.005602544907455355,1.795
0.005638293380266606,1.796
0.005673964018048585,1.797
0.00570952157357709,1.798
0.00574493332282587,1.799
0.005780171316999714,1.8
0.0058152133099573875,1.801
0.005850042343944993,1.802
0.005884645234566315,1.803
0.005919010357102286,1.804
0.005953125176367589,1.805
0.005986974037667974,1.806
0.006020536854285916,1.807
0.006053788917943286,1.808
0.006086701258508599,1.809
0.006119240868516326,1.81
0.006151370653436733,1.811
0.0061830493263386275,1.812
0.006214231506312951,1.813
0.006244868195968082,1.814
0.006274907664758215,1.815
0.006304296614535271,1.816
0.006332981415475879,1.817
0.0063609091943508875,1.818
0.0063880286037648285,1.819
0.0064142901521535125,1.82
0.006439645994732419,1.821
0.006464049074826108,1.822
0.006487451500328261,1.823
0.006509802571701205,1.824
0.006531048009028244,1.825
0.006551131663335638,1.826
0.006569998999753481,1.827
0.006587600717900623,1.828
0.0066038954798146084,1.829
0.006618851166252835,1.83
0.006632444241151358,1.831
0.006644657069836903,1.832
0.00665547395369792,1.833
0.006664878361094134,1.834
0.00667285379206176,1.835
0.006679387671950341,1.836
0.006684475436772487,1.837
0.006688122701831918,1.838
0.006690344812909117,1.839
0.006691163803936617,1.84
0.006690603918384941,1.841
0.006688688658286396,1.842
0.006685441768961301,1.843
0.006680890934657874,1.844
0.006675070988353286,1.845
0.006668024739164682,1.846
0.006659801125844703,1.847
0.006650451517576382,1.848
0.006640026403327933,1.849
0.006628574892757895,1.85
0.006616146955925342,1.851
0.006602796000383611,1.852
0.006588579904698078,1.853
0.0065735602021686195,1.854
0.0065577998207671075,1.855
0.006541360231695189,1.856
0.006524299502310699,1.857
0.006506672346652558,1.858
0.006488531570552165,1.859
0.006469929455734619,1.86
0.00645091830633478,1.861
0.006431550125563853,1.862
0.006411875623375622,1.863
0.006391942815000011,1.864
0.006371795583953504,1.865
0.006351472744750155,1.866
0.006331007926303463,1.867
0.006310429990139168,1.868
0.006289763469324542,1.869
0.006269028826567172,1.87
0.006248242599657002,1.871
0.0062274175275321845,1.872
0.0062065626770883885,1.873
0.006185683507092003,1.874
0.006164781756660993,1.875
0.006143855060963623,1.876
0.006122896363593236,1.877
0.006101893503530623,1.878
0.006080829358146086,1.879
0.006059682447935857,1.88
0.006038427603096434,1.881
0.00601703647140181,1.882
0.00599547789247533,1.883
0.005973718229709537,1.884
0.005951721695105952,1.885
0.005929450579706037,1.886
0.00590686516998308,1.887
0.005883923124071812,1.888
0.005860578612887709,1.889
0.005836782397686227,1.89
0.00581248367464009,1.891
0.005787632955049128,1.892
0.005762184554329357,1.893
0.005736097725340307,1.894
0.005709335964222569,1.895
0.005681864667746469,1.896
0.00565364872429819,1.897
0.005624652483553591,1.898
0.005594842783151597,1.899
0.005564193048619982,1.9
0.005532686186375837,1.901
0.005500315239000109,1.902
0.005467081577666407,1.903
0.005432991176325671,1.904
0.005398051065576553,1.905
0.005362268783921124,1.906
0.005325655265102793,1.907
0.0052882285574707205,1.908
0.005250015834617758,1.909
0.005211052969834312,1.91
0.005171381998426867,1.911
0.005131047412222934,1.912
0.005090093046172879,1.913
0.005048561203259001,1.914
0.0050064937741084465,1.915
0.004963933522340869,1.916
0.004920924243415996,1.917
0.004877509733964666,1.918
0.004833732168441165,1.919
0.0047896308780887055,1.92
0.004745242285259084,1.921
0.004700600681445375,1.922
0.004655738928256893,1.923
0.004610688545448483,1.924
0.004565479155799267,1.925
0.004520137612651605,1.926
0.004474687548876964,1.927
0.004429149925387391,1.928
0.004383544320590008,1.929
0.004337890316048076,1.93
0.0042922086101525436,1.931
0.004246521717758645,1.932
0.004200854163425873,1.933
0.004155232121082324,1.934
0.004109682520940745,1.935
0.004064231727003323,1.936
0.004018904143730961,1.937
0.003973721479245209,1.938
0.003928703082054922,1.939
0.0038838668628139467,1.94
0.003839230101947237,1.941
0.0037948099462144108,1.942
0.0037506237203100974,1.943
0.0037066892249216716,1.944
0.0036630251414234895,1.945
0.003619651540628976,1.946
0.0035765903523289214,1.947
0.0035338655650549626,1.948
0.003491502936485323,1.949
0.0034495290981046457,1.95
0.0034079702382582757,1.951
0.0033668510842351645,1.952
0.0033261949737757052,1.953
0.00328602493683437,1.954
0.0032463649681587084,1.955
0.0032072408878355864,1.956
0.0031686806805021057,1.957
0.0031307143887624365,1.958
0.0030933736466469686,1.959
0.0030566909301304127,1.96
0.0030206986076111468,1.961
0.0029854279261854115,1.962
0.0029509081990313764,1.963
0.002917166491453554,1.964
0.0028842277881437374,1.965
0.0028521152729015947,1.966
0.002820850427892687,1.967
0.002790452934196839,1.968
0.0027609404749096155,1.969
0.0027323285502657713,1.97
0.0027046303915208613,1.971
0.002677857005799087,1.972
0.002652017314546758,1.973
0.002627118296061432,1.974
0.0026031650365288257,1.975
0.002580160637470259,1.976
0.0025581060334520446,1.977
0.0025369998951273376,1.978
0.0025168387376197725,1.979
0.0024976171553514974,1.98
0.002479328056265652,1.981
0.0024619628616430857,1.982
0.0024455116713296412,1.983
0.0024299633661401363,1.984
0.0024153055987649543,1.985
0.00240152463969438,1.986
0.0023886050989912564,1.987
0.002376529622356604,1.988
0.0023652786959589417,1.989
0.002354830596735944,1.99
0.002345161397116658,1.991
0.0023362449631047955,1.992
0.0023280529898529294,1.993
0.0023205551501361142,1.994
0.0023137194137026807,1.995
0.0023075125715059544,1.996
0.00230190096282905,1.997
0.0022968513526384444,1.998
0.002292331850116495,1.999
0.0022883127136933907,2.0
0.002284766868384557,2.001
0.0022816699797519385,2.002
0.0022789999921722336,2.003
0.0022767361382380557,2.004
