VaMe,time
-0.002542642889826494,0.001
0.008002061894079262,0.002
0.01805723972946675,0.003
0.027182962689706266,0.004
0.034683174185079976,0.005
0.03938123502383828,0.006
0.03984119049591507,0.007
0.03500976437955846,0.008
0.0247201450127747,0.009
0.009676261320220167,0.01
-0.008839043508877872,0.011
-0.02915527241118349,0.012
-0.049269847066832725,0.013
-0.0668313553147909,0.014
-0.0790355647663945,0.015
-0.08267889614948502,0.016
-0.07490459003783746,0.017
-0.054663006117712784,0.018
-0.023892044854897904,0.019
0.012673118918871924,0.02
0.04899799295354522,0.021
0.07947477868577583,0.022
0.10000732587676918,0.023
0.10843724394917305,0.024
0.10464573504769205,0.025
0.0903911348735026,0.026
0.06882741225811524,0.027
0.04385644852654386,0.028
0.01937507550961414,0.029
-0.0016088436021187286,0.03
-0.017662795455855324,0.031
-0.028998396060856992,0.032
-0.03691501148353196,0.033
-0.04296565417010189,0.034
-0.04820878715034066,0.035
-0.05273871715966908,0.036
-0.05559780460345367,0.037
-0.055142133285242964,0.038
-0.049797019148371466,0.039
-0.0389025372537819,0.04
-0.023195688717309995,0.041
-0.0046644755693905585,0.042
0.014052849873992088,0.043
0.030322761714696746,0.044
0.04198034604519811,0.045
0.047616792376414974,0.046
0.04676096691138014,0.047
0.03988578481926518,0.048
0.028156048586712893,0.049
0.013044965955513809,0.05
-0.003911287199200359,0.051
-0.021100732092346558,0.052
-0.03672605518370349,0.053
-0.048853829242013314,0.054
-0.05572118162106835,0.055
-0.0561488185575272,0.056
-0.04986214383554866,0.057
-0.03772626514226684,0.058
-0.02182109510416749,0.059
-0.004960538926999782,0.06
0.01042534022971438,0.061
0.023281408796964147,0.062
0.03386134260866356,0.063
0.0426295134991687,0.064
0.04925206150781222,0.065
0.05269534517392368,0.066
0.05218074504445002,0.067
0.04784860285772129,0.068
0.040458231639241914,0.069
0.03059119674662912,0.07
0.018231103038775755,0.071
0.0030513065606039575,0.072
-0.014815327084651525,0.073
-0.03403974721197585,0.074
-0.051901779974026445,0.075
-0.06476718079294763,0.076
-0.06917754759695315,0.077
-0.06329870689218417,0.078
-0.047854154190191255,0.079
-0.025772670914345444,0.08
-0.0009804392663944634,0.081
0.022681541351894787,0.082
0.04211302089128946,0.083
0.05531733662798228,0.084
0.061403524392699686,0.085
0.06031688422828734,0.086
0.05275788001288135,0.087
0.040337159756882256,0.088
0.025398170006784637,0.089
0.010290588559742148,0.09
-0.0034224825135900226,0.091
-0.0152939682233572,0.092
-0.025735114381679802,0.093
-0.03539620301995996,0.094
-0.04449489364120548,0.095
-0.052341496922830494,0.096
-0.057283449567018314,0.097
-0.05724628265508281,0.098
-0.05086687038888032,0.099
-0.03869944641176705,0.1
-0.023475832483089355,0.101
-0.008950651916085269,0.102
0.0019322355523372185,0.103
0.008435121793302629,0.104
0.012189084413034857,0.105
0.015962060774901424,0.106
0.021910757244641796,0.107
0.03050624702237812,0.108
0.04055068622374669,0.109
0.04993418892661215,0.11
0.05646714064672942,0.111
0.05843132610634668,0.112
0.054902933514527755,0.113
0.04580697231347068,0.114
0.03175751930585483,0.115
0.013912489484681965,0.116
-0.0061134825201154775,0.117
-0.02630255402167286,0.118
-0.044363724791315944,0.119
-0.05808963244722372,0.12
-0.06577303822302154,0.121
-0.06639683228578186,0.122
-0.05962931303180134,0.123
-0.045908591195524984,0.124
-0.026699419692144916,0.125
-0.0045953860996389125,0.126
0.01708182980068334,0.127
0.03508319359702945,0.128
0.046983267687184235,0.129
0.05157369228757528,0.13
0.04892220553861759,0.131
0.04024856393977674,0.132
0.02765624896416184,0.133
0.013619099898153858,0.134
0.000277186644947233,0.135
-0.011104566035388888,0.136
-0.02021899159049564,0.137
-0.027351720455392192,0.138
-0.03281204305959958,0.139
-0.03651560929446116,0.14
-0.03791537617029445,0.141
-0.03620834571270538,0.142
-0.030719977911059338,0.143
-0.0213484537971809,0.144
-0.008824538245284789,0.145
0.005324006850961853,0.146
0.018987413517864055,0.147
0.02985063662875132,0.148
0.035997201465857886,0.149
0.03653588675277752,0.15
0.03188541738480818,0.151
0.023602231613063056,0.152
0.013860935161237374,0.153
0.004750148260244637,0.154
-0.002277050434947718,0.155
-0.006491179401396532,0.156
-0.007647684717665285,0.157
-0.005802721854729776,0.158
-0.001379742352398113,0.159
0.004641857642145157,0.16
0.01070325921191637,0.161
0.01494844690712219,0.162
0.0156752601051699,0.163
0.011696839195373789,0.164
0.0025214256036459907,0.165
-0.011521278060499412,0.166
-0.0291067172975033,0.167
-0.047741152021310754,0.168
-0.06370942359111878,0.169
-0.07244852755251557,0.17
-0.06975541929400982,0.171
-0.053606955745651295,0.172
-0.025465366657787293,0.173
0.009872510581367733,0.174
0.04572040907701893,0.175
0.07542137703194311,0.176
0.0940200235595411,0.177
0.09927222326582741,0.178
0.09183390039405483,0.179
0.07475568001722226,0.18
0.05256854099698812,0.181
0.030080021522569583,0.182
0.011027731101728354,0.183
-0.002886964434404401,0.184
-0.012225791824498303,0.185
-0.019447019961851105,0.186
-0.028060780111926347,0.187
-0.04139581409510866,0.188
-0.06139336918428394,0.189
-0.08781601733454213,0.19
-0.11789222354817593,0.191
-0.14630131392331772,0.192
-0.1655653532104896,0.193
-0.1672757790699468,0.194
-0.1447299815459715,0.195
-0.09629248289677213,0.196
-0.02717539828924352,0.197
0.0518604390619947,0.198
0.12800911596490228,0.199
0.19002231511657708,0.2
0.2301673237514789,0.201
0.24432915366659178,0.202
0.23168626266461886,0.203
0.19521331403148795,0.204
0.1421116117413461,0.205
0.08222350179527022,0.206
0.02467798650789824,0.207
-0.02477853070325869,0.208
-0.06425409894636212,0.209
-0.09453955719828101,0.21
-0.1174791584256631,0.211
-0.13456181418023075,0.212
-0.1460173840787279,0.213
-0.15068748736500603,0.214
-0.14661153075513686,0.215
-0.1318647768677705,0.216
-0.10556287953391189,0.217
-0.06909320005989153,0.218
-0.0266289953757512,0.219
0.016060517169710888,0.22
0.053669379179157484,0.221
0.08260817690607503,0.222
0.10104508435288552,0.223
0.10850265114667569,0.224
0.10559761653605608,0.225
0.09393976937777847,0.226
0.07601337737225387,0.227
0.054783128411541815,0.228
0.03302111178415344,0.229
0.012760258059690421,0.23
-0.004931126244336659,0.231
-0.019929765685476417,0.232
-0.032777939544673146,0.233
-0.044178380297735624,0.234
-0.05442260007359255,0.235
-0.06288954161477898,0.236
-0.06783346325277809,0.237
-0.06687653736065616,0.238
-0.058282715127872885,0.239
-0.04217385570488599,0.24
-0.020694885970759174,0.241
0.0027982150708219045,0.242
0.024718603644696673,0.243
0.041946142360132464,0.244
0.05225163598634743,0.245
0.054526695579034126,0.246
0.04899964395867002,0.247
0.037533340805661446,0.248
0.02348217521412155,0.249
0.010626266336849434,0.25
0.0017781683287878833,0.251
-0.0020661104621162935,0.252
-0.0018905080877379245,0.253
-0.00025663188891095147,0.254
-0.00031446889704525637,0.255
-0.00443809064076043,0.256
-0.013157766700575585,0.257
-0.024982091622999438,0.258
-0.037001051023516744,0.259
-0.045826107403239544,0.26
-0.04864682544827248,0.261
-0.04415832452108563,0.262
-0.03289118547585688,0.263
-0.0168025478129145,0.264
0.001394754586143217,0.265
0.01883064506648161,0.266
0.03313850288635343,0.267
0.04304440076006636,0.268
0.04845840916560701,0.269
0.05005336980881965,0.27
0.04871847239600982,0.271
0.045188440379618465,0.272
0.039903587560162504,0.273
0.03297915194600852,0.274
0.024138139726145667,0.275
0.012731788910575206,0.276
-0.001885801231106285,0.277
-0.019723759737761092,0.278
-0.03966971124209796,0.279
-0.05942411664851487,0.28
-0.0758124270527439,0.281
-0.08534105208520668,0.282
-0.08497205461808428,0.283
-0.07302552117345364,0.284
-0.04992511417672029,0.285
-0.01846173588097844,0.286
0.01660548936894527,0.287
0.04951361702772009,0.288
0.07474279856082078,0.289
0.08828224741923042,0.29
0.0886130802874676,0.291
0.07696097599921296,0.292
0.05657288757917959,0.293
0.03149384654992186,0.294
0.005681443471392384,0.295
-0.01738387847414904,0.296
-0.035081405149563524,0.297
-0.0461201823935649,0.298
-0.0506492641486744,0.299
-0.049812502588697995,0.3
-0.04507126972581642,0.301
-0.037734008321921315,0.302
-0.02890560450891969,0.303
-0.0196260024349628,0.304
-0.01074250815751497,0.305
-0.002582419242389542,0.306
0.005091268626574916,0.307
0.01274333356568848,0.308
0.020581877389493065,0.309
0.0282047911340488,0.31
0.03464983309290787,0.311
0.0387524966941026,0.312
0.039439522893243206,0.313
0.03591376191743963,0.314
0.027970957156522324,0.315
0.01635742643345495,0.316
0.00275541153079786,0.317
-0.010702469288340228,0.318
-0.022074492272338403,0.319
-0.03005086731714234,0.32
-0.034034409184803605,0.321
-0.0339809197484095,0.322
-0.030251633054191544,0.323
-0.02361544462754977,0.324
-0.015291853492741998,0.325
-0.006763279452468566,0.326
0.0007196250157492139,0.327
0.00658135061917664,0.328
0.010894197641195296,0.329
0.01395698370090479,0.33
0.01588259594163807,0.331
0.01644635037389321,0.332
0.015249672506369247,0.333
0.012109200518578752,0.334
0.007447028658582527,0.335
0.002351018183427897,0.336
-0.0018919359938060131,0.337
-0.004478246937755746,0.338
-0.005472059828912757,0.339
-0.005683207921714013,0.34
-0.006113407513071971,0.341
-0.007304768163342831,0.342
-0.009019025723315808,0.343
-0.010355832986377737,0.344
-0.01015950536087659,0.345
-0.007628410400099983,0.346
-0.0029611188082063287,0.347
0.0024233295275840326,0.348
0.006480511518011326,0.349
0.007715573280884438,0.35
0.006096468578013322,0.351
0.0030194374416206353,0.352
0.000493796204773218,0.353
0.0002204098269769282,0.354
0.0029839017436909835,0.355
0.008412325204092477,0.356
0.015049332041600314,0.357
0.020713451874400168,0.358
0.023092806919910464,0.359
0.020360000997802514,0.36
0.011578807325404096,0.361
-0.0030338984505218877,0.362
-0.021813976017584103,0.363
-0.04146921373234123,0.364
-0.05740899292285727,0.365
-0.06484734016353373,0.366
-0.06048571093340535,0.367
-0.04393732928964764,0.368
-0.017992667503664864,0.369
0.012275543935048493,0.37
0.04086746195449803,0.371
0.06221233309639436,0.372
0.07246661711368753,0.373
0.07053832516510176,0.374
0.058336767918720736,0.375
0.04001810336083439,0.376
0.02049836454591606,0.377
0.0038417836099686035,0.378
-0.007715185011597093,0.379
-0.01382298789831211,0.38
-0.01556275886984341,0.381
-0.014850408288430676,0.382
-0.013813999612740675,0.383
-0.014274912392347164,0.384
-0.017430415193335352,0.385
-0.0237044402386442,0.386
-0.03268800550503009,0.387
-0.04311856447436508,0.388
-0.05296043171033468,0.389
-0.059683643469581577,0.39
-0.06069500298436937,0.391
-0.05387481154821877,0.392
-0.03831044399898141,0.393
-0.015085072411578625,0.394
0.01253028361494451,0.395
0.039912141065896904,0.396
0.06245963215856675,0.397
0.07679603427957299,0.398
0.08150388910330089,0.399
0.07721160120623065,0.4
0.06598829859311671,0.401
0.0504590019725152,0.402
0.033163907698372005,0.403
0.016263915086350295,0.404
0.0013995708924731424,0.405
-0.010379583557164618,0.406
-0.018602106066387545,0.407
-0.02331729124622271,0.408
-0.025034460722861297,0.409
-0.024639576946251154,0.41
-0.02323751648871704,0.411
-0.02191362843321584,0.412
-0.021472713908874383,0.413
-0.022245613502756927,0.414
-0.024049493663551278,0.415
-0.026299496263250597,0.416
-0.02819150558014912,0.417
-0.028893760474942593,0.418
-0.02772393366344951,0.419
-0.024308740707194996,0.42
-0.018687321625119862,0.421
-0.011280667586925107,0.422
-0.0027380493003577003,0.423
0.006200983031121199,0.424
0.014739849126272839,0.425
0.022050514044630008,0.426
0.027408772205524776,0.427
0.03037648691849346,0.428
0.030875255072891662,0.429
0.029103190120273223,0.43
0.025398701511294614,0.431
0.02015940530720352,0.432
0.013863162093770654,0.433
0.00715727182583846,0.434
0.0008122036765432762,0.435
-0.0045482975436686975,0.436
-0.008676744395045479,0.437
-0.011670160374370341,0.438
-0.013750135135186012,0.439
-0.015007602303617161,0.44
-0.015232111687684758,0.441
-0.01393797980052591,0.442
-0.010658553940601828,0.443
-0.005420152415785956,0.444
0.0009627117211809931,0.445
0.007103998168351699,0.446
0.011631347552334994,0.447
0.013708250038882331,0.448
0.01324486841762666,0.449
0.010795179944667692,0.45
0.007245491989304608,0.451
0.0034570348687868228,0.452
3.616661787975129e-05,0.453
-0.0027331184840867153,0.454
-0.004847772805972519,0.455
-0.006412332354502127,0.456
-0.007440183032661787,0.457
-0.007844926589212858,0.458
-0.007571798071387875,0.459
-0.006682009218883925,0.46
-0.005359245621370946,0.461
-0.0039051801444110923,0.462
-0.0027529209845442567,0.463
-0.002436500722165557,0.464
-0.00345078079611524,0.465
-0.006067631054654619,0.466
-0.010234681818509587,0.467
-0.015537415104971503,0.468
-0.021107067525224708,0.469
-0.025525324758353188,0.47
-0.026951628133561494,0.471
-0.023637131442665132,0.472
-0.014752212172149962,0.473
-0.0010916702153944018,0.474
0.014938420459103726,0.475
0.030143909764189864,0.476
0.04161059011343339,0.477
0.04747659109196378,0.478
0.04723614578187686,0.479
0.04157623775216062,0.48
0.031933786261987694,0.481
0.02011202550167091,0.482
0.008052023241702719,0.483
-0.002478832504592335,0.484
-0.010332902243340802,0.485
-0.01523714918026944,0.486
-0.017660571074430774,0.487
-0.018449380398573433,0.488
-0.018444752495247095,0.489
-0.018189507950168746,0.49
-0.017790960632277916,0.491
-0.017011475901519503,0.492
-0.015551455713545697,0.493
-0.013325388918014717,0.494
-0.010557134689550163,0.495
-0.007671737665635468,0.496
-0.005029914149239307,0.497
-0.002669956195437144,0.498
-0.0003437544243315409,0.499
0.0021456589154636697,0.5
0.004736137615296943,0.501
0.007262271162368701,0.502
0.009623098666585214,0.503
0.011665225933347945,0.504
0.013015977453176585,0.505
0.013176554294810678,0.506
0.011820146644427513,0.507
0.009043335225241285,0.508
0.005388166535559236,0.509
0.0015888837974419997,0.51
-0.001772494139361432,0.511
-0.004433930453823116,0.512
-0.006417926667082301,0.513
-0.007914004429891165,0.514
-0.009148244583362304,0.515
-0.010266204817074912,0.516
-0.011229489745549904,0.517
-0.011750104062193276,0.518
-0.011335397958383486,0.519
-0.009481710073660507,0.52
-0.005931945960373041,0.521
-0.0008540053494050606,0.522
0.005116681169477773,0.523
0.01098475502749663,0.524
0.015655100266456418,0.525
0.01822156334544824,0.526
0.01816250119888289,0.527
0.01545214713382339,0.528
0.010549769156813745,0.529
0.00420523522543883,0.53
-0.002805846999209063,0.531
-0.009813486102142941,0.532
-0.016183736425934743,0.533
-0.021192389102929518,0.534
-0.02404496419789493,0.535
-0.024081036665855118,0.536
-0.02100756937500571,0.537
-0.015027792995990066,0.538
-0.006897122454331772,0.539
0.0020502494776719377,0.54
0.010055586597159341,0.541
0.015476619472409164,0.542
0.017524958577526412,0.543
0.016637653151670723,0.544
0.014172142348626102,0.545
0.011647732876652933,0.546
0.010045648502683637,0.547
0.009559553000089545,0.548
0.009772157825925087,0.549
0.009982904878815113,0.55
0.009506053559681074,0.551
0.0078981132509407,0.552
0.005080702152087662,0.553
0.00133907840812315,0.554
-0.0027614070719223166,0.555
-0.006551962665167572,0.556
-0.009535921915019884,0.557
-0.011586924742094025,0.558
-0.01291207367104935,0.559
-0.013842601584995782,0.56
-0.014594801180691935,0.561
-0.015107971184950829,0.562
-0.015026754932739111,0.563
-0.013848327806231762,0.564
-0.011174632975353663,0.565
-0.0069303170877153125,0.566
-0.0014492012337923442,0.567
0.00455692186375124,0.568
0.010110019776390124,0.569
0.014175370407283963,0.57
0.01599449531611882,0.571
0.015431437118809174,0.572
0.01306218992419615,0.573
0.00984892318081647,0.574
0.006623423616064226,0.575
0.003780274691077903,0.576
0.0013154672750244423,0.577
-0.0009469416696128934,0.578
-0.0031453739728526543,0.579
-0.005308489742732031,0.58
-0.007392052016402042,0.581
-0.009313918622356232,0.582
-0.010943395000827312,0.583
-0.012077345857088119,0.584
-0.01244399985355332,0.585
-0.011766980648548538,0.586
-0.009887529704017909,0.587
-0.006877394120893261,0.588
-0.0030673795901150157,0.589
0.0010091642210973075,0.59
0.004718614104017752,0.591
0.007481398238538961,0.592
0.008981967990354566,0.593
0.009307578060282908,0.594
0.008858089090518858,0.595
0.008095378039424454,0.596
0.007342282249517412,0.597
0.006706537440854603,0.598
0.00609748323985997,0.599
0.0053160028363634865,0.6
0.004195848855151521,0.601
0.0027213816329640602,0.602
0.0010362959945638128,0.603
