VaMe,time
-0.00034960952710546173,0.001
-0.0005066280989029652,0.002
-0.0008518522162980668,0.003
-0.001512953783092069,0.004
-0.0025430950647958046,0.005
-0.003912054492815443,0.006
-0.0055039408682265555,0.007
-0.007153001688977384,0.008
-0.00867187587085206,0.009
-0.009817603936176249,0.01
-0.010280854846606118,0.011
-0.009812272300325785,0.012
-0.008389025118255164,0.013
-0.006243590536899287,0.014
-0.003768203739988927,0.015
-0.0013813988292972431,0.016
0.0006314716021460634,0.017
0.002239846181266957,0.018
0.0036409161534595013,0.019
0.0050896871307486964,0.02
0.006705569787493651,0.021
0.008374047315672392,0.022
0.009793447806255814,0.023
0.010617824378400306,0.024
0.010591627850430238,0.025
0.009617243066175203,0.026
0.007765298060410343,0.027
0.005253467353883875,0.028
0.0024109002731574677,0.029
-0.00035481225950406367,0.03
-0.0026055038930557555,0.031
-0.003974818254925114,0.032
-0.004291663736846728,0.033
-0.0036493775467802197,0.034
-0.0023913848866148942,0.035
-0.0010156377504271707,0.036
-2.331743879718949e-05,0.037
0.0002408092692233606,0.038
-0.00030266165277363893,0.039
-0.0014672260771169702,0.04
-0.0029036881869795345,0.041
-0.00423776468476436,0.042
-0.0051764764842937095,0.043
-0.00555626445899597,0.044
-0.0053535567901054,0.045
-0.004687815655306258,0.046
-0.003799346271659805,0.047
-0.0029702818375126573,0.048
-0.002410892084911565,0.049
-0.002175848235947542,0.05
-0.0021451400181139437,0.051
-0.0020512250705046883,0.052
-0.0015480656475010924,0.053
-0.00034532263047155627,0.054
0.001626234747223999,0.055
0.004130491084065853,0.056
0.0067006718096979025,0.057
0.00880668008191697,0.058
0.010004521977863305,0.059
0.01005666494986415,0.06
0.009011518490806896,0.061
0.0071640209694467894,0.062
0.00491141635932538,0.063
0.00263295738784421,0.064
0.0006454040154209007,0.065
-0.0008322252120178964,0.066
-0.0017263697442037832,0.067
-0.002118594160814095,0.068
-0.0022106677485405693,0.069
-0.0022801517596701764,0.07
-0.0026320411384999254,0.071
-0.0035290693880554035,0.072
-0.00510827657812411,0.073
-0.007311605590160066,0.074
-0.009831872007662711,0.075
-0.012069487941454885,0.076
-0.013167596893588105,0.077
-0.012238814803429482,0.078
-0.008770992488946456,0.079
-0.002990949277358002,0.08
0.0040727737163100425,0.081
0.010905731473709974,0.082
0.016046228589904208,0.083
0.018548750665648095,0.084
0.018148702870799033,0.085
0.015165675279190586,0.086
0.010330959790300118,0.087
0.004632806121735094,0.088
-0.0008656299819136244,0.089
-0.005273964048261062,0.09
-0.00809409600750428,0.091
-0.00927675013237834,0.092
-0.009106866383336415,0.093
-0.008027957340356452,0.094
-0.0065018636877649345,0.095
-0.004911055864500839,0.096
-0.0034871871297904593,0.097
-0.0023014054087632414,0.098
-0.0013333823259440544,0.099
-0.000550402761905136,0.1
7.119474535509593e-05,0.101
0.0005628019844779957,0.102
0.000964705532525592,0.103
0.0013090971908831038,0.104
0.0016151622348185282,0.105
0.0018988148236547381,0.106
0.0021826950725542947,0.107
0.002494457791586444,0.108
0.002843490492558304,0.109
0.003189088206950198,0.11
0.003429126099765788,0.111
0.003427941158728901,0.112
0.003085428768785274,0.113
0.0024167633428247835,0.114
0.0015752731935052306,0.115
0.0007848374149871701,0.116
0.00023301815667627074,0.117
-3.1754813400323694e-06,0.118
3.4080895603523545e-05,0.119
0.0002211206294210362,0.12
0.00039285898801725704,0.121
0.0003797959157675135,0.122
5.4839306535167625e-05,0.123
-0.0006227491112350471,0.124
-0.001588555430414274,0.125
-0.002689370793322343,0.126
-0.0037256633731443537,0.127
-0.0045024820656709855,0.128
-0.004867573071628393,0.129
-0.004733052550719958,0.13
-0.0040984561022623725,0.131
-0.003070820112871658,0.132
-0.0018608336444876947,0.133
-0.0007391747799756583,0.134
5.4524084986899505e-05,0.135
0.0004225241470970633,0.136
0.00047112815185391043,0.137
0.0004625052355812247,0.138
0.0006763337210818465,0.139
0.0012752544848401938,0.14
0.0022393993610437674,0.141
0.0033712286416728576,0.142
0.004358701697120571,0.143
0.004884149457299464,0.144
0.004737840566219844,0.145
0.003885851268218606,0.146
0.0024751841253468645,0.147
0.0007938861108810934,0.148
-0.0007944169270085988,0.149
-0.0019457242130467931,0.15
-0.0024496960350578766,0.151
-0.0022915735283415427,0.152
-0.0016128685173205607,0.153
-0.0006229760120586474,0.154
0.0004665445602792748,0.155
0.0014656489287654317,0.156
0.002210329986710873,0.157
0.0025790678864096805,0.158
0.0025130540679532366,0.159
0.0020262210136864902,0.16
0.0012149504790873384,0.161
0.00024845996912282347,0.162
-0.0006879478944090235,0.163
-0.0014658108932067739,0.164
-0.002045216297977136,0.165
-0.00245466247477115,0.166
-0.0027519004906070726,0.167
-0.002993851019187492,0.168
-0.0032111482422908294,0.169
-0.0033796105393455616,0.17
-0.0034225922171572916,0.171
-0.0032573491498387925,0.172
-0.0028292440043012003,0.173
-0.002105276170839078,0.174
-0.0010673837611407876,0.175
0.00026166877311687765,0.176
0.001785246659169611,0.177
0.0033374385119064086,0.178
0.0047158086102377424,0.179
0.00571012892090053,0.18
0.006138231945233354,0.181
0.00589667190557388,0.182
0.004986964881881078,0.183
0.0035036919033642464,0.184
0.0016316219803555808,0.185
-0.00034585628661534443,0.186
-0.0020921013771854216,0.187
-0.00332567627029147,0.188
-0.003913790931970229,0.189
-0.0038803765915765413,0.19
-0.0033445129821497934,0.191
-0.002461375719271486,0.192
-0.0014005554280632397,0.193
-0.00033392923298073893,0.194
0.0005915344220753739,0.195
0.0012769098396696159,0.196
0.001669776422281493,0.197
0.0017486746299754197,0.198
0.0015182649828318693,0.199
0.0010171502573524385,0.2
0.00030563074414865284,0.201
-0.0005647963177595412,0.202
-0.00154440644304554,0.203
-0.002531102193066843,0.204
-0.0033344116502470084,0.205
-0.003715377773541985,0.206
-0.003487495400354918,0.207
-0.0026074400047774574,0.208
-0.0011989781565787962,0.209
0.0004888331393719902,0.21
0.0021447444321918297,0.211
0.003447625326416363,0.212
0.004121328195487433,0.213
0.004009130137902615,0.214
0.003145685534693064,0.215
0.0017776588614978198,0.216
0.0003026452675187178,0.217
-0.0008503779001364752,0.218
-0.00135720942742621,0.219
-0.0011235325572074635,0.22
-0.0003334093491175391,0.221
0.0006389887000662384,0.222
0.0013936666220845369,0.223
0.001642840381240204,0.224
0.00129007565449421,0.225
0.00044424325805376367,0.226
-0.0006405524953398228,0.227
-0.0016792289167164105,0.228
-0.0024634233025294223,0.229
-0.002894047073913624,0.23
-0.002932333521434899,0.231
-0.0025460880196760075,0.232
-0.0017220242140087493,0.233
-0.0005221433163488403,0.234
0.000887282231992044,0.235
0.002261319910635725,0.236
0.003337311709757722,0.237
0.0039073002150102985,0.238
0.0038716430449681773,0.239
0.003246787017561818,0.24
0.002141088525644309,0.241
0.0007346150652801515,0.242
-0.0007347310255093723,0.243
-0.002002977739109126,0.244
-0.002836479046806866,0.245
-0.0030967215605255715,0.246
-0.0027784345876100767,0.247
-0.0019869419403496166,0.248
-0.0008734922732188924,0.249
0.0004085182929114238,0.25
0.0016986890749719342,0.251
0.0028205370129317014,0.252
0.003608697491664845,0.253
0.0039371613267209175,0.254
0.0037176362130983457,0.255
0.0029101513227370573,0.256
0.0015694904117187394,0.257
-0.0001159395316432156,0.258
-0.0018305933458493597,0.259
-0.0032023090385163615,0.26
-0.003944695114503836,0.261
-0.003994411014399185,0.262
-0.0035110273929669783,0.263
-0.0027331946024695157,0.264
-0.0018402869575051735,0.265
-0.0009322195053598818,0.266
-9.191479039716697e-05,0.267
0.0005658021598992885,0.268
0.0009099271552944423,0.269
0.0008606802102849771,0.27
0.0004428836767516379,0.271
-0.00022855678738070768,0.272
-0.0009952710253774818,0.273
-0.00168788124127787,0.274
-0.0021588713987014123,0.275
-0.0023112748146002257,0.276
-0.0020957423189836458,0.277
-0.0014918042321321638,0.278
-0.0005082104127007092,0.279
0.0007960720428142079,0.28
0.0022934359393064403,0.281
0.0037845599427422686,0.282
0.005019412925556484,0.283
0.005749947640350338,0.284
0.005797243113438994,0.285
0.005102353439008156,0.286
0.0037440372259251696,0.287
0.001927742500573249,0.288
-4.4532751847893764e-05,0.289
-0.001829333159545686,0.29
-0.0031297082003346804,0.291
-0.003784515887623645,0.292
-0.0037919917060622696,0.293
-0.003255041999172165,0.294
-0.002317289207449629,0.295
-0.00112878837502026,0.296
0.00017999042154478027,0.297
0.0015114140738185446,0.298
0.0027799670673001676,0.299
0.0038764197292982007,0.3
0.004651184035394083,0.301
0.004930074999833268,0.302
0.004556848418591953,0.303
0.0034490506908532404,0.304
0.0016437501033846052,0.305
-0.0006863342910817477,0.306
-0.0032398002172069253,0.307
-0.005617171800717353,0.308
-0.007397237183281774,0.309
-0.0082468785763445,0.31
-0.008012478877817792,0.311
-0.006747861460873028,0.312
-0.004665558859226165,0.313
-0.002052490753639102,0.314
0.0007822266292491595,0.315
0.0035085573344710024,0.316
0.005765472517577108,0.317
0.007182780175139848,0.318
0.007439788676336811,0.319
0.006339760938867348,0.32
0.0038808313211939763,0.321
0.00029690632484707653,0.322
-0.003954724763603768,0.323
-0.00825145863320718,0.324
-0.011879588850112319,0.325
-0.014111840163841519,0.326
-0.014336935580528112,0.327
-0.012277930019012413,0.328
-0.008178876166114565,0.329
-0.002771765396396737,0.33
0.0029966074524132437,0.331
0.008299821794017814,0.332
0.01262082692801125,0.333
0.015737898792749422,0.334
0.017607694352094694,0.335
0.01823849792054404,0.336
0.017595263298036314,0.337
0.015601948095942987,0.338
0.012277766841783519,0.339
0.007894945407152765,0.34
0.0029837125294165535,0.341
-0.0018205579434030228,0.342
-0.005941249321230831,0.343
-0.008952881778095459,0.344
-0.010626050317279668,0.345
-0.010948583949344361,0.346
-0.01010687841783591,0.347
-0.00842288712631518,0.348
-0.006274891590141549,0.349
-0.004031220406824512,0.35
-0.0020093988334057024,0.351
-0.00044666161640277935,0.352
0.0005236881201625487,0.353
0.0008625085794158106,0.354
0.000598284879283087,0.355
-0.00016504268865067203,0.356
-0.0012301607028728484,0.357
-0.0023341108013524526,0.358
-0.0032107725238430906,0.359
-0.0036543143712527383,0.36
-0.003570330825464923,0.361
-0.0029946918603691577,0.362
-0.0020664356017249916,0.363
-0.0009739792402429205,0.364
9.535107362891045e-05,0.365
0.0009927248163600442,0.366
0.0016331120594119516,0.367
0.0019997940810563123,0.368
0.002135443771621674,0.369
0.0021392311975993758,0.37
0.0021453779334306778,0.371
0.002256330029249016,0.372
0.002479782245970949,0.373
0.0027382211765120236,0.374
0.0029394267120778296,0.375
0.0030259689818307304,0.376
0.002959975982005493,0.377
0.002685812913878277,0.378
0.0021235237702287384,0.379
0.0012042444134108645,0.38
-7.029275390659523e-05,0.381
-0.001581058715821515,0.382
-0.0030918375802150466,0.383
-0.004299451990987576,0.384
-0.004920275156562957,0.385
-0.0047942667275650925,0.386
-0.003950006069993557,0.387
-0.0025729318683834226,0.388
-0.0009107485603171322,0.389
0.000801848410382157,0.39
0.0023784132751311737,0.391
0.0036981114127487267,0.392
0.004702231594380349,0.393
0.0053571058960887085,0.394
0.005609534412464427,0.395
0.005384866190343428,0.396
0.004639447737070497,0.397
0.003426610959254803,0.398
0.0019236130969918336,0.399
0.0003916024190338314,0.4
-0.0009136189445043941,0.401
-0.0018251381191834665,0.402
-0.0023002140532344026,0.403
-0.002408691993962807,0.404
-0.0022930372448598858,0.405
-0.002108850087375489,0.406
-0.0019637691363772847,0.407
-0.001894415115374457,0.408
-0.0019001009466031167,0.409
-0.001995469643627728,0.41
-0.002226949074719835,0.411
-0.002637137648302954,0.412
-0.003205636596505273,0.413
-0.003804069170514424,0.414
-0.004194591870908867,0.415
-0.004095205199437306,0.416
-0.0032961648667668773,0.417
-0.001766094693367451,0.418
0.0003049785747630609,0.419
0.002547399578443894,0.42
0.004517746832470499,0.421
0.005811238439512991,0.422
0.006155470788451247,0.423
0.005488505600892926,0.424
0.003989262403892646,0.425
0.0020271652125382032,0.426
5.3603598504272945e-05,0.427
-0.0015161176596977582,0.428
-0.0023989085497588426,0.429
-0.002496849065428509,0.43
-0.001901399594679367,0.431
-0.0008608062342830618,0.432
0.00029132537205422,0.433
0.0012393220597233798,0.434
0.0017704534290502627,0.435
0.0018029277023209477,0.436
0.0013806725824511764,0.437
0.0006599559843901871,0.438
-0.00013238949058950973,0.439
-0.0007745436158609072,0.44
-0.0011206085480271212,0.441
-0.001125882953705067,0.442
-0.0008210092123328291,0.443
-0.00027354123303125204,0.444
0.00042004109170397597,0.445
0.0011192036844591957,0.446
0.0016471236844989709,0.447
0.001839093425757107,0.448
0.0016040426324391457,0.449
0.0009652638346106434,0.45
5.7010875228441775e-05,0.451
-0.0009221622323333596,0.452
-0.0017641010838136705,0.453
-0.0022850086987733476,0.454
-0.0023469418349067695,0.455
-0.0018878582872931763,0.456
-0.000951138873344042,0.457
0.0003209950605968674,0.458
0.0017350362010868292,0.459
0.003094767009940887,0.46
0.004207773398191897,0.461
0.00486698989524171,0.462
0.004881092997578572,0.463
0.004155889775610483,0.464
0.002746929278861566,0.465
0.0008436929719217924,0.466
-0.0013040902699631052,0.467
-0.0034704030041002895,0.468
-0.0054751212026993455,0.469
-0.007144812581714523,0.47
-0.008295280462802772,0.471
-0.008777128795021464,0.472
-0.0085352073166817,0.473
-0.007628401702176771,0.474
-0.006199342366019835,0.475
-0.004415878725276496,0.476
-0.002432062596824059,0.477
-0.0003865306478876769,0.478
0.0015908053178884253,0.479
0.003384417988320168,0.48
0.004920681994697697,0.481
0.006206205962748746,0.482
0.007318304106249167,0.483
0.00832062831127949,0.484
0.009173845874367492,0.485
0.009721295560356658,0.486
0.00975182494658062,0.487
0.009087562703632078,0.488
0.007650513059082836,0.489
0.005499622547141516,0.49
0.0028382031265650016,0.491
-2.976561974482129e-05,0.492
-0.002787210319539616,0.493
-0.005178898881057592,0.494
-0.007038722521135886,0.495
-0.008285042053765186,0.496
-0.008901524118953587,0.497
-0.00890258274634753,0.498
-0.008296806937789206,0.499
-0.007082074164733022,0.5
-0.005287961467157197,0.501
-0.003035118971920468,0.502
-0.0005613121390008573,0.503
0.0018063200185765378,0.504
0.003719854444576071,0.505
0.004897654583309118,0.506
0.005202040793910642,0.507
0.004679244618468535,0.508
0.0035466562229632317,0.509
0.0021261462754833546,0.51
0.0007394553147258073,0.511
-0.0003931715137431899,0.512
-0.001200120314058522,0.513
-0.0017208335947732816,0.514
-0.0020114675337552157,0.515
-0.002075065571766393,0.516
-0.001860840239650637,0.517
-0.0013057412200369852,0.518
-0.0003853563060156809,0.519
0.0008482448901119892,0.52
0.002255918109787269,0.521
0.003622414480369977,0.522
0.004701995811716589,0.523
0.005305268030274417,0.524
0.00536207506661938,0.525
0.0049029607893042336,0.526
0.004004969158313805,0.527
0.002767965640999132,0.528
0.0013044250380695238,0.529
-0.00029353435728745204,0.53
-0.001980098328184081,0.531
-0.0037314177616768096,0.532
-0.0054917293447531,0.533
-0.007135970125860595,0.534
-0.008454371117842184,0.535
-0.009168044752704784,0.536
-0.009013220721214835,0.537
-0.007872349020208114,0.538
-0.005855513642351975,0.539
-0.003277136261056021,0.54
-0.0005633679366322899,0.541
0.0018541068580624001,0.542
0.0036335806922535917,0.543
0.004608097143042767,0.544
0.004830423681554951,0.545
0.00452250210781461,0.546
0.003954225165463075,0.547
0.003352067022998145,0.548
0.002877406335201772,0.549
0.002630620515102882,0.55
0.0026501172464393637,0.551
0.0029154220851116863,0.552
0.003357701170471145,0.553
0.003874552435650663,0.554
0.0043503169747345135,0.555
0.004674292956953615,0.556
0.004749620504975477,0.557
0.004503014482730642,0.558
0.0039058880339695404,0.559
0.0029846072564004697,0.56
0.0017941542317596673,0.561
0.00038526302914803186,0.562
-0.0011893631182769075,0.563
-0.0028395764931292335,0.564
-0.004423327753094298,0.565
-0.005781296031134213,0.566
-0.0067848652493743755,0.567
-0.007345660773280073,0.568
-0.007402704459587887,0.569
-0.006937510256740189,0.57
-0.006003628887369771,0.571
-0.004718392111683016,0.572
-0.003221225223917289,0.573
-0.0016487321182432322,0.574
-0.00014874972421244492,0.575
0.0010955800681970954,0.576
0.0018814453093296448,0.577
0.0020612429715236324,0.578
0.0016352852789266493,0.579
0.0007990023748361189,0.58
-8.472433745416376e-05,0.581
-0.0005960213325038826,0.582
-0.0004241861014765881,0.583
0.0005106371502234014,0.584
0.0020550755226283876,0.585
0.003894907587863357,0.586
0.005636693739663108,0.587
0.0068958028575029015,0.588
0.007391879753039157,0.589
0.007017814575476939,0.59
0.005849089255066251,0.591
0.0041089287414064575,0.592
0.0021253337390716325,0.593
0.00026527559643954254,0.594
-0.0011746109378250797,0.595
-0.002068171194790121,0.596
-0.0024724602156303266,0.597
-0.0025484371313652,0.598
-0.0024675134498859564,0.599
-0.0023685426746240293,0.6
-0.0023580325852797387,0.601
-0.0025183999046635283,0.602
-0.002895094971717125,0.603
-0.0034546049425320537,0.604
-0.004055660452407558,0.605
-0.0044828473905977875,0.606
-0.004526185755250502,0.607
-0.0040545952918360564,0.608
-0.00306368292499495,0.609
-0.0016929766552500464,0.61
-0.00018785750422461398,0.611
0.0011929521863213051,0.612
0.0022637560428419813,0.613
0.0029376783793850355,0.614
0.003213798274841779,0.615
0.00316626913803758,0.616
0.0029198592563948167,0.617
0.0026009423486656903,0.618
0.0022968993732007483,0.619
0.0020397210368509997,0.62
0.001807292464569993,0.621
0.0015469498943693953,0.622
0.0012180399132930976,0.623
0.0008242969097553832,0.624
0.0004106138873786238,0.625
3.6746847538325265e-05,0.626
-0.00024059214610199276,0.627
-0.0003720711072267943,0.628
-0.0003255033161640441,0.629
-0.00010903362601642988,0.63
0.00021154158531321024,0.631
0.000529628031378059,0.632
0.0007466258069051385,0.633
0.00080925826433243,0.634
0.0007002115336321942,0.635
0.00040864812845915153,0.636
-7.008261749946965e-05,0.637
-0.0007064733856688653,0.638
-0.0014150604473252798,0.639
-0.002060289993798301,0.64
-0.002495329534765499,0.641
-0.0026217167001029843,0.642
-0.002431287446806182,0.643
-0.002002556900511365,0.644
-0.0014680435188019474,0.645
-0.0009731956185901831,0.646
-0.0006306834061357411,0.647
-0.0004809018943860911,0.648
-0.0004820474718911163,0.649
-0.0005387170086802633,0.65
-0.0005445401416442974,0.651
-0.0004220745178462668,0.652
-0.00015691361997580678,0.653
0.0002011614259372713,0.654
0.0005811296187041383,0.655
0.0009384109186420575,0.656
0.0012705724930240881,0.657
0.001602375760307285,0.658
0.0019506528542409063,0.659
0.002282278473863315,0.66
0.002499325924640708,0.661
0.0024761507158559777,0.662
0.002126428734135058,0.663
0.0014508967009456124,0.664
0.0005423773885472171,0.665
-0.00043211779664546177,0.666
-0.0012606903911253132,0.667
-0.0017460720594720948,0.668
-0.0017786151939656624,0.669
-0.0013721684808129192,0.67
-0.0006582400399669513,0.671
0.00014230342505467715,0.672
0.000788443151881385,0.673
0.0011337077894093047,0.674
0.001211342919455629,0.675
0.0012095486775835522,0.676
0.0013502516106568354,0.677
0.001755144586234507,0.678
0.0023828377979356933,0.679
0.003065927748916271,0.68
0.0036010017909368663,0.681
0.0038167399098013462,0.682
0.0035885044913202295,0.683
0.002832875200951145,0.684
0.0015235396638377775,0.685
-0.00028651383234348506,0.686
-0.002463313201764967,0.687
-0.004796026500601173,0.688
-0.007003902696272107,0.689
-0.008762498378918751,0.69
-0.00974845910841004,0.691
-0.009708797332294817,0.692
-0.008545035685192024,0.693
-0.006356609326849025,0.694
-0.003409163268589062,0.695
-6.157553432761817e-05,0.696
0.003292608887239393,0.697
0.006255080665562294,0.698
0.008450618459930104,0.699
0.009575232983335477,0.7
0.009471618900394066,0.701
0.008213297456596257,0.702
0.00612930753868925,0.703
0.003710240354460437,0.704
0.0014398320366946274,0.705
-0.0003404801272606167,0.706
-0.0014892043177417952,0.707
-0.002066696417845156,0.708
-0.002300601655184755,0.709
-0.002514512150720994,0.71
-0.00301129702877569,0.711
-0.00393875582772302,0.712
-0.005214178840439939,0.713
-0.00655242176557068,0.714
-0.007565451804912587,0.715
-0.007879916799162655,0.716
-0.007235749397789118,0.717
-0.005541118265876607,0.718
-0.0028901367917514484,0.719
0.00043609010273123203,0.72
0.004001563111109353,0.721
0.00730463925497065,0.722
0.0098941490922733,0.723
0.011455726750964757,0.724
0.011843687672560426,0.725
0.011071545847330512,0.726
0.009289465401493875,0.727
0.006763650197736785,0.728
0.0038541093427631686,0.729
0.0009732591792063737,0.73
-0.001493578221187429,0.731
-0.0032847355903409016,0.732
-0.004325613439141648,0.733
-0.004726975662007457,0.734
-0.004715755948765871,0.735
-0.004531989543998769,0.736
-0.004347903462197038,0.737
-0.0042397867027192575,0.738
-0.004201880708974209,0.739
-0.0041845694421589,0.74
-0.0041402628228416226,0.741
-0.004044955933208975,0.742
-0.0038790798547129767,0.743
-0.0035891367720255617,0.744
-0.0030663642023755163,0.745
-0.002178837897226479,0.746
-0.0008598683034439219,0.747
0.0008121126799556488,0.748
0.0026100204666993864,0.749
0.004219083329079118,0.75
0.0053142996804955225,0.751
0.0056471650710044705,0.752
0.005136525139250058,0.753
0.003912543614970377,0.754
0.002276007305220672,0.755
0.0005928598082788465,0.756
-0.0008183064513442529,0.757
-0.00175051020822846,0.758
-0.0021173847825226564,0.759
-0.0019315356534171982,0.76
-0.0012729317910173718,0.761
-0.00026709533524292865,0.762
0.000919630160238083,0.763
0.0020834507933002473,0.764
0.0030079090745745675,0.765
0.003517732853137963,0.766
0.003538235192957457,0.767
0.0031209861173189437,0.768
0.0024156737863235828,0.769
0.001602163454082249,0.77
0.0008267305476582943,0.771
0.0001818816802727276,0.772
-0.0002735810391207443,0.773
-0.0004868926347112007,0.774
-0.00041582785586710637,0.775
-8.045376103434947e-05,0.776
0.00039095183264138407,0.777
0.0007855773854581106,0.778
0.0008828198604639991,0.779
0.0005237124548422726,0.78
-0.0003518238399284835,0.781
-0.0016931962453257477,0.782
-0.0033548606835961613,0.783
-0.00513898500821463,0.784
-0.006835357812993636,0.785
-0.008230874880938705,0.786
-0.009095763057897869,0.787
-0.00918144537114675,0.788
-0.008269049952521599,0.789
-0.006273770498454072,0.79
-0.0033513905786514116,0.791
8.028070767847551e-05,0.792
0.0034415315193086077,0.793
0.006163482539110102,0.794
0.007861568865682041,0.795
0.008433275992558623,0.796
0.008029611457326983,0.797
0.006946341086193639,0.798
0.005515283721326905,0.799
0.004026334399130389,0.8
0.0026753098355396824,0.801
0.0015365592948632914,0.802
0.0005811971365470165,0.803
-0.0002598244376370893,0.804
-0.001029772672245562,0.805
-0.001712412649416195,0.806
-0.002236812910172166,0.807
-0.0025067827319067504,0.808
-0.002431488883091195,0.809
-0.0019496051408135913,0.81
-0.0010532187936634606,0.811
0.00020028642354812402,0.812
0.001687008916546373,0.813
0.0032027369082910013,0.814
0.004459011090886567,0.815
0.005138430770646371,0.816
0.004999244453841302,0.817
0.0039614377671186255,0.818
0.0021377192067417567,0.819
-0.00017734291015682812,0.82
-0.00255983221311241,0.821
-0.00455371652080031,0.822
-0.005782255606873947,0.823
-0.006036378559290987,0.824
-0.005321713816310512,0.825
-0.003849023685309212,0.826
-0.00196371283961158,0.827
-4.963117906822282e-05,0.828
0.0015637523619536813,0.829
0.0026843968620908877,0.83
0.0032905922393463233,0.831
0.003484179716284662,0.832
0.0034046382839886535,0.833
0.0031569983803170945,0.834
0.0027712835174939264,0.835
0.002204765954545367,0.836
0.0013953974139678223,0.837
0.0003287504552136413,0.838
-0.0009324806858459974,0.839
-0.0022581247608835842,0.84
-0.0034739715089756413,0.841
-0.004389852136056013,0.842
-0.0048464458873571335,0.843
-0.0047764425609389954,0.844
-0.004238333255507311,0.845
-0.0034039638617917554,0.846
-0.0025093191274060266,0.847
-0.0017736034323102292,0.848
-0.0013158644388247432,0.849
-0.001116279693059582,0.85
-0.0010396585974575645,0.851
-0.0009001214323944413,0.852
-0.0005300819904871848,0.853
0.0001641048565664311,0.854
0.0011619126442210968,0.855
0.0023282628943362385,0.856
0.0034688414105736496,0.857
0.004402964566904991,0.858
0.005004669082489472,0.859
0.005203572969275334,0.86
0.004976356937011153,0.861
0.004352561101120276,0.862
0.003422753583836232,0.863
0.0023341525717285165,0.864
0.001273460491121614,0.865
0.00043418094059086056,0.866
-4.116736736972867e-05,0.867
-0.00012176324521835953,0.868
0.00010582147370483171,0.869
0.0004908041432494043,0.87
0.0008695036849755772,0.871
0.0010845955665950216,0.872
0.000994208746708127,0.873
0.0005043893978127688,0.874
-0.0003727350263454446,0.875
-0.0014931514424140382,0.876
-0.002630892140257862,0.877
-0.0035589249968381266,0.878
-0.004108677755412652,0.879
-0.00419878354632338,0.88
-0.003826930217371302,0.881
-0.003045963847356853,0.882
-0.0019623834057169694,0.883
-0.0007425903473814206,0.884
0.0004048658922789085,0.885
0.0012659519836262893,0.886
0.0016626912688783553,0.887
0.0014893004404187187,0.888
0.0007324112099118186,0.889
-0.0005237511228374238,0.89
-0.0020997655981449255,0.891
-0.0037310132409840565,0.892
-0.005100434750438061,0.893
-0.005902291939798638,0.894
-0.0059078691641682125,0.895
-0.0050026935830249815,0.896
-0.003203450071205356,0.897
-0.0006654161071150444,0.898
0.002329875963038232,0.899
0.005409136277317149,0.9
0.008153049477997339,0.901
0.010157155741138303,0.902
0.011113709093141983,0.903
0.010884579360402056,0.904
0.009536282092415499,0.905
0.00734297951432705,0.906
0.004736940559536198,0.907
0.0021770286777395074,0.908
7.131684889339791e-06,0.909
-0.0015893126003377518,0.91
-0.0025551516291325614,0.911
-0.0029403581525053097,0.912
-0.0029272957831971776,0.913
-0.002826360226188012,0.914
-0.002970195326705789,0.915
-0.0035628023492537443,0.916
-0.004599473718729816,0.917
-0.005888471504298165,0.918
-0.007125952863410103,0.919
-0.007971053246467448,0.92
-0.00810953516503552,0.921
-0.007323359756346344,0.922
-0.005557569578968283,0.923
-0.002951550333672528,0.924
0.00018303422966347958,0.925
0.0034265865065559765,0.926
0.006331836286216757,0.927
0.008507413437988384,0.928
0.009691160584111779,0.929
0.00978178484037798,0.93
0.008828136137781741,0.931
0.007005643268736197,0.932
0.004583698274072913,0.933
0.0018794024736907338,0.934
-0.0007881555594636437,0.935
-0.0031377312341253636,0.936
-0.004955905173017987,0.937
-0.006111459438095204,0.938
-0.006567254993361585,0.939
-0.006387414259763449,0.94
-0.005718802761197932,0.941
-0.004747560589566403,0.942
-0.00365192236949554,0.943
-0.0025717252271546145,0.944
-0.0015970477343795022,0.945
-0.0007643751696729042,0.946
-5.600266243318069e-05,0.947
0.0005863407561209444,0.948
0.0012304164148531813,0.949
0.0019248220074421542,0.95
0.002683600517036865,0.951
0.0034752940956127116,0.952
0.004210841477100374,0.953
0.004747318425272166,0.954
0.004940304590305202,0.955
0.004724725388325887,0.956
0.004152501604478165,0.957
0.0033611981347472027,0.958
0.0025045376847119528,0.959
0.0016888997272698156,0.96
0.0009474518088773049,0.961
0.0002589499043173792,0.962
-0.0003958706696236091,0.963
-0.0009873401252479817,0.964
-0.0014566608931844722,0.965
-0.0017791115078424106,0.966
-0.0020047502654243774,0.967
-0.002240012227451166,0.968
-0.00256875694319505,0.969
-0.0029723035610149007,0.97
-0.0033262629011057447,0.971
-0.0034685090660911957,0.972
-0.0032760444464899597,0.973
-0.0027123538264117474,0.974
-0.0018384935705860052,0.975
-0.0007962724825021566,0.976
0.0002307370975043404,0.977
0.0010713995643334257,0.978
0.0016168545770310816,0.979
0.0018484169956969375,0.98
0.0018302944265401247,0.981
0.0016609337216705626,0.982
0.0014139283430039302,0.983
0.0011209372050699415,0.984
0.0007987810591324475,0.985
0.0004767729209129145,0.986
0.00020799321498933155,0.987
7.692425852018884e-05,0.988
0.00019211507131975097,0.989
0.0006413773462685995,0.99
0.0014324440240307853,0.991
0.0024665034905739123,0.992
0.003552001515958097,0.993
0.004441602125873018,0.994
0.004884722495657065,0.995
0.004676629754936639,0.996
0.0036870651529945,0.997
0.0018825767289829016,0.998
-0.0006552248697856662,0.999
-0.003731283161848869,1.0
-0.007041701688996801,1.001
-0.010169778441543318,1.002
-0.01261823148068101,1.003
-0.013909853081991962,1.004
-0.013707899517029136,1.005
-0.011895560566798531,1.006
-0.008606890229710323,1.007
-0.004207720172191607,1.008
0.0007760657516329371,1.009
0.005754028669308673,1.01
0.010157473682447855,1.011
0.013506398880878142,1.012
0.015459541365695014,1.013
0.01585579889056829,1.014
0.01474768609947483,1.015
0.012392247652809529,1.016
0.009179366910085173,1.017
0.005549675558044429,1.018
0.0019455327631695445,1.019
-0.0012362448789601042,1.02
-0.003711794567665901,1.021
-0.005346196922296819,1.022
-0.0061277230254051344,1.023
-0.006134619239651506,1.024
-0.005531725968209515,1.025
-0.004562566095257163,1.026
-0.003501524429267796,1.027
-0.002587447786596153,1.028
-0.001983571876670269,1.029
-0.0017625500544779678,1.03
-0.0018945234573470916,1.031
-0.002255231722066979,1.032
-0.002677129315310719,1.033
-0.003020801723684471,1.034
-0.003216022542381439,1.035
-0.0032468839309227246,1.036
-0.003107315244029205,1.037
-0.0027696324750108316,1.038
-0.0021758408287153967,1.039
-0.0012561332580305676,1.04
6.28492785554106e-06,1.041
0.001499806748356824,1.042
0.0029798896340752206,1.043
0.004152145404451302,1.044
0.004784508424373413,1.045
0.004787021980504479,1.046
0.004231317083546219,1.047
0.0033133903306357517,1.048
0.0022795047459440434,1.049
0.0013452160259601403,1.05
0.0006365034588381377,1.051
0.00016900074010730987,1.052
-0.00012596873259571997,1.053
-0.00033696492885800796,1.054
-0.000508853180246946,1.055
-0.0006231371876016432,1.056
-0.0006286227438281416,1.057
-0.000491540991494424,1.058
-0.0002209676020434484,1.059
0.00014921977899812474,1.06
0.0005845522616744896,1.061
0.0010442298503904029,1.062
0.0014674481083889687,1.063
0.0017755920609966915,1.064
0.0018749905567556468,1.065
0.0016619765006429636,1.066
0.001066106291287703,1.067
0.00012155693791638644,1.068
-0.0010044013465932947,1.069
-0.002068019742975806,1.07
-0.0028575145155018376,1.071
-0.0032722376715363976,1.072
-0.0033248913391328524,1.073
-0.0031046508409287147,1.074
-0.00273901984202549,1.075
-0.002340106885056843,1.076
-0.0019470467315274441,1.077
-0.0015095690999569846,1.078
-0.0009228515778773521,1.079
-9.092040106168961e-05,1.08
0.0010122524462524184,1.081
0.0023172872246292353,1.082
0.003683143604471699,1.083
0.00495151334974378,1.084
0.005985239580310243,1.085
0.006655338404042814,1.086
0.006814268394365347,1.087
0.006319108736512776,1.088
0.0050939452905565084,1.089
0.003181362136041768,1.09
0.0007637002844552362,1.091
-0.0018582273174429758,1.092
-0.004333752253212979,1.093
-0.00634566686860761,1.094
-0.007672105139414234,1.095
-0.008218130857214333,1.096
-0.008013277970331129,1.097
-0.007172344555750739,1.098
-0.005852023914760778,1.099
-0.004244046520479963,1.1
-0.002587010460544539,1.101
-0.0011439989937493107,1.102
-0.00012641995840449594,1.103
0.0003904905654762866,1.104
0.0004970344856789516,1.105
0.00042004138855115616,1.106
0.0004531084395397361,1.107
0.0008467286262379218,1.108
0.0017056220290036406,1.109
0.0029556958926832857,1.11
0.004368485070601509,1.111
0.005603580607336346,1.112
0.006289617022056625,1.113
0.006165400365013634,1.114
0.005208724813312294,1.115
0.0036544119378184516,1.116
0.0018919068785744587,1.117
0.00031258037710698325,1.118
-0.0008119129546297566,1.119
-0.0013684804797074264,1.12
-0.0013766701218152,1.121
-0.0009634243076713139,1.122
-0.00033765992226912216,1.123
0.0002788008631030481,1.124
0.0007327721504654871,1.125
0.0009717040818442558,1.126
0.0010150684964626898,1.127
0.0009003638129113801,1.128
0.0006551551425576881,1.129
0.00031043502179617214,1.13
-8.025682062965704e-05,1.131
-0.00045011571655977474,1.132
-0.0007523013573069483,1.133
-0.0009855297164328611,1.134
-0.0011866286058424404,1.135
-0.0013958013751857873,1.136
-0.0016267605085335587,1.137
-0.0018614741865164341,1.138
-0.002057408300666468,1.139
-0.0021584717978525886,1.14
-0.002124081511850307,1.141
-0.0019637639223555724,1.142
-0.0017293810166631412,1.143
-0.0014739643679947453,1.144
-0.0012301142799520846,1.145
-0.0010095776672210187,1.146
-0.0008105965026887146,1.147
-0.0006373309250119065,1.148
-0.000512428093414729,1.149
-0.0004659277831107677,1.15
-0.0005157256133162018,1.151
-0.000657785395086941,1.152
-0.0008688346687361264,1.153
-0.0011059098949605891,1.154
-0.0012860545052869115,1.155
-0.0012774160105178684,1.156
-0.0009427190123737038,1.157
-0.00020204491456017807,1.158
0.0009304124198388086,1.159
0.00233549223664626,1.16
0.003811597501584618,1.161
0.005132721720281329,1.162
0.006114453967019851,1.163
0.006658065628645397,1.164
0.0067461887837992835,1.165
0.006400379069758389,1.166
0.005659104404256745,1.167
0.004605768361765858,1.168
0.0033925802838031976,1.169
0.002195381954262431,1.17
0.0011298342116910435,1.171
0.00020476289737373374,1.172
-0.0006641015321811526,1.173
-0.001590122640502066,1.174
-0.0026291486078463067,1.175
-0.0037362746487433897,1.176
-0.004808685302517203,1.177
-0.0057596294215965455,1.178
-0.0065378128933059896,1.179
-0.007097237741768577,1.18
-0.007384300661543509,1.181
-0.007353598371605209,1.182
-0.0069764321424592175,1.183
-0.006239001359363371,1.184
-0.005155673638147274,1.185
-0.003794451746026193,1.186
-0.0022802276555233298,1.187
-0.0007612078081779994,1.188
0.0006424241239996037,1.189
0.0018746615494530851,1.19
0.0029364188277284002,1.191
0.0038437325395545923,1.192
0.004588999164410904,1.193
0.005131818385460519,1.194
0.005419090140555003,1.195
0.00541107204920712,1.196
0.005101556010068458,1.197
0.004539352464443682,1.198
0.0038413499968943483,1.199
0.003177448115006215,1.2
0.002722662550095102,1.201
0.002585814497078884,1.202
0.0027500520694717437,1.203
0.0030738148107036637,1.204
0.0033543193296527722,1.205
0.0034039525917207783,1.206
0.0030947569065015285,1.207
0.00236999066064286,1.208
0.0012492887248921718,1.209
-0.000170848922949389,1.21
-0.0017351489047625916,1.211
-0.0032567019980545967,1.212
-0.004545083064258664,1.213
-0.005446289010319144,1.214
-0.005885040311950859,1.215
-0.0058725452263827345,1.216
-0.005474439834161015,1.217
-0.004773859969361887,1.218
-0.0038478127225266452,1.219
-0.0027609016395420674,1.22
-0.0015870818031918825,1.221
-0.000441447684293569,1.222
0.0005219561503137519,1.223
0.0011553629545559643,1.224
0.0013631748827919296,1.225
0.0011144926104016935,1.226
0.0004458187614917658,1.227
-0.0005165209806375994,1.228
-0.0015439195236359952,1.229
-0.0023450905224610217,1.23
-0.002647106368033989,1.231
-0.0022777044934255857,1.232
-0.0012165134929781047,1.233
0.00040659870388781754,1.234
0.002359803628892861,1.235
0.004362961359748458,1.236
0.006122600778566837,1.237
0.007370183703419393,1.238
0.007915446099748034,1.239
0.0076856097023082414,1.24
0.006730111022568442,1.241
0.005199246746577259,1.242
0.00330367958175784,1.243
0.0012558734536514372,1.244
-0.0007833605071877848,1.245
-0.0027106483316158407,1.246
-0.004437801639104176,1.247
-0.0058551958381961,1.248
-0.006840831566659779,1.249
-0.007305270955736401,1.25
-0.007228208326567872,1.251
-0.006650398860022572,1.252
-0.005637376503001791,1.253
-0.00426471252176224,1.254
-0.002632893974664688,1.255
-0.0008729790951995495,1.256
0.000873450871465741,1.257
0.0024858880488458444,1.258
0.0038874883370357558,1.259
0.005034186330231963,1.26
0.0058778645294022625,1.261
0.006348611578033971,1.262
0.006376392887908033,1.263
0.0059286192353414195,1.264
0.0050398659520498315,1.265
0.0038251815848075283,1.266
0.002459776768479658,1.267
0.001116726962553898,1.268
-9.93636307076432e-05,1.269
-0.0011703296098125085,1.27
-0.002127322519918522,1.271
-0.0029997182932036295,1.272
-0.0037842085675809686,1.273
-0.004435164290064181,1.274
-0.004879694386587766,1.275
-0.00505554935221263,1.276
-0.00493441323832083,1.277
-0.004513971600567925,1.278
-0.0038144009079412134,1.279
-0.002901078279621522,1.28
-0.0019016705969104382,1.281
-0.0009711328421834875,1.282
-0.000216482769051893,1.283
0.00034503836474678766,1.284
0.0007579348607607602,1.285
0.0010853710145421985,1.286
0.0014043942550141352,1.287
0.0018042826986760085,1.288
0.002347266136765768,1.289
0.003019789503626999,1.29
0.0037220838759475603,1.291
0.004315009514976498,1.292
0.004684614012176507,1.293
0.0047648989283882465,1.294
0.004517441847725251,1.295
0.003910433887566293,1.296
0.002932250228482259,1.297
0.001635593233653216,1.298
0.0001625048357024384,1.299
-0.001289975614332806,1.3
-0.002540916218644921,1.301
-0.003478520557572636,1.302
-0.004061855212520102,1.303
-0.0042797759057224835,1.304
-0.0041116915147376264,1.305
-0.003532316686783143,1.306
-0.002560550431088185,1.307
-0.0013092551809344836,1.308
1.2432928969582017e-05,1.309
0.001157102268060968,1.31
0.0019280643462991607,1.311
0.0022464997626943494,1.312
0.0021619628092819348,1.313
0.00181710886741112,1.314
0.0013890546059744193,1.315
0.0010211840569620374,1.316
0.0007859312895621984,1.317
0.0007043201298085019,1.318
0.0007762754603730866,1.319
0.000991023309608306,1.32
0.0013325921831161026,1.321
0.0017623296450451032,1.322
0.002179730206997512,1.323
0.002427932939516177,1.324
0.002351213779739919,1.325
0.001837318984787105,1.326
0.0008372773797930758,1.327
-0.0006020776355592928,1.328
-0.0023164780199144185,1.329
-0.00405429295839621,1.33
-0.00554363139462389,1.331
-0.006559774951081741,1.332
-0.006975155131455858,1.333
-0.006781091815191365,1.334
-0.00607184885596246,1.335
-0.004992139396859045,1.336
-0.0036772566217201483,1.337
-0.002230464659787387,1.338
-0.0007373045701081108,1.339
0.0007165176800151298,1.34
0.0020315919490713377,1.341
0.0030979426773906963,1.342
0.003838551699977188,1.343
0.004263945026741079,1.344
0.0044732358541350265,1.345
0.004581998226104488,1.346
0.00463512658250907,1.347
0.004584659053745393,1.348
0.0043418845798892155,1.349
0.003852244917129418,1.35
0.003143446824360547,1.351
0.0023195929710636046,1.352
0.001519729090730141,1.353
0.000876384876242365,1.354
0.0004764271447235232,1.355
0.000337655272576054,1.356
0.0004254034573079547,1.357
0.0006748574769589256,1.358
0.0009861057720986811,1.359
0.0012291021242785342,1.36
0.0012822127541632377,1.361
0.0010689527324744266,1.362
0.0005667663861330389,1.363
-0.0002025389897001767,1.364
-0.0011909192756318038,1.365
-0.0023445927842238585,1.366
-0.0036022983069253795,1.367
-0.004857572251481736,1.368
-0.005922673978391816,1.369
-0.006547709051006364,1.37
-0.0065063613710834795,1.371
-0.005709415731032532,1.372
-0.004277889138568203,1.373
-0.0025170585151100965,1.374
-0.0007954354698558832,1.375
0.0005995782858597931,1.376
0.0015530808779067634,1.377
0.00212981375325297,1.378
0.0025052902627936556,1.379
0.0028510775672308314,1.38
0.0032283155916992593,1.381
0.003560479419798778,1.382
0.0037085198239407828,1.383
0.0035802824341333436,1.384
0.0031917877566578837,1.385
0.002660368068820642,1.386
0.0021515885051732312,1.387
0.001810912044559713,1.388
0.0017034958745464355,1.389
0.0017711356044670325,1.39
0.0018259518382002253,1.391
0.0016109326917873763,1.392
0.0009201769022912723,1.393
-0.0002813439368009034,1.394
-0.0018112628428182563,1.395
-0.00332639668332809,1.396
-0.004445034020502132,1.397
-0.004877074304742861,1.398
-0.004533836074320198,1.399
-0.003585865495703145,1.4
-0.0024142647378984127,1.401
-0.0014479992456816932,1.402
-0.0009672031251255726,1.403
-0.0009864155029852848,1.404
-0.0012839739215407537,1.405
-0.001547052669106834,1.406
-0.001533275860932294,1.407
-0.0011629648506466324,1.408
-0.0005104687689528457,1.409
0.0002808300426806974,1.41
0.0010928777310882504,1.411
0.0018740847535025315,1.412
0.002610596453927329,1.413
0.0032660798171161593,1.414
0.0037483539414144423,1.415
0.003934900886215596,1.416
0.0037476109703406635,1.417
0.003221724440038565,1.418
0.0025106676958825637,1.419
0.0018243877880537909,1.42
0.0013488141782141531,1.421
0.0011875864155197382,1.422
0.0013241091015186528,1.423
0.0016064559616865185,1.424
0.001795002185592582,1.425
0.0016798805804407184,1.426
0.0011991525841488027,1.427
0.0004716674742683653,1.428
-0.00027976193800630355,1.429
-0.0008521741196045483,1.43
-0.0011370417432943292,1.431
-0.00112008331221791,1.432
-0.0008652363892652895,1.433
-0.000512674967753278,1.434
-0.0002560522681078761,1.435
-0.0002838737501751467,1.436
-0.0007120978782539069,1.437
-0.0015426887632641708,1.438
-0.0026676406525366755,1.439
-0.00389964566156826,1.44
-0.005005837268159218,1.441
-0.00575909581354379,1.442
-0.006015027498138634,1.443
-0.005768218911723003,1.444
-0.005130305032107554,1.445
-0.004242382945819303,1.446
-0.0031940409930243073,1.447
-0.002001151174632935,1.448
-0.000645577722255979,1.449
0.0008613234624301773,1.45
0.002449487991207721,1.451
0.004015541582500315,1.452
0.005457565533751556,1.453
0.006671082696866843,1.454
0.007528634770391157,1.455
0.007901984913608712,1.456
0.007719704420057935,1.457
0.006990918381745289,1.458
0.005778176704047865,1.459
0.00417044632149917,1.46
0.002285084650513264,1.461
0.00027610007065776554,1.462
-0.0016752556421253922,1.463
-0.0033800064537735063,1.464
-0.004664471901729109,1.465
-0.005404931453048367,1.466
-0.0055590698595751695,1.467
-0.005163876973309318,1.468
-0.004302269580034002,1.469
-0.003081260104717802,1.47
-0.0016501569676966059,1.471
-0.00021758395888317583,1.472
0.0009900520642555834,1.473
0.0018063000945574405,1.474
0.0021688695733501403,1.475
0.0021065296462740545,1.476
0.0016930331243411889,1.477
0.0010021633573272935,1.478
9.305714035684107e-05,1.479
-0.0009650640261674325,1.48
-0.0020542013998709895,1.481
-0.0030057346282384473,1.482
-0.0036505326697686795,1.483
-0.0038729136324223714,1.484
-0.003632300351301656,1.485
-0.00296051206684367,1.486
-0.001939586466803265,1.487
-0.0006667025751747434,1.488
0.0007633739840315038,1.489
0.002245360397962432,1.49
0.0036485503858749465,1.491
0.004828083521340013,1.492
0.005657079678554107,1.493
0.006053305471127288,1.494
0.0059811532795039195,1.495
0.005435430201129666,1.496
0.004434400490680888,1.497
0.003041585776568837,1.498
0.0014000014582422878,1.499
-0.0002666335738029654,1.5
-0.0017080362592172718,1.501
-0.002725045710842038,1.502
-0.0032235065199646617,1.503
-0.003224410286428994,1.504
-0.002845802304829531,1.505
-0.0022721672977463834,1.506
-0.001696242957776555,1.507
-0.0012426055832141158,1.508
-0.0009301674213741893,1.509
-0.0006989101463488493,1.51
-0.00046792003548342293,1.511
-0.00018081313943555885,1.512
0.00018049351519473471,1.513
0.0005991150161769126,1.514
0.0010279781335427434,1.515
0.0014007424895772574,1.516
0.0016497384656349583,1.517
0.001722014769069097,1.518
0.0015912951901013337,1.519
0.0012617628184921092,1.52
0.0007564425628216249,1.521
0.00010644275336307393,1.522
-0.0006437768976800992,1.523
-0.0014313453531089313,1.524
-0.002175842036922247,1.525
-0.002776193527545699,1.526
-0.0031224964894113094,1.527
-0.0031423043500934215,1.528
-0.002846060782552867,1.529
-0.0023230707477752744,1.53
-0.0016904307864401573,1.531
-0.0010327078595540426,1.532
-0.00037526837136130634,1.533
0.0002867019777202165,1.534
0.0009346760064365153,1.535
0.001506518876268752,1.536
0.0019275736411645714,1.537
0.002156223621871825,1.538
0.0022043422023234017,1.539
0.002129711051822868,1.54
0.0020057669606024483,1.541
0.0018662454994330647,1.542
0.0016553950632854065,1.543
0.0012394584217591802,1.544
0.0004912671999127674,1.545
-0.0006048475194938257,1.546
-0.0019102146282934693,1.547
-0.0031867315728440074,1.548
-0.004184976918796452,1.549
-0.0046922814803631845,1.55
-0.0045570215307962365,1.551
-0.0037263475077618223,1.552
-0.0022779340333136714,1.553
-0.0004135424611893655,1.554
0.001587291580431547,1.555
0.003438175553339755,1.556
0.004915052183395067,1.557
0.005892931116410384,1.558
0.006341579989938123,1.559
0.00630103666788323,1.56
0.005858394232388164,1.561
0.005122906575654993,1.562
0.004191466810594936,1.563
0.0031239710300670033,1.564
0.0019546700597530627,1.565
0.0007239867089578446,1.566
-0.0005087631097965571,1.567
-0.0016727036466024296,1.568
-0.002685488047302162,1.569
-0.0034567582145188605,1.57
-0.003925128823892177,1.571
-0.004104496810847325,1.572
-0.004083712941339047,1.573
-0.003972817593301292,1.574
-0.0038387874932219747,1.575
-0.003671408165488576,1.576
-0.003399778933224501,1.577
-0.0029474159940124666,1.578
-0.0022786876299544425,1.579
-0.001413339181533725,1.58
-0.00042679697670032246,1.581
0.000558824149051163,1.582
0.0013949209651111364,1.583
0.0019354629841132822,1.584
0.0020772180380608765,1.585
0.0017956071546082343,1.586
0.0011631032254576855,1.587
0.0003496170446075784,1.588
-0.0004039268702167326,1.589
-0.0008430848185356978,1.59
-0.0007862382801292507,1.591
-0.00020960933094387095,1.592
0.0007356442969177589,1.593
0.0017966179442240704,1.594
0.002720969951180672,1.595
0.003319693535556271,1.596
0.0034818871509192393,1.597
0.0031750713256194292,1.598
0.0024529600727143403,1.599
0.0014554422217919656,1.6
0.0003789367103792673,1.601
-0.0005733080995744929,1.602
-0.001232473881521676,1.603
-0.0014841832656483451,1.604
-0.0012846217886919842,1.605
-0.0006863953780895787,1.606
0.0001490403952182195,1.607
0.0009853390597600394,1.608
0.0015940902238439126,1.609
0.0018373988966517284,1.61
0.0016884102383172223,1.611
0.0011959323106075165,1.612
0.0004491789632243265,1.613
-0.0004350852806698145,1.614
-0.0013240890765958957,1.615
-0.0020906780593715696,1.616
-0.0026278642674559434,1.617
-0.0028560877244652363,1.618
-0.002746838189196764,1.619
-0.0023567052986725235,1.62
-0.0018288767464318912,1.621
-0.0013411637342171036,1.622
-0.0010373005657656025,1.623
-0.0009858133252305652,1.624
-0.0011694934859936062,1.625
-0.001489700151907191,1.626
-0.0017905032201215487,1.627
-0.0019161963269010889,1.628
-0.0017729430074256167,1.629
-0.0013470917239378523,1.63
-0.0006838925372031907,1.631
0.00013818938638366024,1.632
0.0010175142635353992,1.633
0.001823888925586767,1.634
0.0024117845410781555,1.635
0.0026858864926876842,1.636
0.0026733472244124313,1.637
0.0025224003295283644,1.638
0.002423804367611279,1.639
0.0025165788159379416,1.64
0.0028329694051902918,1.641
0.003305666975423064,1.642
0.0038125732114289894,1.643
0.004210370078164852,1.644
0.004348517929059007,1.645
0.0040853282747299645,1.646
0.0033204719116573704,1.647
0.002052396542204961,1.648
0.00042767381069383395,1.649
-0.001285459206617116,1.65
-0.0027946693647490158,1.651
-0.003869604702924906,1.652
-0.004377827927152069,1.653
-0.004294251826111891,1.654
-0.003692302842913483,1.655
-0.0027075950528139318,1.656
-0.0014959980513615844,1.657
-0.0002308558165562537,1.658
0.0008652054569919294,1.659
0.0015235535931669847,1.66
0.00150736995068645,1.661
0.0007196442749391867,1.662
-0.0007397914081389721,1.663
-0.0026142499721820913,1.664
-0.004585872281968661,1.665
-0.006344863620250194,1.666
-0.007613482271462634,1.667
-0.008164380746931467,1.668
-0.007850641871594032,1.669
-0.006627631045355629,1.67
-0.004549942587851928,1.671
-0.0017593049639279923,1.672
0.001503382276224083,1.673
0.004874295786085762,1.674
0.007897631389654648,1.675
0.010136065569828746,1.676
0.01129727405143688,1.677
0.011302473534192089,1.678
0.010285205567251146,1.679
0.008545567037009542,1.68
0.00646795922197249,1.681
0.00441303446767911,1.682
0.0026278904363946035,1.683
0.0012094451685489107,1.684
0.00011906730538879158,1.685
-0.0007650424283988912,1.686
-0.001579793041196755,1.687
-0.0024296740251269445,1.688
-0.003374963528021459,1.689
-0.004432173576053985,1.69
-0.005565501204591133,1.691
-0.006676358532748676,1.692
-0.007610054539264647,1.693
-0.008188688657485177,1.694
-0.008253968770823275,1.695
-0.007694131800572341,1.696
-0.006452872795504966,1.697
-0.004540125950790073,1.698
-0.002053285250128729,1.699
0.0008048184726801632,1.7
0.003726996145748574,1.701
0.006334302660106766,1.702
0.008244627399964089,1.703
0.009163467086521474,1.704
0.00896914979690539,1.705
0.00775840914759193,1.706
0.00583283205957365,1.707
0.003626221264339711,1.708
0.0015867647387241921,1.709
5.367548381083357e-05,1.71
-0.0008328389589739238,1.711
-0.001170944222064612,1.712
-0.00125585271890576,1.713
-0.0014440703773118953,1.714
-0.001992508046040968,1.715
-0.0029623923972345698,1.716
-0.004208880508813974,1.717
-0.005435896465398854,1.718
-0.0062896157501679244,1.719
-0.00646089050436204,1.72
-0.005777630457877893,1.721
-0.0042627518975596615,1.722
-0.0021233035524714974,1.723
0.0003253484326658801,1.724
0.0027485966868664832,1.725
0.00484977190704591,1.726
0.006398354943921445,1.727
0.007257051765254877,1.728
0.007402501989504949,1.729
0.006911764024744307,1.73
0.005917145095772415,1.731
0.004554083299420179,1.732
0.0029299898015338367,1.733
0.0011396131265219735,1.734
-0.0006932639193036935,1.735
-0.0024105011583128717,1.736
-0.003864502251333848,1.737
-0.0049559259725858685,1.738
-0.005623841231996986,1.739
-0.005819456933538184,1.74
-0.005526442053364332,1.741
-0.00482590814478618,1.742
-0.003913240797623708,1.743
-0.0030160152258857835,1.744
-0.002277550309000641,1.745
-0.001686314001087982,1.746
-0.0010893059222393058,1.747
-0.00029401591592887263,1.748
0.0007922098594261324,1.749
0.0020831210063229134,1.75
0.003359458072150675,1.751
0.0043991713699082415,1.752
0.005088768273038238,1.753
0.005450664670585973,1.754
0.005589295318688848,1.755
0.0056008203445483086,1.756
0.005497967599656543,1.757
0.005189964762166138,1.758
0.004532131284003819,1.759
0.003402365455751263,1.76
0.0017423005321359148,1.761
-0.0004364450774845642,1.762
-0.0030396150817002116,1.763
-0.005862811922969181,1.764
-0.008580995554548523,1.765
-0.010784790284743587,1.766
-0.012068010936404338,1.767
-0.012140915563696496,1.768
-0.010906481091245146,1.769
-0.008455860596245009,1.77
-0.005022507464799264,1.771
-0.0009501126255157777,1.772
0.003335829149866901,1.773
0.007374173836721492,1.774
0.01071629193822669,1.775
0.012973102449282363,1.776
0.013879491726721354,1.777
0.013365758646026337,1.778
0.011596457852119248,1.779
0.008945795903749333,1.78
0.005907998235471317,1.781
0.002968587495134136,1.782
0.0004784563776896218,1.783
-0.0014220575480703946,1.784
-0.002803181335254415,1.785
-0.003884628653358041,1.786
-0.004940695526697783,1.787
-0.006190101681468966,1.788
-0.007695809967080847,1.789
-0.009307833783225833,1.79
-0.01068419570463058,1.791
-0.011403314339621894,1.792
-0.01111001452635768,1.793
-0.00961584792646333,1.794
-0.006942921730851763,1.795
-0.0033295589797735954,1.796
0.0008097538751964921,1.797
0.00496526912232321,1.798
0.008618963487939781,1.799
0.01132595025534146,1.8
0.012798340854124112,1.801
0.012960153003380036,1.802
0.011940307668549208,1.803
0.010018603726085273,1.804
0.0075487983431297605,1.805
0.004880921331515235,1.806
0.002312429401880661,1.807
6.686837419984555e-05,1.808
-0.0017342949536741402,1.809
-0.0031053289163265204,1.81
-0.004192059602188884,1.811
-0.005213595534662003,1.812
-0.0063729296368288365,1.813
-0.00776433434464299,1.814
-0.009307820524812474,1.815
-0.010748946189054035,1.816
-0.011733624478352479,1.817
-0.011916160394270668,1.818
-0.011050033488373924,1.819
-0.009041674092866716,1.82
-0.005976337525383281,1.821
-0.0021234013174405287,1.822
0.002089234379108982,1.823
0.0061407067547953765,1.824
0.009520022008182366,1.825
0.011837230654416275,1.826
0.012896753990348744,1.827
0.012717434268166409,1.828
0.011515422645269542,1.829
0.009661052514738732,1.83
0.00760290965219331,1.831
0.005755375293702361,1.832
0.004379131881487609,1.833
0.003508414446160256,1.834
0.002961375156990889,1.835
0.002421274964696441,1.836
0.0015442764735281158,1.837
7.0100672329147e-05,1.838
-0.0020658233037461745,1.839
-0.0046549026525220345,1.84
-0.007242048460887721,1.841
-0.009274475166153883,1.842
-0.010303680532184488,1.843
-0.010134254592327743,1.844
-0.008847613424004683,1.845
-0.006721389807434534,1.846
-0.004119450481388082,1.847
-0.001405590451789173,1.848
0.0010920886548775736,1.849
0.0030849896078547516,1.85
0.004347711282226238,1.851
0.004767681834871075,1.852
0.004387952314624938,1.853
0.0034087237880576445,1.854
0.002125665811725417,1.855
0.0008329878714112684,1.856
-0.00024582219613593023,1.857
-0.0009805520994728603,1.858
-0.0013457447712719715,1.859
-0.0014212511949496425,1.86
-0.001344081477120647,1.861
-0.0012330733425424604,1.862
-0.0011399681723717708,1.863
-0.0010417408801011473,1.864
-0.0008704380668737758,1.865
-0.0005627917472859552,1.866
-9.875905366086676e-05,1.867
0.0004927442883084153,1.868
0.0011610326006875622,1.869
0.0018591456147696909,1.87
0.002542130352073798,1.871
0.0031561490945777467,1.872
0.003632076058877895,1.873
0.00387929019955056,1.874
0.003783151643953526,1.875
0.0032273441989461426,1.876
0.002158829250628115,1.877
0.0006555513998743518,1.878
-0.0010678712248328869,1.879
-0.0027237594802166135,1.88
-0.004044803580316653,1.881
-0.004860308782619621,1.882
-0.005120616088204431,1.883
-0.004873912149975482,1.884
-0.004229221877745577,1.885
-0.0033206989744266197,1.886
-0.002271044475340988,1.887
-0.0011682625925364825,1.888
-6.696235918066999e-05,1.889
0.0009932315213285008,1.89
0.0019644519174591047,1.891
0.0027847534166132283,1.892
0.0034029586539183936,1.893
0.00380705497589021,1.894
0.004016873795826406,1.895
0.00403658234628911,1.896
0.0038171329357310738,1.897
0.003291501636186325,1.898
0.002461939617587223,1.899
0.0014470161054346696,1.9
0.0004433520077812926,1.901
-0.00035480311581970636,1.902
-0.0008129459734185632,1.903
-0.0008836877632201438,1.904
-0.0006353120244475171,1.905
-0.00026285909068212457,1.906
-3.315843349894334e-05,1.907
-0.000178252309541727,1.908
-0.000805886656401038,1.909
-0.0018676048847742998,1.91
-0.003171734424109807,1.911
-0.004422385549902795,1.912
-0.005284753265128985,1.913
-0.0054652047362148855,1.914
-0.004786872667710138,1.915
-0.0032570804095942356,1.916
-0.00110085566877281,1.917
0.0012853957740253156,1.918
0.003450212585612997,1.919
0.005012295714511689,1.92
0.005746082032613764,1.921
0.005609027389221171,1.922
0.004727493524067583,1.923
0.003364697622598537,1.924
0.001856998834958914,1.925
0.0005127472594307998,1.926
-0.0004669215138420032,1.927
-0.0009878419995200342,1.928
-0.0010290836811298386,1.929
-0.000653820547780625,1.93
-3.258240903230961e-05,1.931
0.0005982527350901727,1.932
0.001012897172818972,1.933
0.0010287199506588832,1.934
0.0005152303807963369,1.935
-0.0005574036347390178,1.936
-0.002068581993108506,1.937
-0.003772146623609825,1.938
-0.005366867434961601,1.939
-0.006544621262268154,1.94
-0.00702995292576165,1.941
-0.006644579166376324,1.942
-0.005367127906556537,1.943
-0.0033426372836450374,1.944
-0.0008438222339786058,1.945
0.0017893099380137932,1.946
0.0042130698259979366,1.947
0.006131157244414,1.948
0.007330819287289299,1.949
0.007705942398590799,1.95
0.0072621807068751435,1.951
0.006108297600161507,1.952
0.004433750813744965,1.953
0.0024714793598652287,1.954
0.0004662022969296443,1.955
-0.0013308838430505423,1.956
-0.0026618546433345505,1.957
-0.003306901338048091,1.958
-0.003165325478685477,1.959
-0.00229060823242608,1.96
-0.0008546210377375406,1.961
0.0008913889784507096,1.962
0.002626177828068443,1.963
0.003983061257902334,1.964
0.004624615027783212,1.965
0.004346997678017679,1.966
0.0031605564429561532,1.967
0.001292401252830359,1.968
-0.0008945178713413207,1.969
-0.0030129911999478174,1.97
-0.004739984994617063,1.971
-0.005866381419395171,1.972
-0.006322029985300836,1.973
-0.006171449511933827,1.974
-0.005564491013282196,1.975
-0.004669485230143713,1.976
-0.003622435463944382,1.977
-0.002502173120904131,1.978
-0.0013369962609664917,1.979
-0.00013035512847012174,1.98
0.0011081081027037695,1.981
0.002330529650371985,1.982
0.003436830511642801,1.983
0.004291183185495729,1.984
0.004758534475283758,1.985
0.004751008429786333,1.986
0.004278435262087367,1.987
0.003474435190625982,1.988
0.0025559531299313774,1.989
0.0017274302255022396,1.99
0.0010955779691837234,1.991
0.0006417498989476507,1.992
0.0002536027306892103,1.993
-0.00020534752489879832,1.994
-0.0008181840153579889,1.995
-0.0015633106874976327,1.996
-0.002317571434022754,1.997
-0.002909738894643821,1.998
-0.003187718084135497,1.999
-0.003073404821832053,2.0
-0.0025887181749230013,2.001
-0.0018368269789395453,2.002
-0.0009623631195110385,2.003
-0.00012279447686843725,2.004
0.0005375093998741762,2.005
0.0009228285689268234,2.006
0.0010220958512398334,2.007
0.0009226684506564892,2.008
0.0007771677728206877,2.009
0.0007336516203022015,2.01
0.0008778973956144192,2.011
0.0012192864822007958,2.012
0.001703308272349573,2.013
0.002225422008645334,2.014
0.0026551828815556057,2.015
0.0028724675931178435,2.016
0.0027850291069895458,2.017
0.0023238430021930868,2.018
0.0014556376490030337,2.019
0.00023202151622427536,2.02
-0.0011729272187454096,2.021
-0.002491399684686427,2.022
-0.0034380540203415473,2.023
-0.0037852079046813234,2.024
-0.0034123676105641573,2.025
-0.0023293767072990845,2.026
-0.0006867146527426247,2.027
0.0012322831324356924,2.028
0.003060401470820618,2.029
0.004433679159075923,2.03
0.005073893549686125,2.031
0.004826380824581982,2.032
0.003650030070211263,2.033
0.001587827741327446,2.034
-0.0012326476714293315,2.035
-0.004544713229081375,2.036
-0.007875877531507298,2.037
-0.010552646462006918,2.038
-0.011854660105823702,2.039
-0.011307260650600878,2.04
-0.008941722554927723,2.041
-0.005308314510175868,2.042
-0.001227623306561826,2.043
0.002528917328741946,2.044
0.005462522569675063,2.045
0.007415895390864142,2.046
0.008497444409160336,2.047
0.008940546864099312,2.048
0.008987664721499632,2.049
0.008816240431335498,2.05
0.008489158204011795,2.051
0.007945087203972063,2.052
0.007040983815738833,2.053
0.005623937179770743,2.054
0.0036091640422162,2.055
0.0010383516684059142,2.056
-0.0019121496093072463,2.057
-0.0049652457846857045,2.058
-0.007785566426292338,2.059
-0.010021303952365428,2.06
-0.01136177367588251,2.061
-0.01160965416427113,2.062
-0.010725752904587903,2.063
-0.008825772025394477,2.064
-0.006162445029653819,2.065
-0.0030886880876672402,2.066
3.587549418696759e-05,2.067
0.0029507770863296044,2.068
0.0055258516674736215,2.069
0.007705483257584542,2.07
0.009431993920005467,2.071
0.010612531309460124,2.072
0.01112603270244604,2.073
0.01083684804030459,2.074
0.00961996716302647,2.075
0.007419653689849953,2.076
0.004334266051184036,2.077
0.0006783264805029895,2.078
-0.0030499957933504576,2.079
-0.00631391333553399,2.08
-0.008705604328652123,2.081
-0.010026684153523265,2.082
-0.010267022619983338,2.083
-0.009537866499702258,2.084
-0.008012785831053193,2.085
-0.005903130718997167,2.086
-0.0034497357427009916,2.087
-0.0009001535415625952,2.088
0.0015122252902257168,2.089
0.0035660335406556744,2.09
0.00504774800321755,2.091
0.005777158388987345,2.092
0.005665850763392788,2.093
0.00476125627828469,2.094
0.0032379374981368223,2.095
0.0013579805381733125,2.096
-0.0005793749100013813,2.097
-0.0022942838408644716,2.098
-0.003568294747768383,2.099
-0.004258839437409218,2.1
-0.004297327303007586,2.101
-0.0036906721331120703,2.102
-0.002534337991928343,2.103
-0.0010200385845291968,2.104
0.0005892835617288119,2.105
0.0020189732946786667,2.106
0.0030473044882801106,2.107
0.003558967915644361,2.108
0.003582756691327779,2.109
0.003274038226248361,2.11
0.0028341703744151005,2.111
0.0024399938382936937,2.112
0.0022152306761355684,2.113
0.002205851262058425,2.114
0.0023569897752968322,2.115
0.0025225834193884286,2.116
0.002517707731719446,2.117
0.0021952353956000096,2.118
0.0015044834520229638,2.119
0.0004915507248552356,2.12
-0.000751890991863768,2.121
-0.002133065072835293,2.122
-0.003551594383167644,2.123
-0.004868217141990449,2.124
-0.005901972278096737,2.125
-0.006467166090996424,2.126
-0.006423359439521646,2.127
-0.0057154685750693355,2.128
-0.0043993662238440605,2.129
-0.002651488891231514,2.13
-0.000748113933894648,2.131
0.0010112147653329835,2.132
0.0024199316375652985,2.133
0.0034290192828693345,2.134
0.004097475638582826,2.135
0.0044886806713004745,2.136
0.004609524820182858,2.137
0.004418639003178558,2.138
0.003876582594193314,2.139
0.0030019319413002437,2.14
0.0018971013329635003,2.141
0.000727995925359188,2.142
-0.00032016157264213235,2.143
-0.0010819287503817554,2.144
-0.0014455371116694525,2.145
-0.0013815964581037545,2.146
-0.0009496433909636572,2.147
-0.0002855175412870371,2.148
0.0004175596939269558,2.149
0.0009427158825309191,2.15
0.0011059313764206383,2.151
0.0008189999176903773,2.152
0.00012687780221970675,2.153
-0.0007996070483046203,2.154
-0.001710390545501623,2.155
-0.002351129962566898,2.156
-0.0025393406402768152,2.157
-0.0021993206269322234,2.158
-0.0013572305298305484,2.159
-0.00013583061225095472,2.16
0.0012523724962132526,2.161
0.002549861643018506,2.162
0.00352764003574073,2.163
0.004028510862413573,2.164
0.0039617830383256005,2.165
0.0032983192677631568,2.166
0.00209222062660506,2.167
0.0004978416862658227,2.168
-0.0012525971683315109,2.169
-0.0029054678660737094,2.17
-0.004237835795682872,2.171
-0.005084347584908798,2.172
-0.00534413394162896,2.173
-0.004981629168059008,2.174
-0.004040588507923138,2.175
-0.0026709501824371627,2.176
-0.0011370096778914086,2.177
0.00024062709641848085,2.178
0.0012030264083997151,2.179
0.001634801410795247,2.18
0.0015601464350631544,2.181
0.0011104545378410769,2.182
0.0004901537919138389,2.183
-8.599385832866433e-05,2.184
-0.0004686927770383614,2.185
-0.0006164263163735192,2.186
-0.000576851939723482,2.187
-0.000422055229089601,2.188
-0.0001889943640638421,2.189
0.00014053691195544678,2.19
0.0006207226823234212,2.191
0.0013000915607802245,2.192
0.002183143236547968,2.193
0.00321364297227888,2.194
0.0042777210658250615,2.195
0.005210105714483523,2.196
0.005806840341170689,2.197
0.005868275603664522,2.198
0.005260780958823911,2.199
0.00397022746138622,2.2
0.0021421932629662036,2.201
7.439874081555881e-05,2.202
-0.0018736361402078296,2.203
-0.0034029494270699768,2.204
-0.00435159200120963,2.205
-0.004703291737327455,2.206
-0.004546728966874065,2.207
-0.004020631253084131,2.208
-0.003273103226363175,2.209
-0.002425204414323012,2.21
-0.0015284924262765089,2.211
-0.0005562976733297862,2.212
0.0005455817809429499,2.213
0.0017950132366546046,2.214
0.003136789590401659,2.215
0.004422822944797657,2.216
0.005409781233451035,2.217
0.005790906845965902,2.218
0.005266051929988435,2.219
0.0036485590518918836,2.22
0.0009664801433416678,2.221
-0.0025153742254214015,2.222
-0.006360973610542505,2.223
-0.01006298353653276,2.224
-0.013128246274541424,2.225
-0.015123565441365507,2.226
-0.0156961246781129,2.227
-0.014614717360975471,2.228
-0.011849455316483813,2.229
-0.007631910130924552,2.23
-0.0024266974083780165,2.231
0.003168035543868861,2.232
0.0085240374196158,2.233
0.013052014229436984,2.234
0.016246050158941514,2.235
0.01774258363361797,2.236
0.017398627029257468,2.237
0.01533849506876575,2.238
0.011919171136338086,2.239
0.007617545888378954,2.24
0.002920558519590598,2.241
-0.0016823464236331966,2.242
-0.005614049413442202,2.243
-0.008148119361631,2.244
-0.008460260694030731,2.245
-0.005846048075377241,2.246
-0.0001678293808703708,2.247
0.007576828855896134,2.248
0.015014188642734957,2.249
0.019025235605847346,2.25
0.01726552576899932,2.251
0.009604418812316981,2.252
-0.0017373732531847045,2.253
-0.01337661037168192,2.254
-0.02222425912332279,2.255
-0.02641478441518732,2.256
-0.025588613136947214,2.257
-0.020697414102281906,2.258
-0.013495826522993852,2.259
-0.005870191097492251,2.26
0.0007156784619256304,2.261
0.005423194180609231,2.262
0.007968819298370695,2.263
0.008504370511046381,2.264
0.007510136960698865,2.265
0.005647830020624636,2.266
0.0035879244715815617,2.267
0.0018623525236889248,2.268
0.0007628007179704704,2.269
0.00031227961438998745,2.27
0.00032934083805698764,2.271
0.0005498738006783344,2.272
0.0007520586477301206,2.273
0.0008392118218201154,2.274
0.0008471061739803738,2.275
0.0008840484336840613,2.276
0.0010530208737256628,2.277
0.0014001794279512232,2.278
0.0018985958734085953,2.279
0.0024504565024216114,2.28
0.0028991163255755003,2.281
0.0030685442173009193,2.282
0.0028378544576342386,2.283
0.0022172051367237806,2.284
0.0013706789690578153,2.285
0.0005544437707212975,2.286
3.8652616909672267e-07,2.287
-0.00018024500564725298,2.288
-2.3323412905818966e-05,2.289
0.00031734156077328177,2.29
0.0006202343585492905,2.291
0.0006680597354552474,2.292
0.00033415261016290186,2.293
-0.0003755916986299022,2.294
-0.0013612077376098858,2.295
-0.002496474686573177,2.296
-0.0036598753629642996,2.297
-0.004721567274991577,2.298
-0.005513536595631791,2.299
-0.00581847758762139,2.3
-0.005410948905249029,2.301
-0.004156159460452051,2.302
-0.0021206114947792745,2.303
0.0003911952275352191,2.304
0.0029176415215873353,2.305
0.004989383888550084,2.306
0.006260028072971216,2.307
0.006559755216078048,2.308
0.0058816292601074575,2.309
0.0043546218426852475,2.31
0.0022285538850050465,2.311
-0.00013998999162153153,2.312
-0.0023234451664760824,2.313
-0.003916746613878384,2.314
-0.004681409954677108,2.315
-0.004633617879493712,2.316
-0.003984869622132834,2.317
-0.0029960532253388438,2.318
-0.001863421890422435,2.319
-0.0006709830688366384,2.32
0.0006004620249679659,2.321
0.0020080054207436164,2.322
0.003557245266902483,2.323
0.005145794514693076,2.324
0.006560367361016111,2.325
0.0075151759395736895,2.326
0.007717638436026105,2.327
0.00695523579583871,2.328
0.0051946000373754185,2.329
0.0026477811077771796,2.33
-0.00025294977809044817,2.331
-0.002977597143085953,2.332
-0.005061243347864008,2.333
-0.006235301009409186,2.334
-0.006485332165041907,2.335
-0.006024702252368969,2.336
-0.005203283667420362,2.337
-0.004392600270603123,2.338
-0.003877038673318426,2.339
-0.003778232325216646,2.34
-0.004042288757454658,2.341
-0.004474372354260172,2.342
-0.004778677684123747,2.343
-0.00461407818445948,2.344
-0.0037046077163197595,2.345
-0.001967900140010698,2.346
0.0004408620539109252,2.347
0.0031992451869928395,2.348
0.0059246250307172805,2.349
0.008244879802617339,2.35
0.009827497915304345,2.351
0.010412196798167373,2.352
0.009880248865731973,2.353
0.008324938822353639,2.354
0.006066234853799994,2.355
0.0035739157070555473,2.356
0.0012873783091558234,2.357
-0.0005815631315251915,2.358
-0.0021090168258805003,2.359
-0.003543018414837022,2.36
-0.005112881885398814,2.361
-0.006872302071907894,2.362
-0.008621141683934847,2.363
-0.009909461781131968,2.364
-0.010153549635550778,2.365
-0.008893557670592885,2.366
-0.006074583949033236,2.367
-0.0021416651214340187,2.368
0.0021124709015168915,2.369
0.005836326556234581,2.37
0.008391729510500543,2.371
0.009483419811285237,2.372
0.009126458964735023,2.373
0.007556179327670679,2.374
0.005169552881596491,2.375
0.0024736519306243114,2.376
-2.396607111196482e-06,2.377
-0.001822843118052674,2.378
-0.0027549266216017163,2.379
-0.0028198393363850186,2.38
-0.0022477610841485263,2.381
-0.0013532216715102315,2.382
-0.0003944989162900644,2.383
0.0005022647286967412,2.384
0.0013350508174433875,2.385
0.0021667993748580913,2.386
0.00303192209569651,2.387
0.0038425395303393495,2.388
0.004363925068711912,2.389
0.004304767338810508,2.39
0.0034835487128529324,2.391
0.0019386361007266947,2.392
-0.00011170356650458751,2.393
-0.002388971455979103,2.394
-0.004641586447223977,2.395
-0.0066835144524348584,2.396
-0.008408641446811391,2.397
-0.009782773307322044,2.398
-0.010799604182621976,2.399
-0.0114017069552567,2.4
-0.011415735492968909,2.401
-0.010577698063464848,2.402
-0.00867196308958631,2.403
-0.005701839962805532,2.404
-0.0019600852672109273,2.405
0.002048848685952994,2.406
0.005773279499654241,2.407
0.008790842179232618,2.408
0.010927011323240454,2.409
0.012246028486502067,2.41
0.012930382985148337,2.411
0.01314782849034857,2.412
0.012971662238232227,2.413
0.012353533241270568,2.414
0.011146696091036117,2.415
0.009189431756189779,2.416
0.006420791436193176,2.417
0.002963133046573646,2.418
-0.000870044540776322,2.419
-0.004623766488554829,2.42
-0.0077803639261821355,2.421
-0.009865242501013097,2.422
-0.010560565520812193,2.423
-0.009792110391014847,2.424
-0.007780212905843481,2.425
-0.005029580206138936,2.426
-0.002214859948637459,2.427
2.39069665294151e-05,2.428
0.0012890627756633817,2.429
0.0015189118445876925,2.43
0.0009244710830850172,2.431
-0.00014714391480542615,2.432
-0.0013308018723708968,2.433
-0.0023134441099865845,2.434
-0.002862681038988443,2.435
-0.0028521709465663407,2.436
-0.002298423682275631,2.437
-0.0013582178818913873,2.438
-0.0002654330007868697,2.439
0.0007382908571844359,2.44
0.0014448858388306377,2.441
0.0017112742641134022,2.442
0.0014945389315494761,2.443
0.000877026581262736,2.444
5.023680799972047e-05,2.445
-0.0007490385628594952,2.446
-0.0013073086536144805,2.447
-0.0014733786448763034,2.448
-0.0011866982198349058,2.449
-0.0005137055554571806,2.45
0.0003450687159932406,2.451
0.001120237791302477,2.452
0.0015752708489198486,2.453
0.0015676349882845005,2.454
0.0010657957632917545,2.455
0.00017712748246480724,2.456
-0.0008188158170114836,2.457
-0.001506261854230944,2.458
-0.0014625828439294526,2.459
-0.0004153629460513651,2.46
0.0016296626078044069,2.461
0.0043159092537889765,2.462
0.00697727105902045,2.463
0.008834937077302627,2.464
0.00928621659438083,2.465
0.00813983616461524,2.466
0.005675303346623513,2.467
0.0025132720969701745,2.468
-0.0006289010048834367,2.469
-0.0031972259112512044,2.47
-0.004966306763101335,2.471
-0.006030811589681987,2.472
-0.006645330833835734,2.473
-0.007024189153922589,2.474
-0.007236311747025493,2.475
-0.0072364885063107695,2.476
-0.006913296495051211,2.477
-0.006076060859967938,2.478
-0.0044878301279899085,2.479
-0.002005029953446665,2.48
0.001291054195350245,2.481
0.005069791586420303,2.482
0.008810116263492419,2.483
0.011886751350043108,2.484
0.013670861760275044,2.485
0.013658029442338572,2.486
0.01161687098202362,2.487
0.007711695414604599,2.488
0.0025233736771576444,2.489
-0.0030525028242190844,2.49
-0.00798596569950469,2.491
-0.011380587008159537,2.492
-0.012796794491242618,2.493
-0.01242294973766806,2.494
-0.010926370099182616,2.495
-0.00907671580938659,2.496
-0.007411059150295976,2.497
-0.006121298281339221,2.498
-0.005108102169754082,2.499
-0.004099012130704534,2.5
-0.002821885911647957,2.501
-0.001177994213538168,2.502
0.0007119496841252774,2.503
0.0026330546767935614,2.504
0.004443387081197055,2.505
0.006102973873813004,2.506
0.007572680796654962,2.507
0.008738528591672635,2.508
0.00943306306241118,2.509
0.009499965849169819,2.51
0.008836881180199561,2.511
0.0074212871607841615,2.512
0.005348710417502144,2.513
0.0028703666716036534,2.514
0.000391341901180396,2.515
-0.001603977212643012,2.516
-0.0026944957573689816,2.517
-0.002674039356904972,2.518
-0.0016335636018534883,2.519
6.203097505576334e-05,2.52
0.0018643392553976791,2.521
0.0031598276392176554,2.522
0.0034398326819985755,2.523
0.0025066077367330722,2.524
0.0005884525919544564,2.525
-0.0017333331333303122,2.526
-0.003743126995363035,2.527
-0.004848609136297708,2.528
-0.004782824595151388,2.529
-0.003684066850200314,2.53
-0.002028285090863708,2.531
-0.00043599091763221916,2.532
0.0005608166011166738,2.533
0.0006750462169949314,2.534
-0.00010548963281056304,2.535
-0.0015731608231507226,2.536
-0.003381235291281022,2.537
-0.005135503969416642,2.538
-0.006503504157624349,2.539
-0.007299629413306662,2.54
-0.007481776784165729,2.541
-0.007086546411654337,2.542
-0.006202862097549739,2.543
-0.0049982782163400475,2.544
-0.0037198368460432812,2.545
-0.002625984708364274,2.546
-0.0018612171104311808,2.547
-0.0013257399585262898,2.548
-0.0006489647124078096,2.549
0.0006484152242395039,2.55
0.002878322553420129,2.551
0.005994171308156334,2.552
0.009599143365484824,2.553
0.013096175968226926,2.554
0.01585760012501851,2.555
0.01734893135010769,2.556
0.017229399121443,2.557
0.015447105086914102,2.558
0.012275346658415813,2.559
0.008241397365818838,2.56
0.003975991383401501,2.561
7.652144617342557e-05,2.562
-0.0029600038005807264,2.563
-0.004783499866846676,2.564
-0.005256218749537818,2.565
-0.00450149995119088,2.566
-0.002935212079413965,2.567
-0.0012983294727455337,2.568
-0.0005926137782157419,2.569
-0.0018077379391058979,2.57
-0.00553056443647263,2.571
-0.011636552187778067,2.572
-0.019162872561454956,2.573
-0.02641582844599924,2.574
-0.03138458489143061,2.575
-0.032395493017683664,2.576
-0.028706356706216633,2.577
-0.020699376301823863,2.578
-0.009618497728715206,2.579
0.002893375961642029,2.58
0.015196336482522296,2.581
0.025872091699357565,2.582
0.03377653081767556,2.583
0.03807084254102691,2.584
0.03831692381325142,2.585
0.03459629086472197,2.586
0.02759480544464261,2.587
0.018539624841336668,2.588
0.008897621629097525,2.589
-3.967878035744177e-05,2.59
-0.007463018077169056,2.591
-0.013119867501215325,2.592
-0.017167642726056184,2.593
-0.019912292571792105,2.594
-0.021549425208600228,2.595
-0.022030825461789683,2.596
-0.021116198077304874,2.597
-0.01853120617660139,2.598
-0.014172122087905447,2.599
-0.008313155383473792,2.6
-0.001646748784193841,2.601
0.004930996576705227,2.602
0.010630016770693149,2.603
0.014966746998266323,2.604
0.017765048775731228,2.605
0.018994350143791285,2.606
0.01860475662996879,2.607
0.01653555918765991,2.608
0.012909348483717996,2.609
0.008207116814955744,2.61
0.0031854490685747495,2.611
-0.0014567960997673873,2.612
-0.0053653003990757255,2.613
-0.008531803472449093,2.614
-0.011090977956648467,2.615
-0.01312149869679121,2.616
-0.014569271565162502,2.617
-0.015305769087998721,2.618
-0.015232421367860733,2.619
-0.014321221776082008,2.62
-0.012581225696162313,2.621
-0.010024371132292063,2.622
-0.006704711026757742,2.623
-0.00280858644162444,2.624
0.0013263723416764382,2.625
0.005312450231768445,2.626
0.008838193853156684,2.627
0.011699977360157201,2.628
0.013711679416449943,2.629
0.014629600878404286,2.63
0.014261945834260381,2.631
0.012683430418835913,2.632
0.010308228003331544,2.633
0.007730774024904544,2.634
0.005444149403926704,2.635
0.0036276486526561854,2.636
0.0021452734186891,2.637
0.000709631175864544,2.638
-0.0009436940431688938,2.639
-0.002942378727242086,2.64
-0.0052129706000425,2.641
-0.0074807478750764725,2.642
-0.009348675018871233,2.643
-0.010411256673413727,2.644
-0.010367867067014867,2.645
-0.009127428983138987,2.646
-0.006864353911040212,2.647
-0.003990865753184664,2.648
-0.0010450716127368533,2.649
0.0014806455364475741,2.65
0.003282942839614223,2.651
0.004270546524660376,2.652
0.004500739966504488,2.653
0.0041433449236631245,2.654
0.0034939638278399386,2.655
0.0029306231605542234,2.656
0.0027500284034858422,2.657
0.003005665913749565,2.658
0.0035182814326887467,2.659
0.004038110355096625,2.66
0.004384459447487749,2.661
0.004460965319990678,2.662
0.004202721847844157,2.663
0.0035516843176557457,2.664
0.0024622339163286057,2.665
0.0008851116671112691,2.666
-0.0012466222860943092,2.667
-0.0039591900559834015,2.668
-0.007122875036525461,2.669
-0.010382323451138004,2.67
-0.013195038275942131,2.671
-0.014944322565773658,2.672
-0.015068324072275291,2.673
-0.013186873526080767,2.674
-0.009224005460242846,2.675
-0.0035065629776238247,2.676
0.0031915825349818575,2.677
0.00972092097878782,2.678
0.014802594671689658,2.679
0.017393088673238924,2.68
0.017044504791938357,2.681
0.01413391211811251,2.682
0.009769327171086912,2.683
0.005315161248952437,2.684
0.001813434225968113,2.685
-0.0003560622567123689,2.686
-0.0014670479936845263,2.687
-0.0021987882653520603,2.688
-0.0033022450510556854,2.689
-0.005280365227190969,2.69
-0.008151233146128336,2.691
-0.011352855960677182,2.692
-0.013863997569208282,2.693
-0.01456417515000568,2.694
-0.012693139609928614,2.695
-0.00819337518208504,2.696
-0.0017798962157176636,2.697
0.005306387896691612,2.698
0.011726108147364247,2.699
0.016405309189659045,2.7
0.018722474083323844,2.701
0.018554240033855564,2.702
0.016216715776757505,2.703
0.012342124601782705,2.704
0.007721423718547537,2.705
0.0031161620539195832,2.706
-0.0008921223365905956,2.707
-0.003933148660398349,2.708
-0.0058013974560469144,2.709
-0.006418446465901092,2.71
-0.0058152576514661405,2.711
-0.0041230976944486505,2.712
-0.0015989080251401786,2.713
0.001310803393430012,2.714
0.003950943254934198,2.715
0.005576821942334401,2.716
0.005557685927359233,2.717
0.0035007329962067593,2.718
-0.0007588576338560354,2.719
-0.007188390398736806,2.72
-0.015490643075207026,2.721
-0.024939774412487573,2.722
-0.03424271229486178,2.723
-0.04159476743775848,2.724
-0.044990540510952956,2.725
-0.042731991835502796,2.726
-0.03407462148126817,2.727
-0.019766398487778395,2.728
-0.002013943079569985,2.729
0.016234825463879096,2.73
0.03225879577222672,2.731
0.044275936233252676,2.732
0.05163087589807629,2.733
0.05446372587966495,2.734
0.05314018992355109,2.735
0.04793015384333768,2.736
0.039234814454491916,2.737
0.028031667624868254,2.738
0.01592006613748343,2.739
0.004646713684114344,2.74
-0.004469396791849182,2.741
-0.010828376757634579,2.742
-0.014496738055282671,2.743
-0.015963453312604587,2.744
-0.015879552985012785,2.745
-0.014887331256175577,2.746
-0.013579053367960024,2.747
-0.012540296864029408,2.748
-0.012370992498567315,2.749
-0.013570662127378792,2.75
-0.016233362765580035,2.751
-0.019747154359428882,2.752
-0.022876960586099167,2.753
-0.02427016813609195,2.754
-0.02299100731325057,2.755
-0.0187829210983482,2.756
-0.012049287291264275,2.757
-0.0036760800937645217,2.758
0.005138344553802887,2.759
0.013001881195257402,2.76
0.01855389848169317,2.761
0.020882173028274584,2.762
0.01988925875484493,2.763
0.01627767554125121,2.764
0.011150975823191286,2.765
0.005558698253919688,2.766
0.0002727789699433696,2.767
-0.004191978218391487,2.768
-0.007465351852193024,2.769
-0.009258270443732909,2.77
-0.0093886948712627,2.771
-0.00783558122376935,2.772
-0.004761194121521868,2.773
-0.0004975981147931661,2.774
0.0044826865069814105,2.775
0.009592260404219836,2.776
0.014150218602046119,2.777
0.01743439368612308,2.778
0.018821785217774577,2.779
0.018014592688984993,2.78
0.015213445941555782,2.781
0.0110635792764762,2.782
0.006369251737135083,2.783
0.0017708950829260451,2.784
-0.0024244886181996237,2.785
-0.006222055886638076,2.786
-0.009800775290203678,2.787
-0.0133591973921184,2.788
-0.016998794509082926,2.789
-0.02062382750288706,2.79
-0.023844241313449234,2.791
-0.025950106447563723,2.792
-0.026044499909500418,2.793
-0.023337565064551178,2.794
-0.017502100502567206,2.795
-0.00893725361217116,2.796
0.0011893091511058049,2.797
0.011228363117313338,2.798
0.01964305687297817,2.799
0.02552450737056572,2.8
0.02862579361154841,2.801
0.02906284992740733,2.802
0.027108135911899065,2.803
0.023187104159902144,2.804
0.01786694528768101,2.805
0.01172972647962217,2.806
0.00531906803740691,2.807
-0.0007677545256173872,2.808
-0.00589638088828148,2.809
-0.009597937082480922,2.81
-0.011721953630812307,2.811
-0.01242442998998311,2.812
-0.01207363602480057,2.813
-0.011131723455311934,2.814
-0.010016849866022857,2.815
-0.008985192286224838,2.816
-0.008099428214799028,2.817
-0.007295335057509881,2.818
-0.006476888673519451,2.819
-0.005559567082036739,2.82
-0.004460108240247437,2.821
-0.0030981871544632582,2.822
-0.0014405818516009966,2.823
0.00046194392045219946,2.824
0.0024906633875907,2.825
0.004481879302740261,2.826
0.006201344931216046,2.827
0.0073457407769883165,2.828
0.007668424562272009,2.829
0.007131897911850379,2.83
0.0059288693819352445,2.831
0.004388457603187719,2.832
0.002881011409126805,2.833
0.001778041490179808,2.834
0.0014144028871850957,2.835
0.0019909635013780225,2.836
0.003475507330936917,2.837
0.005554302866741037,2.838
0.007615077062387145,2.839
0.008793604814230912,2.84
0.008131461486732256,2.841
0.00482730997624752,2.842
-0.0014677607946730518,2.843
-0.01038394005830666,2.844
-0.020683950781547677,2.845
-0.030301234727484413,2.846
-0.03668538479598812,2.847
-0.03758362450401885,2.848
-0.032017257767910166,2.849
-0.02079379404506744,2.85
-0.006149016190984901,2.851
0.009185304267640972,2.852
0.022835404045164164,2.853
0.03313646764662642,2.854
0.03906421923064614,2.855
0.04011543990720411,2.856
0.03637854163233758,2.857
0.028721471083792662,2.858
0.018755632108929384,2.859
0.008357137501690053,2.86
-0.0009685359893085223,2.861
-0.00841133460463476,2.862
-0.01376560934042475,2.863
-0.017152340864836076,2.864
-0.018781978216196475,2.865
-0.0188308150388407,2.866
-0.0174254092757731,2.867
-0.01471046308382167,2.868
-0.010908791722937563,2.869
-0.006301732032582707,2.87
-0.0012181184899616713,2.871
0.0038447548581968085,2.872
0.008100829845398564,2.873
0.010682731495201901,2.874
0.011138489120754661,2.875
0.009713268593262176,2.876
0.0071657716579859665,2.877
0.004414593152985803,2.878
0.002304699910095385,2.879
0.0013988193556355058,2.88
0.0016845068970475353,2.881
0.002528578996597509,2.882
0.003138766294027225,2.883
0.003090431190504118,2.884
0.0024188252145939558,2.885
0.0013723535579529698,2.886
0.00012479972429464174,2.887
-0.001390914773067575,2.888
-0.00346879852882766,2.889
-0.0064926593013579035,2.89
-0.010770992281835746,2.891
-0.01635206040714036,2.892
-0.02278868414882173,2.893
-0.028941943363134066,2.894
-0.033040467035141755,2.895
-0.0331639450086459,2.896
-0.028071177153042335,2.897
-0.017928023067535354,2.898
-0.004407547143286433,2.899
0.009924725774487506,2.9
0.022562434395096805,2.901
0.03184479817151739,2.902
0.03721149283234216,2.903
0.03894985756038037,2.904
0.037823804648049734,2.905
0.034870146371743745,2.906
0.03124072263731419,2.907
0.027907208379040156,2.908
0.02535006264484153,2.909
0.023385942994039302,2.91
0.0211875556982531,2.911
0.01765701575959861,2.912
0.012079121970549085,2.913
0.004525819722867944,2.914
-0.004301683105512058,2.915
-0.013511589520889475,2.916
-0.022342058948930245,2.917
-0.03022726927195361,2.918
-0.03667795802897721,2.919
-0.04112694270416849,2.92
-0.042882295529627114,2.921
-0.0412782904867937,2.922
-0.036038793610977116,2.923
-0.027692146328668947,2.924
-0.017704366046888933,2.925
-0.008147489549807393,2.926
-0.0010686031260631731,2.927
0.0022016792699917275,2.928
0.0016180237238418908,2.929
-0.0014340458683451292,2.93
