VaMe,time
-0.00029465910641376545,0.001
0.0016942907676710506,0.002
0.0030749652073965524,0.003
0.0034660615514994397,0.004
0.002854004832696141,0.005
0.0015547884899313393,0.006
3.28180186365544e-05,0.007
-0.0012954602714641856,0.008
-0.0021574753855818363,0.009
-0.002433522080078756,0.01
-0.002142473141736012,0.011
-0.0014279851435129716,0.012
-0.0005189892734409453,0.013
0.0003646506555094332,0.014
0.0011041355291103291,0.015
0.001695856299018814,0.016
0.002200107207438724,0.017
0.0026581635342940203,0.018
0.0030059088941092097,0.019
0.003063242634620544,0.02
0.0026567631446114876,0.021
0.0017886199673551753,0.022
0.000686906338319608,0.023
-0.00030567710507485666,0.024
-0.0008969238934582361,0.025
-0.0009538296189724451,0.026
-0.000522633699952242,0.027
0.0002129981819022482,0.028
0.0010000541489612262,0.029
0.0015973112804842618,0.03
0.001843338700924659,0.031
0.0016753418474147114,0.032
0.0011143325057064203,0.033
0.00025435841141269145,0.034
-0.0007534205230570946,0.035
-0.0017400465415480766,0.036
-0.0025605543042252943,0.037
-0.003116862802895126,0.038
-0.003362429104813983,0.039
-0.003290302275968359,0.04
-0.0029196841263027496,0.041
-0.0023075845670018666,0.042
-0.0015629084521553804,0.043
-0.0008140869451346442,0.044
-0.00016841055540509135,0.045
0.00027282989064174236,0.046
0.0004017589088917736,0.047
0.00016392022569767527,0.048
-0.00037163144754059354,0.049
-0.0010227287345159158,0.05
-0.001579658115401689,0.051
-0.001878364076351762,0.052
-0.0018027224130618845,0.053
-0.001263586392676971,0.054
-0.00022978453713388738,0.055
0.0011928313816503562,0.056
0.0027138987779233427,0.057
0.003913579563006882,0.058
0.004388394789438781,0.059
0.0039094787892034735,0.06
0.0025105633263054427,0.061
0.00046453282424529466,0.062
-0.0018194591491389911,0.063
-0.003898785950575651,0.064
-0.005350218883998566,0.065
-0.0058013696095474835,0.066
-0.005006273785579607,0.067
-0.002960103232286026,0.068
4.256912555340917e-05,0.069
0.003479920453702781,0.07
0.006760045413446778,0.071
0.009358610858524123,0.072
0.01090576195901763,0.073
0.01123009635641753,0.074
0.010332235486160276,0.075
0.008306473443468838,0.076
0.005298745151848662,0.077
0.0015370537127456577,0.078
-0.0026376343202603905,0.079
-0.00681050622771477,0.08
-0.010556971567574422,0.081
-0.01344627308760955,0.082
-0.015001054079373929,0.083
-0.014737556444369202,0.084
-0.012388207384696839,0.085
-0.008190180428880294,0.086
-0.0029396477225296343,0.087
0.002301095584242071,0.088
0.006614532999713955,0.089
0.009480179586265382,0.09
0.010795080259541276,0.091
0.010749991586444147,0.092
0.00968128747886823,0.093
0.007982938486190637,0.094
0.006057992294315856,0.095
0.004214270282712476,0.096
0.002543657155772718,0.097
0.0009388399500638643,0.098
-0.0007565119801962028,0.099
-0.002603131351102035,0.1
-0.0045070633623817144,0.101
-0.006245746095493855,0.102
-0.0075368548100221274,0.103
-0.008117283822927692,0.104
-0.007814827541488108,0.105
-0.006584542408409668,0.106
-0.0045178947614190855,0.107
-0.0018578821247232917,0.108
0.0009938511826168915,0.109
0.003532949809062351,0.11
0.005282159943685988,0.111
0.005935202445869157,0.112
0.005458564717188257,0.113
0.00410591433200599,0.114
0.002306565356393589,0.115
0.0004806970817297319,0.116
-0.001096528867249186,0.117
-0.0023248907132933727,0.118
-0.0032337340875492502,0.119
-0.0038965790071219006,0.12
-0.004337097791062134,0.121
-0.004486423270257033,0.122
-0.004221392149617288,0.123
-0.0034405115098693367,0.124
-0.00212603467412258,0.125
-0.0003743786246981876,0.126
0.0016149694825356026,0.127
0.0035878490424307214,0.128
0.005281806035987676,0.129
0.006445987062532335,0.13
0.0068705581772598575,0.131
0.0064584871991500625,0.132
0.005287814182022409,0.133
0.003591961213649246,0.134
0.0016731329432496161,0.135
-0.00018732546213833247,0.136
-0.0017844484649908428,0.137
-0.0030040454509415314,0.138
-0.003806509107684124,0.139
-0.0041911734535037375,0.14
-0.004154550665627431,0.141
-0.003669379251345833,0.142
-0.002701022918773589,0.143
-0.0012545609756755285,0.144
0.0005783572950921304,0.145
0.0026144082909793495,0.146
0.004590180984669553,0.147
0.006139083142529784,0.148
0.006813713838166358,0.149
0.0062635898077770605,0.15
0.004459680771971808,0.151
0.001737784564302802,0.152
-0.0013649758698594983,0.153
-0.004293650725782543,0.154
-0.006566675597994002,0.155
-0.007825260579662874,0.156
-0.007883079900022839,0.157
-0.006751201015960418,0.158
-0.0046353095451071346,0.159
-0.0019337460089073534,0.16
0.0007926626138756773,0.161
0.0029510428981541653,0.162
0.004115355152515949,0.163
0.004166245421434903,0.164
0.003304054634280066,0.165
0.0019494936323110337,0.166
0.0005800178731526057,0.167
-0.00042951291371539886,0.168
-0.0009091951659685086,0.169
-0.0009159274533659097,0.17
-0.0006689067263970787,0.171
-0.00043053012621986056,0.172
-0.0003898090069063315,0.173
-0.0005979434033840839,0.174
-0.0009849189793857123,0.175
-0.0014272719944760947,0.176
-0.0018002962355828825,0.177
-0.0020018017043065923,0.178
-0.0019728643006240096,0.179
-0.0017137547068159101,0.18
-0.001280403043925709,0.181
-0.0007545490245379518,0.182
-0.000202324679516704,0.183
0.0003488542852715977,0.184
0.0009140208445220765,0.185
0.0015450953127336073,0.186
0.0023055475020195572,0.187
0.003221210407230949,0.188
0.004229713993885175,0.189
0.005159836412542027,0.19
0.0057616274788123405,0.191
0.005791111165170418,0.192
0.005116322478218461,0.193
0.003781664626259244,0.194
0.001993288240143749,0.195
4.414183278911141e-05,0.196
-0.0017666284180588303,0.197
-0.0031780507089956053,0.198
-0.003993505017625269,0.199
-0.004127500859412936,0.2
-0.0036492368966407067,0.201
-0.0027641623565849626,0.202
-0.0017285443074997909,0.203
-0.0007620046167428822,0.204
-1.4795783195456619e-05,0.205
0.00042696421442999107,0.206
0.0005436668719222553,0.207
0.00039414170402310216,0.208
8.982062807762724e-05,0.209
-0.00028129601998318936,0.21
-0.0007205034473958731,0.211
-0.001334382263292458,0.212
-0.0022957311387131894,0.213
-0.0037269320381534575,0.214
-0.005539647981317822,0.215
-0.007350376030143664,0.216
-0.008544426416650035,0.217
-0.008474116380374434,0.218
-0.006747311025356773,0.219
-0.0034720669114874547,0.22
0.0007331320545772956,0.221
0.004993602795553905,0.222
0.00853547569690844,0.223
0.010935781284847679,0.224
0.012137963447312378,0.225
0.012289133664303094,0.226
0.01156374886111984,0.227
0.01009253288024961,0.228
0.008002576417976642,0.229
0.005449668929849384,0.23
0.0025644526060614866,0.231
-0.0005868446439750462,0.232
-0.003932541612794746,0.233
-0.007287943801846323,0.234
-0.010313313021805194,0.235
-0.012553490332047074,0.236
-0.013551904974948974,0.237
-0.01300291980019322,0.238
-0.010839673032900333,0.239
-0.007221200026015191,0.24
-0.0024921561054616842,0.241
0.0028382414622221117,0.242
0.008123618347058494,0.243
0.012643768878382595,0.244
0.01569847485627923,0.245
0.016733712828945056,0.246
0.015503676365704875,0.247
0.012210973612660644,0.248
0.007516973467231938,0.249
0.0023409503311784216,0.25
-0.002467421549461706,0.251
-0.006354578617707279,0.252
-0.009088796935685406,0.253
-0.010682679720097548,0.254
-0.01130791700523026,0.255
-0.011209006157328732,0.256
-0.01061039658227663,0.257
-0.009647885269544415,0.258
-0.008355822014701302,0.259
-0.006709127545852936,0.26
-0.004702538621008959,0.261
-0.002429570249612375,0.262
-9.627645060419405e-05,0.263
0.0020561120407151835,0.264
0.0038603677689208666,0.265
0.005263307847067255,0.266
0.006252304603555231,0.267
0.006748673830156948,0.268
0.006588245284520684,0.269
0.005631570705412624,0.27
0.003949857529663026,0.271
0.001934349526585678,0.272
0.00017672949201640172,0.273
-0.0008160823520533254,0.274
-0.000837679944052569,0.275
-1.8955377821326224e-05,0.276
0.0012521652598202573,0.277
0.002462395989798142,0.278
0.0031368103426548683,0.279
0.003012871067771983,0.28
0.0021526469225522067,0.281
0.0009055740580369929,0.282
-0.0002749520141281973,0.283
-0.0010350215927886317,0.284
-0.0012204972187561643,0.285
-0.0008692738976324675,0.286
-0.0001505766696092311,0.287
0.000695397825467563,0.288
0.0013892549819580582,0.289
0.0016536486165979918,0.29
0.0012957665411615943,0.291
0.00028450656086293413,0.292
-0.001225218040395618,0.293
-0.002924114100917099,0.294
-0.004435230652215312,0.295
-0.005428795332638038,0.296
-0.00570317084160548,0.297
-0.00521129769254943,0.298
-0.004054894028109343,0.299
-0.0024570971825979633,0.3
-0.0007128322200767451,0.301
0.0008899535073610831,0.302
0.0021592396128172348,0.303
0.003029033687172371,0.304
0.003505193885652399,0.305
0.003597118460854852,0.306
0.0033112083174599814,0.307
0.0027020734116491975,0.308
0.0019054143175393865,0.309
0.0011105566802007024,0.31
0.0005045252946107815,0.311
0.0002154661755689604,0.312
0.0002675976675830578,0.313
0.0005621861326790139,0.314
0.0008951949709158254,0.315
0.0010281668430615794,0.316
0.0007945169838579216,0.317
0.00017608061831006524,0.318
-0.0006862840360404878,0.319
-0.0015443744867915856,0.32
-0.0021517742479390694,0.321
-0.0023851022135097876,0.322
-0.00228561411649399,0.323
-0.001986263494133071,0.324
-0.0015989439323846632,0.325
-0.0011624525652170123,0.326
-0.0006718300906353801,0.327
-0.000131273756017799,0.328
0.00042281349697876204,0.329
0.0009339287209396018,0.33
0.0013480545876993707,0.331
0.0016207421097756752,0.332
0.0017082526862607884,0.333
0.001568313458862576,0.334
0.001184253229771523,0.335
0.0005953438270225441,0.336
-9.372282014112637e-05,0.337
-0.0007370791512539717,0.338
-0.0011965886451984385,0.339
-0.0013851415569597868,0.34
-0.001272564429916023,0.341
-0.0008638360680871691,0.342
-0.0001875385893593638,0.343
0.0007003829374131582,0.344
0.0017091430231168634,0.345
0.0027035132877239955,0.346
0.0035116853508428644,0.347
0.003956328628915188,0.348
0.0038721772080682845,0.349
0.0031065902057004933,0.35
0.0015481660693672245,0.351
-0.0008104519156771488,0.352
-0.0038070802688954684,0.353
-0.007058239473724395,0.354
-0.009943952835016147,0.355
-0.011688763889547359,0.356
-0.01160506880472987,0.357
-0.00943084581521411,0.358
-0.005508496397157711,0.359
-0.0006387392380041025,0.36
0.004260567644879893,0.361
0.008438714021785598,0.362
0.011413133989541175,0.363
0.012933027175951128,0.364
0.012906487000845703,0.365
0.011381396994951871,0.366
0.008628556608921407,0.367
0.005207240515006615,0.368
0.0018303546962273249,0.369
-0.0009056831550529503,0.37
-0.0026919070056589324,0.371
-0.0035084687758928546,0.372
-0.003551642482719216,0.373
-0.0031509988244774853,0.374
-0.002680373403696571,0.375
-0.0024560429168811993,0.376
-0.0026450136785405674,0.377
-0.0032334638491578792,0.378
-0.0040632000541058295,0.379
-0.0048998960519528924,0.38
-0.005509637805047358,0.381
-0.005720452690133854,0.382
-0.005442981274943161,0.383
-0.004664918236708068,0.384
-0.00344570199075186,0.385
-0.001902846307636744,0.386
-0.00018486883779021758,0.387
0.0015507904990211846,0.388
0.003153250223603819,0.389
0.004496119539665593,0.39
0.005488018754409911,0.391
0.006062287071302869,0.392
0.006161830350175693,0.393
0.005750393011087425,0.394
0.004842856877236857,0.395
0.0035194898867932714,0.396
0.0019173582463017718,0.397
0.0002197241073367968,0.398
-0.0013483727765228283,0.399
-0.0025393966094962254,0.4
-0.003144037577164325,0.401
-0.0030831426832553317,0.402
-0.0024638065239748403,0.403
-0.0015416256200835171,0.404
-0.0006170803972699045,0.405
6.79223827774568e-05,0.406
0.0003945589039833782,0.407
0.00036642396771266255,0.408
5.525370782511117e-05,0.409
-0.00044078546141659543,0.41
-0.0010018338370552998,0.411
-0.0014850647159969357,0.412
-0.001729054793376648,0.413
-0.0015832080649490275,0.414
-0.0009848311665982515,0.415
-3.288545904171037e-05,0.416
0.001029598370425342,0.417
0.0019347618955846664,0.418
0.002512520112154824,0.419
0.0027192877294779623,0.42
0.002586802658857769,0.421
0.002165814936340218,0.422
0.0015015256556233708,0.423
0.0006460997983058171,0.424
-0.0003059972211555737,0.425
-0.0012163844049121293,0.426
-0.0019554431408308633,0.427
-0.002445480968394756,0.428
-0.0026560812297736105,0.429
-0.002583805123293958,0.43
-0.002247939073373782,0.431
-0.001702103833829644,0.432
-0.0010402314402506517,0.433
-0.0003727934818446748,0.434
0.0002253951173279215,0.435
0.0007571734496686687,0.436
0.0012833868859367476,0.437
0.0018482340202248247,0.438
0.0024258705273484064,0.439
0.0029270610086035167,0.44
0.0032328614967523646,0.441
0.003224921716655648,0.442
0.0028128226881002933,0.443
0.0019572041090147136,0.444
0.0006766708268066983,0.445
-0.0009470068008647443,0.446
-0.002746905449824867,0.447
-0.004467288650793272,0.448
-0.005815046380450949,0.449
-0.0065383284784794925,0.45
-0.006483878515428555,0.451
-0.005623976161575008,0.452
-0.004067425068276423,0.453
-0.0020490780634446018,0.454
0.00011663964089555583,0.455
0.0021068396564051014,0.456
0.0036615880882206243,0.457
0.004632395903110488,0.458
0.004986879376187751,0.459
0.004789938656348511,0.46
0.00420595906006112,0.461
0.0034977300323134957,0.462
0.002945865256710317,0.463
0.002699831406937186,0.464
0.0026918162138235223,0.465
0.0027062215442588116,0.466
0.0025347259976884347,0.467
0.002078373778756079,0.468
0.0013554384089295803,0.469
0.00046985877012041793,0.47
-0.00042670573038928984,0.471
-0.0011892611023117952,0.472
-0.0017403187344103563,0.473
-0.0020814196833122533,0.474
-0.0022260351384129125,0.475
-0.0021334640481801997,0.476
-0.0017384004578454221,0.477
-0.001047977524268491,0.478
-0.0002006811816133446,0.479
0.000564706145503475,0.48
0.0009918319856739239,0.481
0.0008914356735727623,0.482
0.00021459672705568912,0.483
-0.000913983054279413,0.484
-0.002243079976524321,0.485
-0.0034986149110830204,0.486
-0.0044661961975595325,0.487
-0.005008016633755166,0.488
-0.005045290193540762,0.489
-0.004547870995098037,0.49
-0.003529480483723251,0.491
-0.002055621390928148,0.492
-0.000272394201415829,0.493
0.0015786031404468343,0.494
0.0031894885305628587,0.495
0.004254561125619976,0.496
0.004557756063577601,0.497
0.004047189891430029,0.498
0.0028622426889117914,0.499
0.0013034895268400402,0.5
-0.00023771917170177246,0.501
-0.001377348096063699,0.502
-0.0018519594487044174,0.503
-0.001600709820553059,0.504
-0.000772226491137286,0.505
0.0003337557719978563,0.506
0.0013617112280965903,0.507
0.0020128182831129723,0.508
0.00214343864111631,0.509
0.0018001022554516503,0.51
0.0011632250753920719,0.511
0.0004520173370203106,0.512
-0.00012873894848053816,0.513
-0.0004052715634704795,0.514
-0.0002664713330156832,0.515
0.0002968198779821253,0.516
0.0011720946888561247,0.517
0.0021339302514957266,0.518
0.0029045444884007077,0.519
0.0032547450900007255,0.52
0.0030836872855929003,0.521
0.0024400585345966002,0.522
0.0014881027680299843,0.523
0.00043986797169485645,0.524
-0.0005119325638985316,0.525
-0.0012287333242547334,0.526
-0.0016342128358917591,0.527
-0.0017252170819983537,0.528
-0.0015834749955295968,0.529
-0.0013601643825258457,0.53
-0.00122505826861309,0.531
-0.0013058631990134641,0.532
-0.001647121659462788,0.533
-0.0021931984885405886,0.534
-0.0028032485090348355,0.535
-0.0033081550701897357,0.536
-0.003575391366862344,0.537
-0.003537711507289598,0.538
-0.0031867605890152574,0.539
-0.002553781801152616,0.54
-0.0016952612412701133,0.541
-0.0006929245386064545,0.542
0.00034777491565710463,0.543
0.0013151035842816382,0.544
0.0021075963117271564,0.545
0.0026405252201624485,0.546
0.002852006056549784,0.547
0.002711634409220331,0.548
0.0022402017638251384,0.549
0.0015316242697346368,0.55
0.0007359761209902502,0.551
6.042181610252967e-06,0.552
-0.0005431021046726575,0.553
-0.000841221135710054,0.554
-0.000854279104776609,0.555
-0.000584208722380155,0.556
-7.930550079701256e-05,0.557
0.0005656166166787649,0.558
0.0012247279901065752,0.559
0.001758741939505836,0.56
0.002033242490385009,0.561
0.0019498747957543943,0.562
0.0014948728782337626,0.563
0.0007839454420468708,0.564
5.05102807412557e-05,0.565
-0.00045258627238321347,0.566
-0.0005735002210265973,0.567
-0.00031151907082952975,0.568
0.00021632534147499887,0.569
0.0008428529386177015,0.57
0.0014057550922593396,0.571
0.001782391281563585,0.572
0.001917109553702692,0.573
0.0018327276031724173,0.574
0.0016109455848610647,0.575
0.0013474287475866964,0.576
0.0011063601295569219,0.577
0.0009045700863093358,0.578
0.0007276144536397351,0.579
0.0005397966355958593,0.58
0.00027104224098607515,0.581
-0.00017588492066769414,0.582
-0.0008748259255768802,0.583
-0.001833834222841706,0.584
-0.002991177988760951,0.585
-0.004217941518636838,0.586
-0.005327566872330843,0.587
-0.006118116816173429,0.588
-0.006425569458693935,0.589
-0.006167459821897312,0.59
-0.005381443123283333,0.591
-0.0042243345508480344,0.592
-0.0028957353015085945,0.593
-0.001536623883699721,0.594
-0.00018448949909671743,0.595
0.0011967575354537572,0.596
0.0026376308834318964,0.597
0.004079851946410166,0.598
0.005352291905472657,0.599
0.006225199753109639,0.6
0.006501188935543496,0.601
0.006100207173895048,0.602
0.0051071732723923634,0.603
0.0037510905597349866,0.604
0.0023205058879717834,0.605
0.0010695594017101513,0.606
0.00015823344972121575,0.607
-0.00037174189619177983,0.608
-0.0005894602814387746,0.609
-0.0006316393033586229,0.61
-0.0006333035784265442,0.611
-0.0006670927093321472,0.612
-0.000730628675589443,0.613
-0.0007827159941295836,0.614
-0.0007860552462096064,0.615
-0.0007275368523422278,0.616
-0.0006251495197108943,0.617
-0.000528248243039249,0.618
-0.0005031405722940199,0.619
-0.0006010150232056724,0.62
-0.0008191339771189546,0.621
-0.0010831705370485801,0.622
-0.0012692324278884223,0.623
-0.0012616323708342057,0.624
-0.0010209801738496906,0.625
-0.0006083638534469023,0.626
-0.00015057795287410765,0.627
0.00020906277794407123,0.628
0.00035543745216167323,0.629
0.00024364075731993687,0.63
-8.134608331586995e-05,0.631
-0.0004998186278775731,0.632
-0.0008564625851977487,0.633
-0.0010099191835439292,0.634
-0.0008802216938893901,0.635
-0.0004705575146229477,0.636
0.0001429393794219902,0.637
0.0008282099489756135,0.638
0.0014158120516886373,0.639
0.0017402971696211596,0.64
0.0017006045705868682,0.641
0.0013020278721899876,0.642
0.0006492334326514724,0.643
-0.00010009495050629735,0.644
-0.0007924388519685146,0.645
-0.00132621597954158,0.646
-0.001668876507839083,0.647
-0.0018348431872020198,0.648
-0.0018440610035489037,0.649
-0.0016932519197230044,0.65
-0.0013614284090642992,0.651
-0.000836399235457852,0.652
-0.0001300624418235232,0.653
0.0007185446533221139,0.654
0.0016297560602694476,0.655
0.00246992663372543,0.656
0.0030710951326745456,0.657
0.003285472206946548,0.658
0.0030427334196072723,0.659
0.0023763489833709198,0.66
0.0014193165416563059,0.661
0.00037751854205811104,0.662
-0.0005346147845269395,0.663
-0.0011725682683340745,0.664
-0.001488102666190081,0.665
-0.0014898455615390647,0.666
-0.0011996883074644551,0.667
-0.0006582976960578763,0.668
4.2277278500350225e-05,0.669
0.0007540677097357635,0.67
0.0013112128880023908,0.671
0.0015841193450572175,0.672
0.0015191231027236413,0.673
0.0011463202694533105,0.674
0.0005586905167770157,0.675
-0.00012156710639050271,0.676
-0.0007721849443421758,0.677
-0.0012835653622539072,0.678
-0.001576507776285125,0.679
-0.001649418706921671,0.68
-0.0016097324810815663,0.681
-0.0016262291040819562,0.682
-0.0018202442501869679,0.683
-0.00217459292862921,0.684
-0.0025266188573871357,0.685
-0.0026553996609185006,0.686
-0.0023987551896214316,0.687
-0.0017191838148829781,0.688
-0.0007036468915194296,0.689
0.0004715604695251192,0.69
0.0015883610502594324,0.691
0.0024418769447763266,0.692
0.0029003010983735746,0.693
0.0029440935643195052,0.694
0.002650741858943063,0.695
0.0021342045053217855,0.696
0.0014895855209025618,0.697
0.0007823563063885669,0.698
7.228068833822095e-05,0.699
-0.0005706102374700094,0.7
-0.001075590913043166,0.701
-0.0013884847035906572,0.702
-0.0014824764965023077,0.703
-0.0013553580042668038,0.704
-0.0010152700752492593,0.705
-0.00047949673166175423,0.706
0.00020055113171759355,0.707
0.0009152921790903243,0.708
0.0015048563407239139,0.709
0.0017993546036393065,0.71
0.0016818397673298293,0.711
0.0011566837575081414,0.712
0.0003806714588381904,0.713
-0.00037700208034745176,0.714
-0.0008312217928617727,0.715
-0.0007872074560413917,0.716
-0.00020723361587824218,0.717
0.0007883868188865977,0.718
0.0019666459261068713,0.719
0.0030396017585658844,0.72
0.003722629816024829,0.721
0.003796883256631182,0.722
0.003174773729854504,0.723
0.0019333185078975075,0.724
0.0002855513412895189,0.725
-0.0014802384648413148,0.726
-0.003064842569834316,0.727
-0.004233746413922775,0.728
-0.004882721381993233,0.729
-0.00504019437838728,0.73
-0.0048082114725636034,0.731
-0.004299225731373937,0.732
-0.0035934746696592783,0.733
-0.002723405132064081,0.734
-0.0017060449447992984,0.735
-0.0005982212574010694,0.736
0.0004940890534418602,0.737
0.0014690160076987811,0.738
0.0022696519522216554,0.739
0.0028554896346308987,0.74
0.003160306517224622,0.741
0.003103789231437161,0.742
0.0026420679923116973,0.743
0.0018103288896735563,0.744
0.0007331361590296519,0.745
-0.00038819549495882743,0.746
-0.0012984069505555362,0.747
-0.0017396349851098076,0.748
-0.001543172797586047,0.749
-0.0007185561119284543,0.75
0.0005218910041594786,0.751
0.0018239764614800121,0.752
0.0028170800643047044,0.753
0.00324992256087327,0.754
0.0030679146615637384,0.755
0.0024075734966002814,0.756
0.001531113954183094,0.757
0.0007234905791936581,0.758
0.00018313787462232635,0.759
-3.661295615925149e-05,0.76
-8.933010387478737e-06,0.761
0.00012917301822811737,0.762
0.0002364849683417153,0.763
0.00020027874254117798,0.764
-4.371117719886714e-05,0.765
-0.0004877371113885142,0.766
-0.0010534607567165466,0.767
-0.0016350932560149193,0.768
-0.0021433489083443192,0.769
-0.0025160361495571494,0.77
-0.002712197590777942,0.771
-0.002719612268147067,0.772
-0.002566900882456234,0.773
-0.0023068104794311023,0.774
-0.0019842439072965696,0.775
-0.001631131783949164,0.776
-0.0012763467261870725,0.777
-0.0009415019965114065,0.778
-0.00063137854265911,0.779
-0.0003393048621289413,0.78
-6.543302021205524e-05,0.781
0.00018175372506291793,0.782
0.0004030939189091473,0.783
0.0006105847628761658,0.784
0.0008140315033663875,0.785
0.001025424954885914,0.786
0.0012758254911622343,0.787
0.0015979337124543218,0.788
0.0019623101173973684,0.789
0.0022312142792812505,0.79
0.00220434423507428,0.791
0.0017426658761068965,0.792
0.0008676307277323385,0.793
-0.00023743341101846853,0.794
-0.001295335456228888,0.795
-0.002008974635149895,0.796
-0.0021193738874589873,0.797
-0.001464155169836594,0.798
-4.6975269911960854e-05,0.799
0.0019182629439918736,0.8
0.004049707010267985,0.801
0.005924362572648847,0.802
0.007203857465979332,0.803
0.007688244033535748,0.804
0.007308504367339781,0.805
0.006101549297401904,0.806
0.0041953955119124935,0.807
0.0018067333613274125,0.808
-0.0007837522831748588,0.809
-0.003291605001720109,0.81
-0.005473168261906372,0.811
-0.007130035266062246,0.812
-0.00811046202829312,0.813
-0.008330004905705313,0.814
-0.007801177576325172,0.815
-0.006650478794141727,0.816
-0.005095081063517072,0.817
-0.0033830520172076343,0.818
-0.0017418155253141213,0.819
-0.00035410469147840974,0.82
0.0006618196038247803,0.821
0.0012725689962162646,0.822
0.0015245596482472415,0.823
0.0015109180644233382,0.824
0.0013394689953934891,0.825
0.0011068589617442093,0.826
0.0008666101817175142,0.827
0.0006113767374933562,0.828
0.00029191365853736264,0.829
-0.00013559962814471626,0.83
-0.0006512033672975408,0.831
-0.001139708931676857,0.832
-0.0014284271263903805,0.833
-0.001367707234991361,0.834
-0.0008867668300672843,0.835
-2.3460025339235995e-06,0.836
0.0011978117675150862,0.837
0.0025722914309275384,0.838
0.0039399265018982745,0.839
0.0050994220797588264,0.84
0.005854359908881897,0.841
0.0060457203346926565,0.842
0.005600078250949441,0.843
0.004571238576736103,0.844
0.0031352702976806973,0.845
0.0015358419286713159,0.846
1.3692412844069078e-05,0.847
-0.0012555756562129307,0.848
-0.0022078207068694294,0.849
-0.002894486099038146,0.85
-0.003416904953633515,0.851
-0.003831109757404248,0.852
-0.004109904355008643,0.853
-0.004184476083833245,0.854
-0.004007898773357882,0.855
-0.0035881744253537613,0.856
-0.002982049522174924,0.857
-0.0022606918997925903,0.858
-0.0014669796591410451,0.859
-0.0006048091845086341,0.86
0.0003210852489116718,0.861
0.001261525963981032,0.862
0.0021164113237452176,0.863
0.002764591541154131,0.864
0.003123506314076048,0.865
0.0031943206878031214,0.866
0.0030427900884917383,0.867
0.0027472003083512052,0.868
0.002365534896576528,0.869
0.0019211717994040262,0.87
0.0013985663244789925,0.871
0.0007602386848629927,0.872
-1.4831851166546012e-05,0.873
-0.0008894453692122368,0.874
-0.0017468876942262073,0.875
-0.002411104169512234,0.876
-0.002709158645067165,0.877
-0.0025503548730633693,0.878
-0.0019835903122278407,0.879
-0.0012000775000057357,0.88
-0.00045952762687429753,0.881
4.0792078171886605e-05,0.882
0.000255299136703571,0.883
0.0002592188280758493,0.884
0.00014971273169089337,0.885
-1.7550843257155143e-05,0.886
-0.00021834407013552465,0.887
-0.00042047786071464934,0.888
-0.0005748373257069557,0.889
-0.0006435010684168338,0.89
-0.0006275496181383435,0.891
-0.0005582740958554267,0.892
-0.00045793071376512334,0.893
-0.00032084252765447697,0.894
-0.00013620960274107646,0.895
8.907996569571704e-05,0.896
0.00033848351676825123,0.897
0.0006061772783104877,0.898
0.0008983992275660341,0.899
0.001213830721049428,0.9
0.0015379973645635475,0.901
0.0018599467564255252,0.902
0.0021751585186044575,0.903
0.00246572597923054,0.904
0.0026861999046257743,0.905
0.0027766809817271077,0.906
0.0027001466188506617,0.907
0.002469979456290629,0.908
0.0021274517620798136,0.909
0.0016864346403284742,0.91
0.001108678823696008,0.911
0.00033156903781408106,0.912
-0.0006838852653096804,0.913
-0.0019156526710699879,0.914
-0.003263939028852882,0.915
-0.004560814857598379,0.916
-0.005604520236239052,0.917
-0.006203080731045091,0.918
-0.006220111094269427,0.919
-0.005619305017430958,0.92
-0.004481417454674341,0.921
-0.0029723321886506995,0.922
-0.0012858681684190462,0.923
0.00039622111190095756,0.924
0.0019130799374671207,0.925
0.003117871542775874,0.926
0.0038807466259224025,0.927
0.004118961088814817,0.928
0.0038319555550226226,0.929
0.003105964594719281,0.93
0.0021032399569502966,0.931
0.0010467312560855295,0.932
0.00016181300686931771,0.933
-0.0004078382375703512,0.934
-0.000630306025932124,0.935
-0.0005503667143466497,0.936
-0.00024777384498687915,0.937
0.0001836475135487806,0.938
0.0006484345689140344,0.939
0.0010593521971012908,0.94
0.0013453366235444868,0.941
0.001469572634527102,0.942
0.00145337231739445,0.943
0.0013735755812847347,0.944
0.001319345380801268,0.945
0.0013357864090338017,0.946
0.0013972402380452405,0.947
0.0014268874512090668,0.948
0.0013353487853543023,0.949
0.0010526558631838768,0.95
0.00055803538509802,0.951
-0.00010205692774514067,0.952
-0.0008290483318689781,0.953
-0.0015118097516895923,0.954
-0.0020639858206324495,0.955
-0.0024356271133233,0.956
-0.0026009972251056336,0.957
-0.002550223565248179,0.958
-0.0022908569506025277,0.959
-0.0018517750488262555,0.96
-0.0012973466948286955,0.961
-0.0007369346721312638,0.962
-0.00029874759078057087,0.963
-8.376195884656715e-05,0.964
-0.00013861111077678726,0.965
-0.0004508741193420781,0.966
-0.0009504026856802357,0.967
-0.0015151965452373539,0.968
-0.0019935977856041657,0.969
-0.002247223398818718,0.97
-0.002200232351700553,0.971
-0.0018632876295864862,0.972
-0.0013051803838050086,0.973
-0.0005957294283867722,0.974
0.00022422631222692824,0.975
0.0011348773032178047,0.976
0.00211147906770418,0.977
0.003089512225165338,0.978
0.003953204906499496,0.979
0.004574684204343255,0.98
0.004868276101295372,0.981
0.0048160434333957445,0.982
0.004463091444067145,0.983
0.0038962185741501574,0.984
0.00321205202991552,0.985
0.002482395202511113,0.986
0.0017333383908224825,0.987
0.0009550318641270545,0.988
0.00013690230911778857,0.989
-0.0007036136970194937,0.99
-0.0015147649528358842,0.991
-0.0022162134334469145,0.992
-0.002720546627636674,0.993
-0.002978258490763872,0.994
-0.003013446788678583,0.995
-0.002908408268049719,0.996
-0.002753123814698438,0.997
-0.002607918302005496,0.998
-0.0024987223728724717,0.999
-0.0024308178995764668,1.0
-0.002395410716297017,1.001
-0.002364838277136499,1.002
-0.002292506788671595,1.003
-0.002117486836020754,1.004
-0.0017678087746412065,1.005
-0.0011718544873938511,1.006
-0.00028862028861756134,1.007
0.0008496841592973902,1.008
0.002112544488775927,1.009
0.0032888360719448353,1.01
0.004140903079182899,1.011
0.004474000801559546,1.012
0.004194581418987844,1.013
0.0033294392877846525,1.014
0.00200987286894287,1.015
0.00044320857983019097,1.016
-0.0011239196295736425,1.017
-0.0024489045890278387,1.018
-0.00334167479747492,1.019
-0.0037086042538457186,1.02
-0.003557411030078639,1.021
-0.0029577479271430487,1.022
-0.0020088423746696276,1.023
-0.0008457252682840065,1.024
0.0003508002352558468,1.025
0.0013817766595606872,1.026
0.0020909762593063004,1.027
0.002419896646707287,1.028
0.0024159856129875226,1.029
0.0021961858208680734,1.03
0.0019049772478430416,1.031
0.001683125533206238,1.032
0.0016339686881426682,1.033
0.0017880884000793559,1.034
0.0020831499336756943,1.035
0.002372156241479498,1.036
0.002475114948805021,1.037
0.002259133526870708,1.038
0.0016874343799682164,1.039
0.0008103345458585953,1.04
-0.0002665717435654414,1.041
-0.0014024875739195107,1.042
-0.002441400103285847,1.043
-0.0032511055303485743,1.044
-0.0037544574013165955,1.045
-0.0039290695842003395,1.046
-0.0037970968197612825,1.047
-0.003416787520237888,1.048
-0.0028640262578687146,1.049
-0.002209631181715148,1.05
-0.0014994870315780432,1.051
-0.0007352825208866097,1.052
0.00011783395022980632,1.053
0.0010777078387923286,1.054
0.002086766268876061,1.055
0.0030070393074349906,1.056
0.003682842557082581,1.057
0.004018404098677297,1.058
0.004007994044622899,1.059
0.0037162698228143994,1.06
0.0032330267989854836,1.061
0.002628819081097206,1.062
0.0019401656937408358,1.063
0.001169678557583607,1.064
0.00027839986566975466,1.065
-0.0008029490970647174,1.066
-0.0021253697492307783,1.067
-0.003655986562654752,1.068
-0.00522949209837536,1.069
-0.006567696459612815,1.07
-0.007380224152790779,1.071
-0.007473129198194906,1.072
-0.006798313414534226,1.073
-0.00544707512698111,1.074
-0.0036117389349309744,1.075
-0.0015414225846732232,1.076
0.0004917601991886698,1.077
0.002237532441023074,1.078
0.003530087440761069,1.079
0.004328045377269219,1.08
0.004707336055061597,1.081
0.004821968308637934,1.082
0.00484460100499142,1.083
0.004887054784675425,1.084
0.00493737471427617,1.085
0.004879174827624877,1.086
0.0045846046429745034,1.087
0.003999189247625222,1.088
0.003173742740128989,1.089
0.002246659857652736,1.09
0.0013862170507202732,1.091
0.0007133074859970463,1.092
0.0002471621618465923,1.093
-9.147461787981253e-05,1.094
-0.00042884809162256035,1.095
-0.0008686229758483209,1.096
-0.0014336618813704527,1.097
-0.0020484346376406577,1.098
-0.002576969935950569,1.099
-0.002893348304024713,1.1
-0.0029312724665856746,1.101
-0.002698392423488266,1.102
-0.002276030487287655,1.103
-0.0017886722944808445,1.104
-0.0013419277015042396,1.105
-0.0009820454370773662,1.106
-0.0007093913662437444,1.107
-0.0005275048770278004,1.108
-0.0004803590528396119,1.109
-0.0006384162690728374,1.11
-0.0010413620723905782,1.111
-0.0016417390141821209,1.112
-0.0023007641913360645,1.113
-0.0028485199459281096,1.114
-0.003154327135929207,1.115
-0.0031530567967375583,1.116
-0.0028305321880150083,1.117
-0.0021965375956162292,1.118
-0.0012720245114735149,1.119
-0.00011543611876966748,1.12
0.0011366733447349408,1.121
0.0022895376562111127,1.122
0.0031835210685050696,1.123
0.0037786054173577902,1.124
0.00414757189455241,1.125
0.004387983651049965,1.126
0.004543340585697516,1.127
0.0045880731694963985,1.128
0.004453378098869873,1.129
0.004064771344141186,1.13
0.0033811674802116196,1.131
0.002414415304619913,1.132
0.0012173339357924309,1.133
-0.00013409195784820288,1.134
-0.0015379826546717066,1.135
-0.0028522184794460025,1.136
-0.0038947938214280906,1.137
-0.004474229969301657,1.138
-0.004456367961838566,1.139
-0.0038412983696838134,1.14
-0.0027812497399086053,1.141
-0.0015207082266976088,1.142
-0.0003104048835795624,1.143
0.0006678377133636635,1.144
0.0013414177676560122,1.145
0.001729133472042872,1.146
0.0018879893800485671,1.147
0.0018761057607443266,1.148
0.0017418431391991484,1.149
0.001506074799296006,1.15
0.0011418970109778005,1.151
0.0006037503077445452,1.152
-9.706216678503197e-05,1.153
-0.0008477282723198234,1.154
-0.0014735763289127225,1.155
-0.0018318217245834592,1.156
-0.0018763423790088616,1.157
-0.001647579069231854,1.158
-0.001228842320107819,1.159
-0.000716638378909807,1.16
-0.0001943556098910283,1.161
0.00028589135391124713,1.162
0.0006895101706709778,1.163
0.0009794282880392386,1.164
0.0011139989155185522,1.165
0.0010491477109848613,1.166
0.0007454568953573341,1.167
0.0002011620436592028,1.168
-0.0005026117585376018,1.169
-0.0011930206698180948,1.17
-0.0016472082218874247,1.171
-0.0016625501129452352,1.172
-0.0011404399233137371,1.173
-0.00015439045260201957,1.174
0.0010521266452685858,1.175
0.0021492021956715625,1.176
0.0028241341008867866,1.177
0.002857526715095718,1.178
0.002178599215157077,1.179
0.0009013198899147521,1.18
-0.000682937838668462,1.181
-0.00217604689637576,1.182
-0.0031935833000118832,1.183
-0.0034810696943326004,1.184
-0.0029754134981959716,1.185
-0.0017998268665355573,1.186
-0.00021002459074678394,1.187
0.00147148166433723,1.188
0.002911194576994786,1.189
0.003825324736634081,1.19
0.004042112563168831,1.191
0.0035291968127934494,1.192
0.0023833177762501425,1.193
0.0008069111911122392,1.194
-0.000923678551350864,1.195
-0.00249670386570539,1.196
-0.003618390839357414,1.197
-0.004090067687927667,1.198
-0.0038714841335566875,1.199
-0.003085141039296963,1.2
-0.0019607938881509596,1.201
-0.0007541723453642775,1.202
0.0003125378823879962,1.203
0.0010721512459697783,1.204
0.0014298873722175735,1.205
0.0013973589978149676,1.206
0.00110496590900429,1.207
0.0007514393542868742,1.208
0.0005157135500927625,1.209
0.0004979744702177605,1.21
0.0007183787343444755,1.211
0.0011420760792382335,1.212
0.0017011635299163093,1.213
0.0023190445347625425,1.214
0.0029300024619157514,1.215
0.003469723783486707,1.216
0.0038508874932074565,1.217
0.003963280997248195,1.218
0.003707638416284396,1.219
0.0030391726464078744,1.22
0.001989588565475762,1.221
0.0006564792892541469,1.222
-0.0008272177596823838,1.223
-0.0023290935374618692,1.224
-0.0037408704549388157,1.225
-0.004975654009599902,1.226
-0.005950742553694047,1.227
-0.0065820947184987095,1.228
-0.0067989020515539875,1.229
-0.006558487933343997,1.23
-0.005846546013974908,1.231
-0.004680554103482408,1.232
-0.003136695505127134,1.233
-0.0013835524611857768,1.234
0.0003275152470809153,1.235
0.0017410381307149717,1.236
0.0026990748261268337,1.237
0.003198403120210498,1.238
0.003378861478839157,1.239
0.003459354798676046,1.24
0.0036500452032470947,1.241
0.004056152625724124,1.242
0.0046069787539151225,1.243
0.005072837935463812,1.244
0.005178320790432769,1.245
0.004742202779267378,1.246
0.0037566822806652427,1.247
0.002363086038443345,1.248
0.0007662999839058164,1.249
-0.0008429687199332912,1.25
-0.0023344779509421195,1.251
-0.003643290783840244,1.252
-0.004727865795773106,1.253
-0.005519321001932516,1.254
-0.005915993828215693,1.255
-0.005824868032206905,1.256
-0.0052006063632547865,1.257
-0.004067601852891422,1.258
-0.002540248170681578,1.259
-0.0008122875406344812,1.26
0.0008977293836881222,1.261
0.0023992234681081853,1.262
0.003560680457083129,1.263
0.004324018052874276,1.264
0.004692981973927345,1.265
0.004710947461691939,1.266
0.004446358374932593,1.267
0.003967986070876169,1.268
0.003318584849787229,1.269
0.0025301486083821574,1.27
0.0016701838133249664,1.271
0.0008490190120143047,1.272
0.0001630780173157238,1.273
-0.00035936806907909964,1.274
-0.0007540400976597257,1.275
-0.001077457669485004,1.276
-0.0013599884110672873,1.277
-0.0015842976263579884,1.278
-0.0017008028638454582,1.279
-0.0016561617271386355,1.28
-0.001424347061511409,1.281
-0.0010436473439493605,1.282
-0.0006309874674723384,1.283
-0.00034261887664202714,1.284
-0.00029714183247793555,1.285
-0.0005154853172374469,1.286
-0.0009202722738537175,1.287
-0.0013844991113154158,1.288
-0.0017884881346550633,1.289
-0.002060443696165765,1.29
-0.002189549812756713,1.291
-0.0021974093777975363,1.292
-0.0020851352449598503,1.293
-0.001816080642827193,1.294
-0.0013599431491749731,1.295
-0.0007489414001552868,1.296
-8.90562911616719e-05,1.297
0.000478762173251064,1.298
0.000833575774450906,1.299
0.0009117307745972454,1.3
0.0007215785790885264,1.301
0.0003489045203260619,1.302
-6.217651056351959e-05,1.303
-0.0003699166603888611,1.304
-0.0004908761689243917,1.305
-0.00039952828715245916,1.306
-9.698647400740202e-05,1.307
0.0003986397243232367,1.308
0.0010412860173821985,1.309
0.0017619998818250544,1.31
0.0024982933435368925,1.311
0.0032111456312587296,1.312
0.00385520814801061,1.313
0.004329930218260318,1.314
0.004478706135796347,1.315
0.004157735908984714,1.316
0.003326997562600106,1.317
0.0020987037967375483,1.318
0.0007105308217677998,1.319
-0.0005647851659446046,1.32
-0.0015201318226548523,1.321
-0.002066297957164035,1.322
-0.0022253860466183973,1.323
-0.002093448276490207,1.324
-0.0017968309041680346,1.325
-0.0014549630228053766,1.326
-0.0011511090254645883,1.327
-0.0009118360888468719,1.328
-0.0007125372507997135,1.329
-0.0005212838947409233,1.33
-0.00035365184169623774,1.331
-0.0002815915080449221,1.332
-0.0003814805169768205,1.333
-0.000681111029440383,1.334
-0.0011505341514434547,1.335
-0.0017148909245659951,1.336
-0.002265893020196845,1.337
-0.0026808218381895684,1.338
-0.002854316756400809,1.339
-0.0027218905272625646,1.34
-0.0022595420899368273,1.341
-0.001484913089191034,1.342
-0.00048222556200669517,1.343
0.0005799075361877282,1.344
0.001480541670236213,1.345
0.0020263497199200548,1.346
0.002135802519397753,1.347
0.001876415184083253,1.348
0.0014280384827485267,1.349
0.000995740275437264,1.35
0.0007264757900653922,1.351
0.0006658416107995011,1.352
0.0007677834963523333,1.353
0.0009406312990491657,1.354
0.0010926658754643371,1.355
0.0011656968608805508,1.356
0.001154659282132874,1.357
0.0010979668033504455,1.358
0.0010453366695112216,1.359
0.0010289145524410889,1.36
0.0010468135381123856,1.361
0.001060356082445699,1.362
0.001008169823739626,1.363
0.000833165306728865,1.364
0.0005178034700430863,1.365
0.00010957966346946717,1.366
-0.00029543523130834165,1.367
-0.0006068260368542435,1.368
-0.0007885242045017222,1.369
-0.0008748916774011127,1.37
-0.00095308220758272,1.371
-0.0011143499507880127,1.372
-0.0013908456227005501,1.373
-0.0017167640247291685,1.374
-0.0019398123865953778,1.375
-0.00187686725236474,1.376
-0.0014001517994273584,1.377
-0.0005209971861116889,1.378
0.0005889546940288435,1.379
0.0016622119284230704,1.38
0.0024366631295948157,1.381
0.0027259224347919784,1.382
0.0024458266438087853,1.383
0.0016289587028358995,1.384
0.000433256493418773,1.385
-0.0008820493759612608,1.386
-0.0020323206825869,1.387
-0.002798819054882957,1.388
-0.003064314665606769,1.389
-0.0028002435548006624,1.39
-0.0020689035439488395,1.391
-0.0010351987088552579,1.392
6.654807413295971e-05,1.393
0.0010085113594812307,1.394
0.0016254331178834965,1.395
0.0018246992043533116,1.396
0.0015790029047624572,1.397
0.0009243553397316078,1.398
-2.7447168455074688e-05,1.399
-0.0010755285646848708,1.4
-0.0019541622515705315,1.401
-0.0024033541168378813,1.402
-0.0022522259044016678,1.403
-0.0014765430168827715,1.404
-0.0002078798083266628,1.405
0.0013063756906022254,1.406
0.002770385330846165,1.407
0.0039054394892297567,1.408
0.004499917210450356,1.409
0.0044423739040923985,1.41
0.003740828819007631,1.411
0.0025296643007649247,1.412
0.0010473000488242866,1.413
-0.00042287252623675916,1.414
-0.0016129053715650801,1.415
-0.0023132937332856008,1.416
-0.0024241780215964585,1.417
-0.002002247053201278,1.418
-0.0012579441863084786,1.419
-0.0004934249669677398,1.42
5.835764683686815e-06,1.421
8.134073676267946e-05,1.422
-0.00025883010331896334,1.423
-0.000886053068572671,1.424
-0.0016261473187210785,1.425
-0.0023094080959515572,1.426
-0.0027885723070765027,1.427
-0.0029493324751044413,1.428
-0.002726549982405333,1.429
-0.002113070112044459,1.43
-0.0011594297595914436,1.431
1.9396012190629378e-05,1.432
0.001243201603774396,1.433
0.0022981971144075595,1.434
0.002994805443830504,1.435
0.003226419642482631,1.436
0.0030011447931990193,1.437
0.0024331336373794024,1.438
0.0017069178506971753,1.439
0.0010287567580172395,1.44
0.0005767117508555655,1.441
0.00046067686232712695,1.442
0.0007006801155928179,1.443
0.0012361090612352406,1.444
0.0019519711013954457,1.445
0.002687574685910965,1.446
0.003234415777877494,1.447
0.0033666742067954935,1.448
0.0029196168453719104,1.449
0.0018723872393622404,1.45
0.00036461202000867186,1.451
-0.0013695417731940853,1.452
-0.003084480401314476,1.453
-0.004568095075555243,1.454
-0.00565533939597893,1.455
-0.0062355225134269705,1.456
-0.006270003949739187,1.457
-0.005810986127022956,1.458
-0.004987098212011041,1.459
-0.003948767731370629,1.46
-0.0028104624776783063,1.461
-0.0016351539403489251,1.462
-0.00047049351415915774,1.463
0.000609298968216214,1.464
0.001504514708521354,1.465
0.002132608933008182,1.466
0.0024740877968730327,1.467
0.0025843305647002663,1.468
0.002568523111772249,1.469
0.0025367029522321495,1.47
0.002552788916859024,1.471
0.0026065341224139307,1.472
0.0026337826699794754,1.473
0.0025643589323808523,1.474
0.0023557047183006626,1.475
0.0020060212772060955,1.476
0.0015647466768380915,1.477
0.0011348565623580701,1.478
0.0008483038885210362,1.479
0.0008101532046543943,1.48
0.0010346216755193656,1.481
0.001425031632741755,1.482
0.0018195977633748796,1.483
0.0020591898468874477,1.484
0.0020330507187685527,1.485
0.001699088575356642,1.486
0.001085393262310232,1.487
0.00028061434414551254,1.488
-0.0005803087173927388,1.489
-0.0013455056269627316,1.49
-0.0018919893480713016,1.491
-0.002163954193250129,1.492
-0.0021914281029146655,1.493
-0.0020884178411998302,1.494
-0.0020163106846084375,1.495
-0.0021199921779563222,1.496
-0.002476426981217035,1.497
-0.0030727744387441937,1.498
-0.003805880293204669,1.499
-0.004500082462280518,1.5
-0.004939874495047422,1.501
-0.004918493188336049,1.502
-0.004298651136455122,1.503
-0.00305713172200955,1.504
-0.001296005281821312,1.505
0.0007652217270130105,1.506
0.0028138871521950935,1.507
0.004503753834288205,1.508
0.005551920629703859,1.509
0.005842620211052614,1.51
0.005470449722091437,1.511
0.004674606604900549,1.512
0.003713390978058394,1.513
0.002760548518775154,1.514
0.0018638488539157827,1.515
0.0009793785716712387,1.516
4.700670684498689e-05,1.517
-0.0009477538370025635,1.518
-0.0019413996845014192,1.519
-0.0027991557731441527,1.52
-0.00336575444152703,1.521
-0.003525158384123451,1.522
-0.0032344620323980604,1.523
-0.002532581902897271,1.524
-0.001527661637560234,1.525
-0.00036294706424392167,1.526
0.0008179642506935421,1.527
0.0018842674578390972,1.528
0.002718360629008208,1.529
0.0032275782406210336,1.53
0.003366382091383082,1.531
0.003147532991432707,1.532
0.002632425425984389,1.533
0.0019061925968089392,1.534
0.0010635335369190636,1.535
0.00021689335218125235,1.536
-0.0005172139829129369,1.537
-0.0010692272327821049,1.538
-0.0014402790948143892,1.539
-0.0016658880742102535,1.54
-0.001767225728508234,1.541
-0.0017334708207026206,1.542
-0.0015338209872385448,1.543
-0.0011435751261934567,1.544
-0.0005803960694934689,1.545
6.395976677962028e-05,1.546
0.0006384229837346844,1.547
0.0010042301415653728,1.548
0.001106594533089444,1.549
0.000981387988518515,1.55
0.0006943708812148059,1.551
0.00027742324897314424,1.552
-0.00027689798523731124,1.553
-0.0009667154734569966,1.554
-0.001732565627860373,1.555
-0.002457349041533383,1.556
-0.003010834656193153,1.557
-0.0032947102330862462,1.558
-0.003263623200282775,1.559
-0.002933323715168789,1.56
-0.0023758434569411888,1.561
-0.001682747905999233,1.562
-0.0009142876179402482,1.563
-8.585117581677577e-05,1.564
0.0008000722169139646,1.565
0.0017190115936357429,1.566
0.002614283077421853,1.567
0.0034094885209945535,1.568
0.004036569108136822,1.569
0.004458646886969019,1.57
0.004663242430074105,1.571
0.0046356311429987,1.572
0.004342595196837261,1.573
0.0037450404166121656,1.574
0.002841665642724094,1.575
0.0017111444704909359,1.576
0.0004999710382678376,1.577
-0.0006429480639824005,1.578
-0.0016220372337994603,1.579
-0.002399697051743294,1.58
-0.0029687274593954015,1.581
-0.0033271155296796594,1.582
-0.0034707192850334475,1.583
-0.0034023177258365607,1.584
-0.003144888253752947,1.585
-0.002743175247478004,1.586
-0.00224945646689593,1.587
-0.001712328875038885,1.588
-0.0011767930431800498,1.589
-0.0006761231151601635,1.59
-0.00021521966555920356,1.591
0.00022556882201215885,1.592
0.0006616898872053729,1.593
0.0010798533640701468,1.594
0.001431224286305454,1.595
0.0016432346455408054,1.596
0.0016546963361705226,1.597
0.0014510946987847187,1.598
0.0010677840736373484,1.599
0.0005712052705251507,1.6
5.140047842764986e-05,1.601
-0.0003784541840359837,1.602
-0.0006091065011206747,1.603
-0.0005858211916862688,1.604
-0.00033872906708649463,1.605
3.551455802915396e-05,1.606
0.0004268117633301862,1.607
0.0007635495644656764,1.608
0.001029600423826267,1.609
0.001241496405116106,1.61
0.001421849598769665,1.611
0.001596795892138097,1.612
0.0017996506857615696,1.613
0.0020456367632747355,1.614
0.0022810030380581454,1.615
0.0023614783481732647,1.616
0.0020973344269093956,1.617
0.0013442076961248531,1.618
9.175593659751933e-05,1.619
-0.0014966336222786447,1.62
-0.003118985573780869,1.621
-0.004431133798319294,1.622
-0.00515666305065521,1.623
-0.00516690328619234,1.624
-0.004505693494763251,1.625
-0.003348826587666539,1.626
-0.0019339281806182958,1.627
-0.0005093085743814335,1.628
0.0007055634810757954,1.629
0.0015640727860145994,1.63
0.0020165831383645288,1.631
0.0021032745894358053,1.632
0.0019301906889233266,1.633
0.0016254141847896059,1.634
0.001281431105447415,1.635
0.0009300985191222892,1.636
0.000570376284227442,1.637
0.0002028312539059959,1.638
-0.0001651376854539047,1.639
-0.0005234944699507144,1.64
-0.0008549052176905205,1.641
-0.001130503586072135,1.642
-0.0013135170292285247,1.643
-0.001368901187666315,1.644
-0.0012669420609804363,1.645
-0.0009823218051500401,1.646
-0.0005097376059201437,1.647
0.00011865370142815889,1.648
0.000841139345056622,1.649
0.0015819130712750194,1.65
0.0022586034840763694,1.651
0.002797302581474553,1.652
0.0031564441935834444,1.653
0.003337952800176198,1.654
0.003372316265537408,1.655
0.0032890155239127406,1.656
0.003097098810675267,1.657
0.0027833371821174256,1.658
0.0023185915498917763,1.659
0.0016713679117437864,1.66
0.0008228229520674679,1.661
-0.00022264587696729167,1.662
-0.001414012666535838,1.663
-0.002624211811820399,1.664
-0.0036619596075806687,1.665
-0.0043329592608159365,1.666
-0.004506396213279776,1.667
-0.004157842437254068,1.668
-0.0033805531340833695,1.669
-0.002360171191063473,1.67
-0.0013233507600366697,1.671
-0.00047876992904595495,1.672
3.378634032714353e-05,1.673
0.00017631506807221133,1.674
1.9218087423853792e-05,1.675
-0.00029493461864610055,1.676
-0.0006204111016880757,1.677
-0.0008595141708116142,1.678
-0.000969763599151898,1.679
-0.0009455378047547971,1.68
-0.0007969306307093659,1.681
-0.0005385265384023447,1.682
-0.00019084314847736064,1.683
0.00021656259836759498,1.684
0.0006556034889839393,1.685
0.0011169879699949156,1.686
0.0016088541883711263,1.687
0.0021302422690677955,1.688
0.002639533384628062,1.689
0.003049060332702769,1.69
0.003260907166667603,1.691
0.003216641678274971,1.692
0.0029185540317944593,1.693
0.0024117750142991024,1.694
0.0017515278631963474,1.695
0.0009798412233916966,1.696
0.00012295801960618492,1.697
-0.0007825780583100849,1.698
-0.001651911400241643,1.699
-0.0023476261051515123,1.7
-0.0027265332240330167,1.701
-0.00270153935999356,1.702
-0.0022813806159949213,1.703
-0.0015781331941468642,1.704
-0.0007812635573803473,1.705
-0.0001069135972222745,1.706
0.00026292360715577236,1.707
0.00024010571272838982,1.708
-0.00013389082060451222,1.709
-0.0007005355409996995,1.71
-0.0012406604604946938,1.711
-0.0015453983805723036,1.712
-0.0014778383634207082,1.713
-0.0010131924252197394,1.714
-0.00024309453293653528,1.715
0.0006630401401724582,1.716
0.0015284947518039,1.717
0.002238854481584965,1.718
0.0027666575670078227,1.719
0.0031318685628016468,1.72
0.0033267708827374913,1.721
0.0032762496551062828,1.722
0.0028825183723070347,1.723
0.002106700531673031,1.724
0.0010021232840255734,1.725
-0.0003135093024376423,1.726
-0.0017018763696336192,1.727
-0.003025505214954783,1.728
-0.004138131409477853,1.729
-0.0048778675505467195,1.73
-0.0051091068698344575,1.731
-0.004792947234631779,1.732
-0.004013182188430646,1.733
-0.002929906539462988,1.734
-0.0017014969372364348,1.735
-0.00043776309082663373,1.736
0.0007889171400495247,1.737
0.001907433354612973,1.738
0.0028279572130024185,1.739
0.003455189784856115,1.74
0.0037284831943159655,1.741
0.003648974787074815,1.742
0.0032684606197850167,1.743
0.0026705829853984142,1.744
0.0019651384382455665,1.745
0.0012720405376285206,1.746
0.0006914548392560056,1.747
0.00028364192448618504,1.748
6.595295381124117e-05,1.749
2.6559072518992223e-05,1.75
0.00014565482628582288,1.751
0.00039966878992326194,1.752
0.0007397306843542454,1.753
0.0010694624790565683,1.754
0.0012559267683093605,1.755
0.0011704963024401582,1.756
0.000731393938517962,1.757
-6.579020188775064e-05,1.758
-0.0011393197108716083,1.759
-0.002336326850743435,1.76
-0.00346200609736477,1.761
-0.004320119237148748,1.762
-0.004753760128755675,1.763
-0.004668917219761925,1.764
-0.004043596254846189,1.765
-0.0029357160963315986,1.766
-0.0014872101855930482,1.767
9.40000247441036e-05,1.768
0.0015778498740282544,1.769
0.002756414413215477,1.77
0.0034719952305949553,1.771
0.003644802594112885,1.772
0.003303793377605871,1.773
0.002588230284969038,1.774
0.00170396436494236,1.775
0.0008587981610633604,1.776
0.00020420239252240331,1.777
-0.00019697194337908527,1.778
-0.00036546246839408957,1.779
-0.00037557341159971745,1.78
-0.0003238314552928968,1.781
-0.000308477379738188,1.782
-0.0004011366933184368,1.783
-0.0005990998111521963,1.784
-0.0008084396770860078,1.785
-0.0008948681120343669,1.786
-0.0007597643451197384,1.787
-0.00038495158554754624,1.788
0.00016962014578095403,1.789
0.000798673290837321,1.79
0.001388893239816011,1.791
0.0018390321360941592,1.792
0.002059070602787341,1.793
0.001973690428314108,1.794
0.00154689270612102,1.795
0.0008027554254416464,1.796
-0.0001791438693166238,1.797
-0.0012785250527106516,1.798
-0.002346164831393227,1.799
-0.003220021557233154,1.8
-0.0037496738066160233,1.801
-0.0038244196926835792,1.802
-0.0033951777437585926,1.803
-0.0024748633099936084,1.804
-0.0011311211981730063,1.805
0.0004999171231905023,1.806
0.0022086680192823665,1.807
0.003755544700410377,1.808
0.004925421882438554,1.809
0.005544374934215519,1.81
0.005481222414437074,1.811
0.0046780258959412775,1.812
0.0031979155609565867,1.813
0.0012386038144264109,1.814
-0.0009132424236437705,1.815
-0.0029570443806545533,1.816
-0.004636496907143405,1.817
-0.005765423156609814,1.818
-0.006234400695260422,1.819
-0.0060206228519742375,1.82
-0.005198307408286741,1.821
-0.0039113632883408505,1.822
-0.0023159145993814348,1.823
-0.000552891575089312,1.824
0.0012372286809334786,1.825
0.00290151289902499,1.826
0.004294494429931186,1.827
0.005311636359439393,1.828
0.005898575031761731,1.829
0.0060311261421343056,1.83
0.005702747743958324,1.831
0.004963935134376986,1.832
0.003970656674766529,1.833
0.002928411447843555,1.834
0.001949553397583583,1.835
0.000981137889017267,1.836
-0.00013469353469923258,1.837
-0.0015509128606343693,1.838
-0.0033286266654869697,1.839
-0.005380045264222073,1.84
-0.007449132412993327,1.841
-0.009154998824106393,1.842
-0.010090875083647024,1.843
-0.009929758365869623,1.844
-0.008505132759817466,1.845
-0.005875159134409901,1.846
-0.002349148525456885,1.847
0.0015722452024020948,1.848
0.005317693160127378,1.849
0.008356911810902664,1.85
0.010289902012721189,1.851
0.010921560675001168,1.852
0.010295063421839369,1.853
0.008664696385193375,1.854
0.006422552990267154,1.855
0.0039940430092947855,1.856
0.0017216713189697936,1.857
-0.00020643108939823003,1.858
-0.0017377242490554093,1.859
-0.002890016537042609,1.86
-0.0037159005032347116,1.861
-0.0042942750686417175,1.862
-0.004706731965287065,1.863
-0.005002847406767532,1.864
-0.0051763386817661895,1.865
-0.005154682802076941,1.866
-0.0048128825937199,1.867
-0.004028362188104586,1.868
-0.0027618237336330988,1.869
-0.0011149596580222632,1.87
0.0006848456643723402,1.871
0.0023680968251427294,1.872
0.003705006592143519,1.873
0.004536510824252778,1.874
0.004774629204902862,1.875
0.004409366024157536,1.876
0.0035215882266381206,1.877
0.00227281613300944,1.878
0.0008676856621222023,1.879
-0.000485933936814649,1.88
-0.00161001728436709,1.881
-0.0023900909781955893,1.882
-0.002798866542081647,1.883
-0.0028912882219361623,1.884
-0.002775715921149708,1.885
-0.002573176079566106,1.886
-0.0023671736424883973,1.887
-0.002161484831306358,1.888
-0.0018793001633143397,1.889
-0.0014103174100608962,1.89
-0.0006749370009784328,1.891
0.0003308442991333619,1.892
0.0015295765716937587,1.893
0.0027891252291878596,1.894
0.003955346061117556,1.895
0.004871438730449961,1.896
0.00538943329403702,1.897
0.005389397762166039,1.898
0.004807774932081543,1.899
0.0036644660744740536,1.9
0.0020850120515282108,1.901
0.0003050625831805744,1.902
-0.0013684691876695147,1.903
-0.0026409560240107065,1.904
-0.003328884257755673,1.905
-0.0034234605734565567,1.906
-0.0030782160858389427,1.907
-0.002533140426920003,1.908
-0.002020294666370399,1.909
-0.001688253078482711,1.91
-0.0015640317584813283,1.911
-0.001560233279015727,1.912
-0.0015295546100740002,1.913
-0.001339368647464794,1.914
-0.0009205189013110181,1.915
-0.0002772264030157846,1.916
0.0005214713429169203,1.917
0.0013622490048541467,1.918
0.0021367590569534864,1.919
0.0027909139335843395,1.92
0.003307430005029952,1.921
0.0036452640350184634,1.922
0.0037278246531649603,1.923
0.003481260863317926,1.924
0.0028449873522661995,1.925
0.0017454632996934153,1.926
0.00011115091151113119,1.927
-0.002036512623714466,1.928
-0.004494015581491992,1.929
-0.006886626767225524,1.93
-0.008781829722527727,1.931
-0.009822878831008689,1.932
-0.009803892353939895,1.933
-0.008678529173750784,1.934
-0.006543357925449797,1.935
-0.0036221070207782266,1.936
-0.00025030378432768354,1.937
0.003159492486797047,1.938
0.006189143350489451,1.939
0.00850734098481593,1.94
0.009937015234221391,1.941
0.010460253446724799,1.942
0.01017371558394235,1.943
0.009230211483721776,1.944
0.0077916034891762865,1.945
0.006014416282432511,1.946
0.0040643849751473915,1.947
0.00212725243573723,1.948
0.0003898955605098997,1.949
-0.0010079388672984745,1.95
-0.0020200461443493443,1.951
-0.0026894769796096504,1.952
-0.0030909930857324136,1.953
-0.003287772421612634,1.954
-0.003340307402428534,1.955
-0.003319868092254291,1.956
-0.003290115236618054,1.957
-0.0032898331851114976,1.958
-0.0033335308690936034,1.959
-0.0034025267058033297,1.96
-0.0034357574589198333,1.961
-0.0033512528714634985,1.962
-0.003086334653483288,1.963
-0.0026310874012055014,1.964
-0.0020406386112539294,1.965
-0.001412483615803883,1.966
-0.0008395804995684228,1.967
-0.0003731747970714207,1.968
-1.7440454983571864e-05,1.969
0.00024533127857991066,1.97
0.00042515236334737827,1.971
0.0005150033412441984,1.972
0.0005001897517862202,1.973
0.00038391565123072253,1.974
0.00021905881934918518,1.975
0.00011293758799961523,1.976
0.0001926975164316276,1.977
0.0005586024546593339,1.978
0.0012519878894621435,1.979
0.0022301399352145984,1.98
0.0033392410870671753,1.981
0.004325640897994884,1.982
0.004918131035723574,1.983
0.004934955828388408,1.984
0.004346111526159693,1.985
0.0032694232477302235,1.986
0.0019115834399459158,1.987
0.0004827229630424601,1.988
-0.0008583339875999289,1.989
-0.001992497596094388,1.99
-0.0028032921017012275,1.991
-0.0031772999673087632,1.992
-0.0030510389231817713,1.993
-0.002465752044034963,1.994
-0.0015894434271208203,1.995
-0.0006872058505509463,1.996
-4.0318241785103944e-05,1.997
0.00016351194635858858,1.998
-9.069061996135908e-05,1.999
-0.0006519055826055109,2.0
-0.0012859845582402323,2.001
-0.001781741189899033,2.002
-0.0020239165219623576,2.003
-0.0019952832663790343,2.004
-0.001729578232112904,2.005
-0.0012767913752707446,2.006
-0.000700682610964978,2.007
-7.807602997992363e-05,2.008
0.0005253326567338863,2.009
0.001092612745047913,2.01
0.0016665299582113424,2.011
0.002306856274239985,2.012
0.0030172426023413836,2.013
0.003696332414959171,2.014
0.004150994778183896,2.015
0.004162669305746651,2.016
0.003573055513870588,2.017
0.0023574601306253218,2.018
0.0006484548007962659,2.019
-0.0013050081453359604,2.02
-0.003203313240824437,2.021
-0.0047534504709240135,2.022
-0.005720012077420043,2.023
-0.005957658480926339,2.024
-0.005414081495493833,2.025
-0.004125284813647668,2.026
-0.0022279284012954714,2.027
2.114828411255211e-05,2.028
0.002263860911812892,2.029
0.004121156740636934,2.03
0.005297109457029691,2.031
0.005654039893424335,2.032
0.0052295516566739815,2.033
0.004196788267750279,2.034
0.002803681831474294,2.035
0.0013220836807742316,2.036
-1.8883408933528453e-08,2.037
-0.0009874793345302092,2.038
-0.0015674220746403312,2.039
-0.001769954269749104,2.04
-0.001710730823219194,2.041
-0.001555833977941071,2.042
-0.0014683190734936082,2.043
-0.001551118575861754,2.044
-0.0018051608748318767,2.045
-0.0021309683234909654,2.046
-0.0023858851265070573,2.047
-0.0024597479052102956,2.048
-0.0023213392536787767,2.049
-0.0020158340521255875,2.05
-0.0016202691452320466,2.051
-0.0011842269010991517,2.052
-0.0006908642321740269,2.053
-6.795939925505486e-05,2.054
0.0007488980426653771,2.055
0.001741487614388937,2.056
0.002775930101391271,2.057
0.0036367078357841267,2.058
0.004105231482382088,2.059
0.004031548953325226,2.06
0.0033744489969605176,2.061
0.002217421349956103,2.062
0.0007608673958591765,2.063
-0.0007177969578241606,2.064
-0.0019310763358481736,2.065
-0.002651884692291976,2.066
-0.002769441664276587,2.067
-0.0023227147739943482,2.068
-0.0014911749391161855,2.069
-0.0005349101966970159,2.07
0.00028314960372099996,2.071
0.0007578642145458586,2.072
0.0007860279117062715,2.073
0.0003996055748151625,2.074
-0.00024359283203525175,2.075
-0.0009281211810754672,2.076
-0.0014525678759699104,2.077
-0.0016556467433765638,2.078
-0.0014225781495127686,2.079
-0.0007122499059561458,2.08
0.0004029171428451369,2.081
0.0017271223948999782,2.082
0.002985558849443792,2.083
0.003903128731648854,2.084
0.004282655820404486,2.085
0.004053952153723187,2.086
0.003276662936963174,2.087
0.0021078530351197667,2.088
0.0007536848989099882,2.089
-0.0005919618551591824,2.09
-0.001794649031315495,2.091
-0.002769381770387799,2.092
-0.003440887326060547,2.093
-0.0037313168224569464,2.094
-0.0035776459385205074,2.095
-0.00296403963881394,2.096
-0.0019560073312878544,2.097
-0.0007151149925518563,2.098
0.0005119946570445071,2.099
0.0014434049416180957,2.1
0.001860248801825053,2.101
0.001695386129972625,2.102
0.001043478107125055,2.103
0.000108303621493295,2.104
-0.0008653262661169163,2.105
-0.0016633885162470091,2.106
-0.0021611773588286047,2.107
-0.0023252190510507664,2.108
-0.0021633718912210166,2.109
-0.0016942640170921665,2.11
-0.0009654404829691609,2.111
-7.256686364519606e-05,2.112
0.00085350039509827,2.113
0.0016736102349956157,2.114
0.0022682271378083665,2.115
0.0025703160510493414,2.116
0.0025891961880674655,2.117
0.00241443795170207,2.118
0.0021902156948352945,2.119
0.00205052355674193,2.12
0.002061075846614463,2.121
0.0022104024932420854,2.122
0.0024197173241884778,2.123
0.002548534556662357,2.124
0.002420896140649029,2.125
0.0018867550813083326,2.126
0.0008902372226479922,2.127
-0.0004998236621514516,2.128
-0.0021053653707935912,2.129
-0.003676566946894228,2.13
-0.004947382599490215,2.131
-0.0057066611032262895,2.132
-0.005849851428254741,2.133
-0.0053896653676958305,2.134
-0.004440111556644229,2.135
-0.003187448150866894,2.136
-0.0018497208546526423,2.137
-0.0006307512747301516,2.138
0.00032403382169017634,2.139
0.0009638028724394755,2.14
0.0013412550019092073,2.141
0.0015788133337396985,2.142
0.0018097274780780976,2.143
0.0021245695479133664,2.144
0.002539657805419818,2.145
0.002999959993156799,2.146
0.0034217986611053946,2.147
0.0037431943243595896,2.148
0.003932549385499134,2.149
0.003958921732962976,2.15
0.0037719283349959875,2.151
0.00331251264159449,2.152
0.0025419661355540186,2.153
0.0014690859181272914,2.154
0.00016449754241079994,2.155
-0.001233936114725343,2.156
-0.0025284337027075784,2.157
-0.003491930950210208,2.158
-0.0039305747343798695,2.159
-0.0037690853070904825,2.16
-0.0031022154550353434,2.161
-0.0021627049959181727,2.162
-0.0012324820610473677,2.163
-0.0005615270891800158,2.164
-0.0003226803790395464,2.165
-0.0005827514516118617,2.166
-0.0012745641839359296,2.167
-0.002187274449380118,2.168
-0.0030009030221172972,2.169
-0.003375775930567854,2.17
-0.0030736912848415947,2.171
-0.002054986452219448,2.172
-0.0004949636309830053,2.173
0.0012949050191965175,2.174
0.0029848360048117034,2.175
0.004302748582777048,2.176
0.005050124309966894,2.177
0.005107656691766152,2.178
0.004467579330112507,2.179
0.0032657155069317862,2.18
0.0017679225223954638,2.181
0.0002992083129683544,2.182
-0.0008607214890608212,2.183
-0.0015638568566431438,2.184
-0.0018107666943242777,2.185
-0.0016935868359216361,2.186
-0.0013265577227302733,2.187
-0.0008202925085686078,2.188
-0.0002757420667898992,2.189
0.00023188108176621717,2.19
0.0006549753749147272,2.191
0.0009539162154428382,2.192
0.0010879262434053396,2.193
0.0010306034027826375,2.194
0.0007880668184459148,2.195
0.0004030535608114317,2.196
-5.1760244859247034e-05,2.197
-0.0004924591053627808,2.198
-0.0008531008564465307,2.199
-0.0011119520932021895,2.2
-0.0012944419580470583,2.201
-0.0014388838794104689,2.202
-0.0015481021643408263,2.203
-0.0015777458882174284,2.204
-0.001481945719700674,2.205
-0.0012697061281161045,2.206
-0.001006381925300286,2.207
-0.000759225171620014,2.208
-0.0005468367867384386,2.209
-0.00033537954566854476,2.21
-6.814776239383514e-05,2.211
0.00030220456021452,2.212
0.0007880210692088254,2.213
0.0013481792969009432,2.214
0.0018904732797606566,2.215
0.0023097088713172334,2.216
0.002537540340016028,2.217
0.00255647109462761,2.218
0.0023797882196407464,2.219
0.002040132549550011,2.22
0.0015946941980512983,2.221
0.0011221376696809915,2.222
0.0007062629663033988,2.223
0.00041426772579098825,2.224
0.00027154352521006496,2.225
0.0002492643458598781,2.226
0.0002833463949792153,2.227
0.0003134423910571074,2.228
0.00031161268697061197,2.229
0.0002791018338322302,2.23
0.00020684164459093378,2.231
2.4065163560708005e-05,2.232
-0.0004177468688498436,2.233
-0.0013081855837717808,2.234
-0.00280924216403475,2.235
-0.004967460288954043,2.236
-0.007614181108106769,2.237
-0.010301655664731844,2.238
-0.012357603728206278,2.239
-0.013086527242171013,2.24
-0.012030818991632258,2.241
-0.009150585654322658,2.242
-0.004835647869574881,2.243
0.00023370158940581049,2.244
0.005293704469324236,2.245
0.009688319893647669,2.246
0.012987692199804097,2.247
0.015021568346216593,2.248
0.015853883123378775,2.249
0.015697874984556933,2.25
0.014767064514403629,2.251
0.01314957982386789,2.252
0.01082303829963219,2.253
0.007788135790581992,2.254
0.004178771142520916,2.255
0.0002715600627205963,2.256
-0.0035658584571841034,2.257
-0.006934281160947181,2.258
-0.009462533284490433,2.259
-0.010875808627609389,2.26
-0.011057633645607284,2.261
-0.010074825325842019,2.262
-0.008152290348813448,2.263
-0.005616592862949931,2.264
-0.0028412315586085,2.265
-0.0002012996866014156,2.266
0.001977236053139132,2.267
0.0034642495614094766,2.268
0.0041426106692212805,2.269
0.004001089043242508,2.27
0.0031269042245562887,2.271
0.0017011008633116755,2.272
-2.0990060233453913e-05,2.273
-0.0017545633616736875,2.274
-0.003231681483642698,2.275
-0.004225877237524989,2.276
-0.004579283348704711,2.277
-0.004249444882097368,2.278
-0.003340632319314742,2.279
-0.0020843866821951555,2.28
-0.0007767036123931192,2.281
0.0002957848534594868,2.282
0.000923476884291652,2.283
0.0010300726079719707,2.284
0.0006981710301812146,2.285
0.0001440426327082207,2.286
-0.00036178289436573723,2.287
-0.0005995459971565552,2.288
-0.00047510243468339044,2.289
-3.518555066532208e-05,2.29
0.0005674161075508824,2.291
0.0011418683762261712,2.292
0.0015337436194248586,2.293
0.0016774066077731675,2.294
0.0016134948439285829,2.295
0.0014635610611468096,2.296
0.0013646162393933974,2.297
0.0013950542871617095,2.298
0.0015410095798792402,2.299
0.0017221754652002024,2.3
0.0018421040632738397,2.301
0.0018319692238065169,2.302
0.001686969524840073,2.303
0.0014744764057968366,2.304
0.0012925762225875163,2.305
0.0012072486825378747,2.306
0.0012130562281089472,2.307
0.001232548273035778,2.308
0.0011486492919649267,2.309
0.0008650948656784484,2.31
0.00036770000440433106,2.311
-0.0002592948999118629,2.312
-0.0008691968975095853,2.313
-0.001309300087083501,2.314
-0.001469878212250526,2.315
-0.001319217582133504,2.316
-0.0009306003968481984,2.317
-0.0004895359959412551,2.318
-0.0002372103792476632,2.319
-0.00034419634760225466,2.32
-0.0008078787835779676,2.321
-0.001464482868558812,2.322
-0.002091544793815305,2.323
-0.0025169777560232576,2.324
-0.002678605389324322,2.325
-0.0026115683930905222,2.326
-0.0023789895804661346,2.327
-0.0020064755730893695,2.328
-0.0014716710435779125,2.329
-0.0007369828323055174,2.33
0.00021453009984652977,2.331
0.0013496804814557499,2.332
0.002567173883249622,2.333
0.003709378869196375,2.334
0.0045913741571212575,2.335
0.005031091951382685,2.336
0.0048901687493395065,2.337
0.004118969919919872,2.338
0.0027847099554614927,2.339
0.001064957116886524,2.34
-0.0007995747034429102,2.341
-0.002558038235631613,2.342
-0.0039782894239096984,2.343
-0.004880306382262318,2.344
-0.00518068464445499,2.345
-0.004902982334264119,2.346
-0.00415730687559194,2.347
-0.0031267815219576064,2.348
-0.002038973783771418,2.349
-0.0010889192147563286,2.35
-0.0003553753388506023,2.351
0.00022201943851301223,2.352
0.0007917829610651301,2.353
0.0014971790762023877,2.354
0.002384707590283233,2.355
0.003371088212492632,2.356
0.004299337333815166,2.357
0.005030861595980719,2.358
0.005489805485796885,2.359
0.005650973859922127,2.36
0.005511291091778925,2.361
0.005058103138805461,2.362
0.004238113569246494,2.363
0.002942977586158891,2.364
0.0010271589374526607,2.365
-0.0016259544973354658,2.366
-0.0049904776058707166,2.367
-0.008789902463335702,2.368
-0.012473593564152492,2.369
-0.015313158882596234,2.37
-0.016590753111437578,2.371
-0.015823502809621547,2.372
-0.012955352641175791,2.373
-0.008403308534617704,2.374
-0.0028887173218761506,2.375
0.0028277744188333984,2.376
0.00813223272560911,2.377
0.012620947998779771,2.378
0.016079202747432346,2.379
0.018413733293066756,2.38
0.019575654214286628,2.381
0.019509375287490274,2.382
0.018150931702924266,2.383
0.015488465166503432,2.384
0.011663753224831487,2.385
0.007032995009219811,2.386
0.002125062804642422,2.387
-0.002480767058986574,2.388
-0.006305808598678059,2.389
-0.009098661964589328,2.39
-0.010881438080403389,2.391
-0.0118969050039986,2.392
-0.012489174451610147,2.393
-0.012965774521635984,2.394
-0.013474392350755175,2.395
-0.013930204130271455,2.396
-0.014063199921455364,2.397
-0.013590362054621588,2.398
-0.01237557080650443,2.399
-0.010468305816931159,2.4
-0.008038346558707016,2.401
-0.005255357450948528,2.402
-0.002206182863645066,2.403
0.0010678774785351662,2.404
0.004492379731449322,2.405
0.007938872141757057,2.406
0.01122790944716899,2.407
0.01411775252068908,2.408
0.0162969595244275,2.409
0.01740131317574174,2.41
0.017093960933548626,2.411
0.01522620836336883,2.412
0.011980769365660582,2.413
0.007867325222413506,2.414
0.0035712480181893692,2.415
-0.00024195620035859865,2.416
-0.0030740191947741967,2.417
-0.004671453501425984,2.418
-0.005069814651880254,2.419
-0.004581776523053888,2.42
-0.0036764972326468978,2.421
-0.0028157133921678334,2.422
-0.002340770334641608,2.423
-0.0024097741516731623,2.424
-0.0029777881993616273,2.425
-0.0038517110761865916,2.426
-0.004799247233516169,2.427
-0.005631937179161738,2.428
-0.006219047287202412,2.429
-0.006462774312020813,2.43
-0.00628224762719349,2.431
-0.0056121462435866866,2.432
-0.004403216029182897,2.433
-0.002645608302425812,2.434
-0.0004356097882213326,2.435
0.0019606481909163554,2.436
0.004133910175820573,2.437
0.00567573186145507,2.438
0.006352700420074579,2.439
0.0061905471725324,2.44
0.00542184062297173,2.441
0.004335319438617774,2.442
0.0031278296720460915,2.443
0.0018652565301745846,2.444
0.0005598022024363331,2.445
-0.0007248417473629911,2.446
-0.001830145461667327,2.447
-0.002563492171925221,2.448
-0.002823880703513984,2.449
-0.0026766674572439382,2.45
-0.002306434951818489,2.451
-0.0018961703041529049,2.452
-0.0015297295176924693,2.453
-0.0011881264599311935,2.454
-0.0008361481686870824,2.455
-0.0005145155512357451,2.456
-0.00034769634340079737,2.457
-0.0004529703197347312,2.458
-0.0008288470421445053,2.459
-0.0013202282652530226,2.46
-0.0016776808239249456,2.461
-0.0016589968955873816,2.462
-0.0011174765398930568,2.463
-3.9032279288263674e-05,2.464
0.001476439015795237,2.465
0.0032566562367600184,2.466
0.005089271368536486,2.467
0.006741382950106237,2.468
0.007972537246988081,2.469
0.008551790251987596,2.47
0.008307253037018694,2.471
0.0072066885301581025,2.472
0.005404737412926766,2.473
0.003203903292953662,2.474
0.0009521929583998804,2.475
-0.001058514630900842,2.476
-0.0026492240797189328,2.477
-0.0037634722585902433,2.478
-0.00444717215934245,2.479
-0.004808797751025367,2.48
-0.004984913609348356,2.481
-0.0051422318145072496,2.482
-0.005478030031758533,2.483
-0.006156869564776167,2.484
-0.007215502541665905,2.485
-0.008525585585604014,2.486
-0.009848419565609423,2.487
-0.010910282520383063,2.488
-0.011415898598728966,2.489
-0.011053321126421371,2.49
-0.009577917581548185,2.491
-0.006918099289624656,2.492
-0.0031996350519738,2.493
0.0013021866753726527,2.494
0.006208101230391838,2.495
0.01103722215464455,2.496
0.01519064450948602,2.497
0.018011055904722708,2.498
0.018982180415133436,2.499
0.017967118694326538,2.5
0.015296591764853972,2.501
0.011625182921136451,2.502
0.007661799478427949,2.503
0.003956459860317041,2.504
0.000825301324916276,2.505
-0.0016197093804780282,2.506
-0.0034014500350676544,2.507
-0.004606049490829972,2.508
-0.005326617798135959,2.509
-0.005658304996072931,2.51
-0.005726636008897598,2.511
-0.00566255226156109,2.512
-0.005516950350668095,2.513
-0.0052110668700677334,2.514
-0.004577171133344263,2.515
-0.003460747553894768,2.516
-0.0018349193803259786,2.517
0.00014440342673765225,2.518
0.0021894986465646115,2.519
0.00399155809437149,2.52
0.005310679861471008,2.521
0.005985831215206552,2.522
0.005863040663914855,2.523
0.004740349595132547,2.524
0.0024197440647033236,2.525
-0.0011804029043356032,2.526
-0.005924065695753547,2.527
-0.011358155257676732,2.528
-0.01664876554587688,2.529
-0.0206793234286119,2.53
-0.022369695592780924,2.531
-0.02107733792035515,2.532
-0.016850033782271862,2.533
-0.010424291397101878,2.534
-0.002986056807978329,2.535
0.004238031453334798,2.536
0.010394708308497392,2.537
0.015210053345428487,2.538
0.018864505758227693,2.539
0.021618415234095995,2.54
0.02345110971361003,2.541
0.023969724816931513,2.542
0.022672760671591134,2.543
0.019383233364278666,2.544
0.014486611073149126,2.545
0.008792823287355919,2.546
0.003174891537730649,2.547
-0.001756733534160096,2.548
-0.005784815925319411,2.549
-0.009018230110597545,2.55
-0.011707326694048443,2.551
-0.01402552206632348,2.552
-0.015911446847345308,2.553
-0.01704148241426939,2.554
-0.016962713943202392,2.555
-0.015361577685025773,2.556
-0.012297188050830177,2.557
-0.008203739486927718,2.558
-0.0036931255333356237,2.559
0.0006598332831331002,2.56
0.0044491529781990604,2.561
0.007481668761515347,2.562
0.009728317265256319,2.563
0.011183008178815297,2.564
0.011717810992016695,2.565
0.011088146493366743,2.566
0.009130779111815302,2.567
0.005993496591425954,2.568
0.0021787308225558653,2.569
-0.0016439725109110665,2.57
-0.0048948506524510455,2.571
-0.007229155049208578,2.572
-0.0085264202320065,2.573
-0.008811552915837127,2.574
-0.008214232792348267,2.575
-0.0069707607735084234,2.576
-0.005393082280510569,2.577
-0.0037798688535838503,2.578
-0.0023226773508334855,2.579
-0.0010497628569521183,2.58
0.00018306965500805559,2.581
0.001629214678265892,2.582
0.0035197570881608247,2.583
0.005939896317156999,2.584
0.008760183458388039,2.585
0.01160150993434481,2.586
0.01386156845587387,2.587
0.01487987192948784,2.588
0.014192616736878728,2.589
0.011687777133056023,2.59
0.007561414392515333,2.591
0.0021821884280186755,2.592
-0.003982683093066737,2.593
-0.010345116000807161,2.594
-0.016164844766617788,2.595
-0.020630801424518987,2.596
-0.023060083293812345,2.597
-0.023069376984345056,2.598
-0.020643384380615123,2.599
-0.01614421629612546,2.6
-0.010225796915136663,2.601
-0.0036192439405956576,2.602
0.003077467516605904,2.603
0.009468387103358157,2.604
0.015287371832409514,2.605
0.0202456640403028,2.606
0.023904316921992935,2.607
0.025732856276554084,2.608
0.0253746125592788,2.609
0.02291335629274078,2.61
0.01894392916602368,2.611
0.01437092680805633,2.612
0.00997809759752887,2.613
0.006007023917674706,2.614
0.0020612101710707994,2.615
-0.0025955929042711565,2.616
-0.008602097337151011,2.617
-0.016176578291648668,2.618
-0.024942570647123023,2.619
-0.03386720247332822,2.62
-0.04132900730512272,2.621
-0.045385159799491606,2.622
-0.04434745499843607,2.623
-0.037584209115539786,2.624
-0.02603159705215624,2.625
-0.011876016431351092,2.626
0.002413473534885721,2.627
0.014953293723103986,2.628
0.02477373532496538,2.629
0.03170201054068314,2.63
0.036004353993192684,2.631
0.03797208400300011,2.632
0.037677081387022054,2.633
0.03501845611826019,2.634
0.02997374748598067,2.635
0.02287182189017144,2.636
0.014508877010216428,2.637
0.005986418601046554,2.638
-0.0016448716412726318,2.639
-0.007683566632303062,2.64
-0.011865812611727018,2.641
-0.014271988723754578,2.642
-0.015171939749690059,2.643
-0.014918815386426351,2.644
-0.013897625842210949,2.645
-0.012472974743207101,2.646
-0.010925549665384037,2.647
-0.009407937090373051,2.648
-0.007923921831548414,2.649
-0.006328923993285949,2.65
-0.004414692270673496,2.651
-0.002108064413728773,2.652
0.00037551643635681245,2.653
0.00259535838676254,2.654
0.004095139862308698,2.655
0.004598074322881453,2.656
0.004109017971181977,2.657
0.002864971233985138,2.658
0.0011782861258315858,2.659
-0.0006661909485882983,2.66
-0.0024230012851971005,2.661
-0.0038961467563628847,2.662
-0.004952408258321398,2.663
-0.005492017795298288,2.664
-0.005427430090401695,2.665
-0.0047347830773386,2.666
-0.0035177839913666494,2.667
-0.001996521723554017,2.668
-0.00043363827084954784,2.669
0.0009474643740083734,2.67
0.0020342749141881514,2.671
0.0028843388920511597,2.672
0.00373174872864934,2.673
0.004901060741676643,2.674
0.0066537302015816984,2.675
0.009018318074086618,2.676
0.01166408501993655,2.677
0.013893713366334699,2.678
0.014817722018082567,2.679
0.013684458823801381,2.68
0.01014241925951028,2.681
0.004244363186725507,2.682
-0.0036370342830483993,2.683
-0.012733095190209166,2.684
-0.02170905556940516,2.685
-0.02868949269554484,2.686
-0.03170914154521139,2.687
-0.029488635728352256,2.688
-0.022057000219204412,2.689
-0.010778400338721024,2.69
0.002193113461214756,2.691
0.014646410030707508,2.692
0.024855405325568698,2.693
0.031739783612278714,2.694
0.034721637470566995,2.695
0.03357986262253225,2.696
0.02852550334134401,2.697
0.02038222858405852,2.698
0.01054637326139041,2.699
0.0005966941880627848,2.7
-0.008198068560186674,2.701
-0.015137873143577157,2.702
-0.020023406493273485,2.703
-0.022915444773417587,2.704
-0.023943614356546263,2.705
-0.023269819537855285,2.706
-0.021142476545589928,2.707
-0.017923086966914942,2.708
-0.014030187867170252,2.709
-0.00983827660868342,2.71
-0.00561473773420267,2.711
-0.0015219757757146016,2.712
0.00238778603460398,2.713
0.0061983228910768694,2.714
0.010061557355443632,2.715
0.014020341616355085,2.716
0.017839041810251408,2.717
0.02092134078124009,2.718
0.022399683255962286,2.719
0.02149611219896094,2.72
0.018009842246330725,2.721
0.012528908293425713,2.722
0.006179973590494017,2.723
0.00014633406050774557,2.724
-0.004737845883264832,2.725
-0.008151734314023208,2.726
-0.010197697273473057,2.727
-0.01118003198795864,2.728
-0.011400279221331121,2.729
-0.011056691202488462,2.73
-0.010261682584432512,2.731
-0.00911675385127415,2.732
-0.007764898198130913,2.733
-0.00638714478849864,2.734
-0.005167648536263742,2.735
-0.00425874843718441,2.736
-0.003733707492818353,2.737
-0.00352295757087513,2.738
-0.003395999351807278,2.739
-0.0030161553676086588,2.74
-0.0020056728237484865,2.741
-1.5333521626176766e-05,2.742
0.0031011269300625617,2.743
0.0070309147005963146,2.744
0.010966796360873136,2.745
0.013988283926046667,2.746
0.015536435415234102,2.747
0.015500241623606019,2.748
0.013865999113023804,2.749
0.010364867508872628,2.75
0.004612416842643241,2.751
-0.0032837688382958714,2.752
-0.01228134564156818,2.753
-0.020603490681754558,2.754
-0.02639797045883719,2.755
-0.028396615877985237,2.756
-0.026187446218581406,2.757
-0.02005423529475528,2.758
-0.01078053953131493,2.759
0.0003877107878714626,2.76
0.011855895717337743,2.761
0.021952090013134085,2.762
0.02921317199746746,2.763
0.0326584782217031,2.764
0.03201633507676606,2.765
0.027760099269947217,2.766
0.020936001836105594,2.767
0.012878002874773701,2.768
0.004887785521384772,2.769
-0.0020316519889208825,2.77
-0.007286824340503182,2.771
-0.01063005048558805,2.772
-0.01203606638998084,2.773
-0.011628066979483069,2.774
-0.009686482229196124,2.775
-0.006735295167874188,2.776
-0.003600957846682953,2.777
-0.001287022388486862,2.778
-0.0006866088525882193,2.779
-0.0023524592949482966,2.78
-0.0064261035840731395,2.781
-0.012591480309929445,2.782
-0.01996943940467536,2.783
-0.027105405060448784,2.784
-0.03221670675727201,2.785
-0.033624367744874574,2.786
-0.03018145550230988,2.787
-0.021602213722391805,2.788
-0.008642654466884643,2.789
0.006939255493714174,2.79
0.022698327162646848,2.791
0.036041353282289884,2.792
0.04483805704022499,2.793
0.04791269902353246,2.794
0.0452357976552968,2.795
0.03779781170191563,2.796
0.0272861022713993,2.797
0.0156398017639317,2.798
0.00458107359294707,2.799
-0.004723277022944938,2.8
-0.01179929417279875,2.801
-0.01680305616345917,2.802
-0.02027698599435995,2.803
-0.022800848187722433,2.804
-0.024684195156393723,2.805
-0.025860642195522754,2.806
-0.02602577827477897,2.807
-0.024854409854865703,2.808
-0.02209635925074829,2.809
-0.017563592534190924,2.81
-0.011171254995639215,2.811
-0.0030930412820466846,2.812
0.006089910932120468,2.813
0.015403342951646127,2.814
0.023657278939149047,2.815
0.02965084213524077,2.816
0.032336072533325544,2.817
0.031026525193932408,2.818
0.02573926097694992,2.819
0.017467163992054884,2.82
0.007968659931985351,2.821
-0.0009144906323498884,2.822
-0.007862192205997333,2.823
-0.012256192991561174,2.824
-0.014072947469326467,2.825
-0.013694315493866368,2.826
-0.011743028454449363,2.827
-0.008998656075227986,2.828
-0.006337270914138013,2.829
-0.0045670819518068605,2.83
-0.0041281961019774506,2.831
-0.0048241311782879,2.832
-0.005826282762969958,2.833
-0.006018852861734489,2.834
-0.004532950637528507,2.835
-0.001189193345856599,2.836
0.0034105314583979746,2.837
0.008118283596485584,2.838
0.011610304832007402,2.839
0.012843387411894263,2.84
0.011467793845965631,2.841
0.00789187563967914,2.842
0.0029751440731492274,2.843
-0.002357184521639726,2.844
-0.007384911726108043,2.845
-0.011705927288220591,2.846
-0.01516405279398075,2.847
-0.017637585767205834,2.848
-0.018823616375097853,2.849
-0.01818513380170283,2.85
-0.015176980254336194,2.851
-0.009634650697462156,2.852
-0.002027094145296289,2.853
0.006585780186674626,2.854
0.014815631825745967,2.855
0.02125383616323982,2.856
0.024683546030437212,2.857
0.024233149006205507,2.858
0.019648479775546165,2.859
0.011661543933668752,2.86
0.002077744528720096,2.861
-0.0067216078267847415,2.862
-0.012625887167239976,2.863
-0.014444384730515007,2.864
-0.01207066693102607,2.865
-0.006277433579801207,2.866
0.0016018757926649304,2.867
0.009916440878431286,2.868
0.016843579626742027,2.869
0.02060332369414703,2.87
0.019910956584406437,2.871
0.014547618788079308,2.872
0.005600406506327611,2.873
-0.00492189654528596,2.874
-0.014781446064319992,2.875
-0.02201740355430576,2.876
-0.025183357412688807,2.877
-0.023507766014449094,2.878
-0.017137876509443137,2.879
-0.007405566762941091,2.88
0.0032601554581856945,2.881
0.012087557605459537,2.882
0.01709710628763903,2.883
0.017851246860012916,2.884
0.015308758879087978,2.885
0.010973992151026252,2.886
0.006020267671082128,2.887
0.0010033654167008338,2.888
-0.003815156321642811,2.889
-0.00813824877972929,2.89
-0.01173774766634267,2.891
-0.014651948489893402,2.892
-0.01700757241431609,2.893
-0.018607397589973193,2.894
-0.018715199791678853,2.895
-0.016321713010064843,2.896
-0.01087819454062489,2.897
-0.0030444135721747383,2.898
0.0051932783001605535,2.899
0.01130651468374978,2.9
0.013523679009138907,2.901
0.011711091892211912,2.902
0.007115273241895594,2.903
0.0013909925436591073,2.904
-0.004026815560749792,2.905
-0.007884238161477972,2.906
-0.008930850915197838,2.907
-0.006201930695668685,2.908
0.0002646323759859277,2.909
0.009019983748811283,2.91
0.017633501817046947,2.911
0.023697770312151846,2.912
0.025812784514478423,2.913
0.02397348072736423,2.914
0.01917250785835216,2.915
0.012697404959987243,2.916
0.005680405838153646,2.917
-0.0010308675869379765,2.918
-0.006886452098007684,2.919
-0.011571451464142322,2.92
-0.01478192038045187,2.921
-0.01601679489455924,2.922
-0.014687788799980464,2.923
-0.010527000872593985,2.924
-0.003984753832354592,2.925
0.0036968965231455263,2.926
0.01082956024698603,2.927
0.015837659720889893,2.928
0.017734368769154105,2.929
0.016336475806482804,2.93
0.012171671596896468,2.931
0.006179948827010483,2.932
-0.0005701272020738753,2.933
-0.0070327807845333235,2.934
-0.01230835989812779,2.935
-0.01582061300435847,2.936
-0.017415668167965564,2.937
-0.01727034994903036,2.938
-0.015761388459963038,2.939
-0.013472703546777029,2.94
-0.011196167583879155,2.941
-0.009696446394182141,2.942
-0.009331055449963903,2.943
-0.009804371853130068,2.944
-0.010239954896891482,2.945
-0.009595657266072847,2.946
-0.007212213168681073,2.947
-0.0031348307693436993,2.948
0.0019385468002259376,2.949
