VaMe,time
0.0005118211575275894,0.001
-0.00043483237140808426,0.002
-0.001396545495683386,0.003
-0.0022636436450941197,0.004
-0.00278004049789282,0.005
-0.00264173436264061,0.006
-0.0016620410177972055,0.007
0.0001052386069241774,0.008
0.0023663643230950842,0.009
0.0046840806526770315,0.01
0.006584721852178936,0.011
0.007647742075766447,0.012
0.007610517685396927,0.013
0.006484439054795872,0.014
0.004588547578005935,0.015
0.002419019725811079,0.016
0.000420540215284261,0.017
-0.0011971211059393248,0.018
-0.0025274422080514645,0.019
-0.003898365173715954,0.02
-0.005650576872542074,0.021
-0.007838473517002068,0.022
-0.010044477473205044,0.023
-0.011449594780853238,0.024
-0.011141616592912166,0.025
-0.008555113868486446,0.026
-0.0038405006858236172,0.027
0.002094902475774765,0.028
0.007901106482504033,0.029
0.012226797445597886,0.03
0.014078129917575895,0.031
0.013014925831981255,0.032
0.009211194095702207,0.033
0.0034519912039986294,0.034
-0.0029453397659663415,0.035
-0.00839975252663767,0.036
-0.011547946190867549,0.037
-0.011705114095475491,0.038
-0.009021108624816612,0.039
-0.004341217917931659,0.04
0.0010526527596318332,0.041
0.00578920152884918,0.042
0.008820950434625842,0.043
0.009713323710913997,0.044
0.008675123003682464,0.045
0.006395077121028874,0.046
0.003776463523476809,0.047
0.001625835482027739,0.048
0.00039745958388656997,0.049
9.089402362203609e-05,0.05
0.00032104642571769803,0.051
0.0005168538931184457,0.052
0.00017146618980437204,0.053
-0.0009515567965552456,0.054
-0.002738557852901762,0.055
-0.0047804118272202056,0.056
-0.006514127464371112,0.057
-0.007412750857987261,0.058
-0.0071733072485828395,0.059
-0.005827740939360814,0.06
-0.0037176057669169667,0.061
-0.00133987782974349,0.062
0.0008322484526667565,0.063
0.0024423559379243326,0.064
0.003261447066089227,0.065
0.0031887028989455684,0.066
0.0022695646044735085,0.067
0.0007029923676904597,0.068
-0.0011863251910774841,0.069
-0.002999621976661868,0.07
-0.00432706633414938,0.071
-0.004820146393404428,0.072
-0.004267440371594345,0.073
-0.0026697727254167973,0.074
-0.0002787141164881699,0.075
0.002456159751949285,0.076
0.005016900585377966,0.077
0.00695138481791011,0.078
0.00796634073852363,0.079
0.007975490173908995,0.08
0.007097672686136226,0.081
0.005597452324919598,0.082
0.003792246704681736,0.083
0.0019630249236687004,0.084
0.0002945490107889647,0.085
-0.0011318029008616133,0.086
-0.00229216668096977,0.087
-0.00316341385058199,0.088
-0.003708699844657416,0.089
-0.0039127960661449294,0.09
-0.0038186604683711853,0.091
-0.0035199228051284843,0.092
-0.0031163433168832867,0.093
-0.002667076007439109,0.094
-0.0021685414236078757,0.095
-0.0015801018161715002,0.096
-0.0008883418629327876,0.097
-0.0001472257232452743,0.098
0.0005423875463744875,0.099
0.0010749518687129121,0.1
0.0013623546185516143,0.101
0.0013492639276169792,0.102
0.0010465361180931243,0.103
0.0005551751137163899,0.104
3.004506190676974e-05,0.105
-0.0003952191409282796,0.106
-0.0006440167422351721,0.107
-0.0006834886399647809,0.108
-0.0005209984051642056,0.109
-0.00022283072461652174,0.11
8.439021347239777e-05,0.111
0.0002517131079370027,0.112
0.0001735525346665847,0.113
-0.00015901409716604105,0.114
-0.0006512562690386486,0.115
-0.0011399263663594216,0.116
-0.0014489358943435232,0.117
-0.0014405531183607776,0.118
-0.001050328513143128,0.119
-0.0003133972511437414,0.12
0.0006307276968625238,0.121
0.0015831212913192986,0.122
0.002367945213607212,0.123
0.0028908205982819068,0.124
0.003134827140941622,0.125
0.003133437237839052,0.126
0.0029551343929897127,0.127
0.002677106374261496,0.128
0.0023494649139319972,0.129
0.0019875267934267005,0.13
0.0015949366405199844,0.131
0.0011760706895398462,0.132
0.0007226703155911318,0.133
0.00021604988376844352,0.134
-0.0003495335616652495,0.135
-0.0009580984182757818,0.136
-0.0015645584836789237,0.137
-0.00207608592071338,0.138
-0.0023608123170104135,0.139
-0.002299759011208925,0.14
-0.0018469108032668946,0.141
-0.0010614619521381813,0.142
-0.00010921524077819104,0.143
0.0007563966886037142,0.144
0.001242974640684791,0.145
0.0010989575586408315,0.146
0.0001822649405987323,0.147
-0.0015251971820988738,0.148
-0.003944077142454117,0.149
-0.006904570085668242,0.15
-0.010100920079338067,0.151
-0.013032179443979951,0.152
-0.014991349829232281,0.153
-0.015170943983452027,0.154
-0.0129332710663275,0.155
-0.008143146647506322,0.156
-0.00132923169807784,0.157
0.006449996428793917,0.158
0.013935337908666322,0.159
0.019987198847967853,0.16
0.023770068490627662,0.161
0.02481208090119337,0.162
0.023008715718148155,0.163
0.018660068006493547,0.164
0.012547727358891852,0.165
0.005852020431701139,0.166
-0.00020636324863372528,0.167
-0.004770353086129231,0.168
-0.00751856906536832,0.169
-0.008589069346239962,0.17
-0.008408019548034124,0.171
-0.00753141102501939,0.172
-0.006503441685340029,0.173
-0.0057197705880918425,0.174
-0.005333059357471511,0.175
-0.005262924957891341,0.176
-0.0053152468254575105,0.177
-0.005324292389133332,0.178
-0.00523206354085509,0.179
-0.0050907108521171555,0.18
-0.005010161334898294,0.181
-0.005069413991740636,0.182
-0.0052244098900197065,0.183
-0.005283008769692206,0.184
-0.004977263704642416,0.185
-0.0040715990438540545,0.186
-0.002447827784259688,0.187
-0.00015573313785054946,0.188
0.002574322977612942,0.189
0.005365565274479238,0.19
0.007781061178274854,0.191
0.009441708183311028,0.192
0.010126556598641917,0.193
0.009808306502709061,0.194
0.008615792594194462,0.195
0.0067697167803770116,0.196
0.004541987378778834,0.197
0.0022320011957937197,0.198
0.00012844543027147612,0.199
-0.0015410477306197893,0.2
-0.0026491455652651818,0.201
-0.003187104353059799,0.202
-0.0032557107765934564,0.203
-0.003020526958791264,0.204
-0.002652955069615561,0.205
-0.0022837432250249483,0.206
-0.001969529202871718,0.207
-0.0016891957234745163,0.208
-0.0013868325209427444,0.209
-0.0010320712837772667,0.21
-0.0006504038625040769,0.211
-0.000299909039176984,0.212
-2.0429625825599754e-05,0.213
0.00019193949551506504,0.214
0.00036461918991221383,0.215
0.0005067904101925495,0.216
0.0005918029863223128,0.217
0.0005827068083710863,0.218
0.00045592844109621254,0.219
0.00019492266096302654,0.22
-0.00019776286085028855,0.221
-0.0006601737387480362,0.222
-0.0010710989799974505,0.223
-0.0013014554654548636,0.224
-0.0012597814072984074,0.225
-0.0009209611419042615,0.226
-0.00035268119211911725,0.227
0.00028536920296528,0.228
0.0007975732184740792,0.229
0.0010421630494939823,0.23
0.000992372889763066,0.231
0.0007259789567510242,0.232
0.00035700600835744,0.233
-3.0024577038152672e-05,0.234
-0.00039195460857324775,0.235
-0.0006999464982688422,0.236
-0.0009154361843897665,0.237
-0.0009831876083613528,0.238
-0.0008458423833320001,0.239
-0.00047931788219004974,0.24
7.780761803673821e-05,0.241
0.0007245309023881541,0.242
0.0013187834976758858,0.243
0.0017150659555388134,0.244
0.0018160209503539334,0.245
0.0016047449743817291,0.246
0.0011390979011490312,0.247
0.0005297321850034783,0.248
-8.777577737339616e-05,0.249
-0.0005910998492987631,0.25
-0.0009090270632488828,0.251
-0.0010438179017778556,0.252
-0.001062681553823536,0.253
-0.0010495032932655128,0.254
-0.001049163705262446,0.255
-0.0010599378865704283,0.256
-0.0010731819710716808,0.257
-0.0010949831636528427,0.258
-0.0011158211363951202,0.259
-0.00107364152181272,0.26
-0.0008667919871486062,0.261
-0.0004153619798296196,0.262
0.00027636762694940354,0.263
0.0010976014246316713,0.264
0.0018662055476318694,0.265
0.0024156235476812077,0.266
0.002679659878070982,0.267
0.002692720150052889,0.268
0.0025004515405052568,0.269
0.002095286724323397,0.27
0.0014563745919418296,0.271
0.0006168956295465214,0.272
-0.0003269381323677846,0.273
-0.0012396921199815873,0.274
-0.001969725285561132,0.275
-0.002380283792207173,0.276
-0.0023895274613077127,0.277
-0.0020028466349181193,0.278
-0.0013212210264438395,0.279
-0.000519542530791722,0.28
0.00020098752320074566,0.281
0.0006652300053734821,0.282
0.0007675697191284363,0.283
0.0005077545162996946,0.284
-1.3930995906163412e-05,0.285
-0.000655726840595609,0.286
-0.0012795214661514758,0.287
-0.0017436047997832253,0.288
-0.0019009111360666529,0.289
-0.0016440039064299194,0.29
-0.0009610620119385775,0.291
4.013237919713375e-05,0.292
0.0011594276978342916,0.293
0.0021777214038570906,0.294
0.0029241149843145463,0.295
0.0032891839708330986,0.296
0.0032097273303027226,0.297
0.0026717814607245534,0.298
0.001730960054904273,0.299
0.0005170545476388586,0.3
-0.000797970613943681,0.301
-0.002049589050598749,0.302
-0.0031082311883194632,0.303
-0.0038663101608974026,0.304
-0.00420773956322166,0.305
-0.004011124030939271,0.306
-0.0032040446031694576,0.307
-0.0018272658034720112,0.308
-6.361513029935044e-05,0.309
0.0017861901546803928,0.31
0.003377829025726398,0.311
0.0044176194156505715,0.312
0.00473095264472741,0.313
0.00428822004847866,0.314
0.0031987778762898517,0.315
0.001678017860564527,0.316
1.7297928173877493e-06,0.317
-0.0015330993420201698,0.318
-0.0026559835625159715,0.319
-0.003193275242264499,0.32
-0.0031228547220990294,0.321
-0.0025726545117954838,0.322
-0.001764405673942113,0.323
-0.0009226870537334225,0.324
-0.00019241163625636273,0.325
0.0003891107167115156,0.326
0.0008623570861716437,0.327
0.0012837990499638737,0.328
0.0016664185408077233,0.329
0.001949649494477652,0.33
0.002013998041158789,0.331
0.0017486209618376334,0.332
0.0011348150753371655,0.333
0.0002717783174485642,0.334
-0.0006748065703787709,0.335
-0.0015397911032472987,0.336
-0.0021826761831306705,0.337
-0.002481330587397769,0.338
-0.0023471195728757195,0.339
-0.0017715632168256762,0.34
-0.0008542578434566597,0.341
0.0002236129319289406,0.342
0.0012566752310873488,0.343
0.0020620621741626946,0.344
0.002509206973472993,0.345
0.002553583760104425,0.346
0.0022610103393687904,0.347
0.001780761299689675,0.348
0.0012670225639818094,0.349
0.0008051433577136239,0.35
0.0003960473089609703,0.351
-1.1338417813478025e-05,0.352
-0.0004788024845948863,0.353
-0.001040374312718274,0.354
-0.001673719386210511,0.355
-0.002293793525351932,0.356
-0.0027684459227814086,0.357
-0.0029597099690751127,0.358
-0.00278970663191574,0.359
-0.0022884952252937353,0.36
-0.0015776057587548918,0.361
-0.0008147857580695741,0.362
-0.00014975476241072997,0.363
0.0003132342526059381,0.364
0.0005494691947674975,0.365
0.0006182727131006169,0.366
0.0006306321245327497,0.367
0.0006930548882322095,0.368
0.0008560586768306661,0.369
0.0010961626276980337,0.37
0.0013254605665816868,0.371
0.0014147386793676754,0.372
0.0012407718558902438,0.373
0.0007537216261006026,0.374
2.426502207574833e-05,0.375
-0.0007625663809679614,0.376
-0.001370951724940844,0.377
-0.0016086048067617588,0.378
-0.001389908799440731,0.379
-0.000734051940054352,0.38
0.0002619984517602151,0.381
0.0014433811173900691,0.382
0.0026232095294094447,0.383
0.0036096523419239684,0.384
0.004220358018101454,0.385
0.004303433598251719,0.386
0.003781475976373585,0.387
0.0026905374129752376,0.388
0.001179622862949254,0.389
-0.0005179924257031613,0.39
-0.002125959432377757,0.391
-0.0033846455063310742,0.392
-0.0041117836745560845,0.393
-0.004243177301401347,0.394
-0.0038521850393076575,0.395
-0.0031268846440722802,0.396
-0.0022938044716093284,0.397
-0.0015328481344732215,0.398
-0.0009338881533173018,0.399
-0.0005002505800473138,0.4
-0.0001774661146036018,0.401
0.00011026324274680356,0.402
0.00042824450199969023,0.403
0.0008119853361733087,0.404
0.0012485415378582776,0.405
0.0016522580667928752,0.406
0.001872523176049187,0.407
0.0017646436367090752,0.408
0.0012864274544704204,0.409
0.0005483468717080374,0.41
-0.00022327901256537764,0.411
-0.000792448793745244,0.412
-0.0010243315957299318,0.413
-0.0009301330528968122,0.414
-0.0006242688566600183,0.415
-0.00023996294042770788,0.416
0.00013027250735407075,0.417
0.0004403698935022091,0.418
0.000665598832797688,0.419
0.0007934389828810032,0.42
0.0008325847367683746,0.421
0.0007975788809906802,0.422
0.0006769914884509447,0.423
0.0004403808550020013,0.424
9.021749472667574e-05,0.425
-0.0003019110354228377,0.426
-0.0006196557715270281,0.427
-0.0007590693808800878,0.428
-0.0006694330291437677,0.429
-0.00036371275373591426,0.43
8.619133356595238e-05,0.431
0.0005565033258239497,0.432
0.000896346477087038,0.433
0.0009814383155684514,0.434
0.0007608391977479317,0.435
0.00025907250022226585,0.436
-0.0004476609481120213,0.437
-0.0012400001004961548,0.438
-0.001953784468234613,0.439
-0.002403890968362892,0.44
-0.0024370102256467308,0.441
-0.0019913452847977924,0.442
-0.0011364361747099709,0.443
-5.9513420549506024e-05,0.444
0.0010020749087758087,0.445
0.0018424376175221928,0.446
0.002348220837380814,0.447
0.0025177434543094887,0.448
0.00243803874716789,0.449
0.0022370544444412625,0.45
0.0020188315002114634,0.451
0.0018135216403025608,0.452
0.001590037896149997,0.453
0.0013086033334989392,0.454
0.0009394142894236409,0.455
0.0004426317791677569,0.456
-0.00022936239051620557,0.457
-0.0010990928233657934,0.458
-0.002138418948199128,0.459
-0.0032523608575836718,0.46
-0.004269593906500945,0.461
-0.004972654619167467,0.462
-0.005170804411437094,0.463
-0.004763673044462627,0.464
-0.003775470881346358,0.465
-0.0023674551592503617,0.466
-0.0007956030542529866,0.467
0.0006858253214578924,0.468
0.0019022395619332872,0.469
0.0027785969901278867,0.47
0.0033165147519181523,0.471
0.003558083401433016,0.472
0.0035634619928361626,0.473
0.003400513768288663,0.474
0.003138132175184516,0.475
0.00284817798485209,0.476
0.0025997144165964704,0.477
0.0024274495738864157,0.478
0.002299714539097536,0.479
0.0021234513882507277,0.48
0.0017874719585705642,0.481
0.0012170628133285823,0.482
0.00040808833604574687,0.483
-0.0005799028266306802,0.484
-0.0016515704644983703,0.485
-0.0026894762405596175,0.486
-0.0035591229361177697,0.487
-0.004125916694971207,0.488
-0.004287247257294217,0.489
-0.004012705634992393,0.49
-0.0033710964395534896,0.491
-0.0025190962179764778,0.492
-0.0016533419611454367,0.493
-0.0009535824684662697,0.494
-0.0005327071696057617,0.495
-0.0004027799120383389,0.496
-0.0004749528806712638,0.497
-0.0005922556055231339,0.498
-0.0005819066698762258,0.499
-0.00031630524998681257,0.5
0.00023548867708822496,0.501
0.0009913049862331623,0.502
0.0017939594854153196,0.503
0.0024829024534055765,0.504
0.0029502316573709335,0.505
0.003160969942312232,0.506
0.003148014119825318,0.507
0.0029855657533226104,0.508
0.0027372380543845367,0.509
0.0024122423396992863,0.51
0.0019816381316164517,0.511
0.0014395773700710682,0.512
0.0008393478393401765,0.513
0.00026983526054729815,0.514
-0.0001902655647852924,0.515
-0.0004928349308577256,0.516
-0.000625583642092582,0.517
-0.000624561262798856,0.518
-0.0005754142676124616,0.519
-0.0005871509275235995,0.52
-0.0007506765738523136,0.521
-0.0011044050098100483,0.522
-0.0016235271178436492,0.523
-0.00222407570263239,0.524
-0.002773557082002368,0.525
-0.003125722683914029,0.526
-0.003169765969073409,0.527
-0.002856395116004989,0.528
-0.0021999042883833514,0.529
-0.0012771714404940225,0.53
-0.0002189892187291795,0.531
0.0008169909555614369,0.532
0.001680840698558742,0.533
0.0022585377343570597,0.534
0.0024880021602337234,0.535
0.002358155599347683,0.536
0.0018967962299100034,0.537
0.001168050295587146,0.538
0.0002894639658922059,0.539
-0.0005647207653016893,0.54
-0.0012179672223117434,0.541
-0.0015672894274781188,0.542
-0.001600591387379002,0.543
-0.0013610235715728117,0.544
-0.0009169367132058886,0.545
-0.0003507254031487696,0.546
0.00024553335837291336,0.547
0.0007770718240279359,0.548
0.0011679401165913858,0.549
0.00138569988133831,0.55
0.001441808539837626,0.551
0.001368665018825827,0.552
0.0011977346625839044,0.553
0.0009548381390187308,0.554
0.000659244509010909,0.555
0.0003103088447916727,0.556
-0.00010916299146212839,0.557
-0.000591289272233432,0.558
-0.001071950795184537,0.559
-0.001457038418853872,0.56
-0.001674102208487882,0.561
-0.001698271191864621,0.562
-0.001550360456977863,0.563
-0.0012749327381116598,0.564
-0.0009020130058492033,0.565
-0.0004273350193880895,0.566
0.00015999849742038373,0.567
0.0008326184009307273,0.568
0.001507826857304205,0.569
0.0020630991751133644,0.57
0.0023762074183806704,0.571
0.0023795098831097955,0.572
0.0020972906667825735,0.573
0.0016369198411044837,0.574
0.001131575462534247,0.575
0.000672971466611692,0.576
0.0002849374026222597,0.577
-5.423579223201843e-05,0.578
-0.0003714003358238364,0.579
-0.0006737542227895674,0.58
-0.0009542814686244323,0.581
-0.0012090741981075947,0.582
-0.0014333552421830842,0.583
-0.0015982273743415432,0.584
-0.001649274815547488,0.585
-0.001543990814778879,0.586
-0.001290387958119367,0.587
-0.000946326299502607,0.588
-0.0005903289253750804,0.589
-0.0002949864639181571,0.59
-0.0001059994868914831,0.591
-2.4857088737122725e-05,0.592
-5.2866884182840074e-06,0.593
3.312701599680724e-05,0.594
0.00017504323241060077,0.595
0.0004652474803860268,0.596
0.0008656188938038142,0.597
0.0012455108932508468,0.598
0.001435016126385494,0.599
0.001320082412134203,0.6
0.0009058232942477827,0.601
0.00030680749890847246,0.602
-0.00030674702074282885,0.603
-0.0007677845441260438,0.604
-0.0009659356051942435,0.605
-0.0008908283544959107,0.606
-0.0006322088616491746,0.607
-0.0003201363537967656,0.608
-5.7455523956522264e-05,0.609
0.00010996254090573118,0.61
0.00019288397591715918,0.611
0.000238489134438219,0.612
0.0003007109975966194,0.613
0.0004125204247495307,0.614
0.0005593136837140837,0.615
0.0006683630329453061,0.616
0.000640849314094875,0.617
0.00041635325427920376,0.618
1.2027748478698686e-05,0.619
-0.0005014074559154771,0.62
-0.0010468104516904646,0.621
-0.0015546055887228221,0.622
-0.0019478256937430652,0.623
-0.002134100179998982,0.624
-0.002017238698338426,0.625
-0.0015240709320607504,0.626
-0.000647017430472826,0.627
0.0005111585632257888,0.628
0.0017276967679130898,0.629
0.002713354078725352,0.63
0.003213764742391066,0.631
0.003103381341912868,0.632
0.0024208183088117578,0.633
0.0013355373637179025,0.634
8.291748312984794e-05,0.635
-0.0010860801377169766,0.636
-0.0019433846770886166,0.637
-0.0023333714672967697,0.638
-0.0022109680032584814,0.639
-0.0016348837158997166,0.64
-0.0007299497996443616,0.641
0.00034071585880949824,0.642
0.0013839830534474423,0.643
0.0021985589146487753,0.644
0.0026248501475960133,0.645
0.002590951142921357,0.646
0.0021248973911967587,0.647
0.0013356170895612684,0.648
0.0003873237654043025,0.649
-0.000526237285046419,0.65
-0.0012278776683032715,0.651
-0.0016108480788653906,0.652
-0.0016615658040333027,0.653
-0.001448979265685941,0.654
-0.0010993689710638648,0.655
-0.0007557836134224556,0.656
-0.00052056661983586,0.657
-0.00041347070436898467,0.658
-0.00039434902105238575,0.659
-0.00043672488007859733,0.66
-0.0005614921044381878,0.661
-0.0007904524049197219,0.662
-0.001092646016616266,0.663
-0.001390474175047001,0.664
-0.0016026488456192187,0.665
-0.0016732166839993712,0.666
-0.0015760194734664897,0.667
-0.001311194188931553,0.668
-0.000899609485003493,0.669
-0.0003736377811338349,0.67
0.00023000420539070473,0.671
0.0008756099092255161,0.672
0.0015350028678276738,0.673
0.0021854572092247708,0.674
0.002794525306742204,0.675
0.00330107170350575,0.676
0.00360811683471957,0.677
0.0036084791531417267,0.678
0.0032358481162468007,0.679
0.0024974231113824743,0.68
0.0014695321185048537,0.681
0.000277364908592801,0.682
-0.000932309924945075,0.683
-0.0020297202417944873,0.684
-0.002928198079703326,0.685
-0.0035719288547850533,0.686
-0.003908888573104188,0.687
-0.0038895561714208425,0.688
-0.0034895074443633354,0.689
-0.0027284336225792314,0.69
-0.0016775441961940122,0.691
-0.0004609132360572662,0.692
0.0007502465333299852,0.693
0.0017635690429604368,0.694
0.002419649959400571,0.695
0.002646670069901317,0.696
0.002484695457618143,0.697
0.0020738185413706725,0.698
0.0015975683619199525,0.699
0.0011978373371678928,0.7
0.0009231241149082465,0.701
0.0007449962368977858,0.702
0.000609432084738512,0.703
0.0004745247507658556,0.704
0.00032472169468675494,0.705
0.00017072443686317338,0.706
3.0250658759489558e-05,0.707
-9.916890637365972e-05,0.708
-0.00024132678529155622,0.709
-0.0004156059964104661,0.71
-0.000615469648670224,0.711
-0.0008080630353029669,0.712
-0.0009494477159738261,0.713
-0.0010050171200306811,0.714
-0.0009735454915101609,0.715
-0.0009008955128074535,0.716
-0.0008576204367484615,0.717
-0.0008896758036770372,0.718
-0.000985128058095269,0.719
-0.0010843157388431908,0.72
-0.0011152065989231176,0.721
-0.0010215191977819467,0.722
-0.0007831239464643774,0.723
-0.0004293139784122918,0.724
-2.3904051735149002e-05,0.725
0.0003671633378255518,0.726
0.0006885483911555831,0.727
0.0008889116991492401,0.728
0.0009206762799461809,0.729
0.000753773878631119,0.73
0.00039315777757589814,0.731
-0.00011329838952987973,0.732
-0.0006789478369931283,0.733
-0.0011895987857486615,0.734
-0.0015199644666859938,0.735
-0.0015542310058535445,0.736
-0.0012199331110760506,0.737
-0.0005340875777855143,0.738
0.00038124951384156165,0.739
0.001340341025817369,0.74
0.0021593222913676427,0.741
0.0027152227017045788,0.742
0.002984463430604387,0.743
0.003032558937288989,0.744
0.0029536823220232228,0.745
0.0028072653742232307,0.746
0.0025941986583366654,0.747
0.002281222303998388,0.748
0.0018490802985733352,0.749
0.0013187326160078,0.75
0.0007344078404616774,0.751
0.00012614421842443776,0.752
-0.0005095912990848598,0.753
-0.001186819702652099,0.754
-0.0018863480995052462,0.755
-0.002542491297238556,0.756
-0.0030720866708988815,0.757
-0.0034088397365641824,0.758
-0.0035191013930519276,0.759
-0.0034116689469435003,0.76
-0.0031482023486938252,0.761
-0.0028394745586816485,0.762
-0.0026152497796244566,0.763
-0.0025730319679613234,0.764
-0.0027257530885741346,0.765
-0.002970876299132728,0.766
-0.003105954894262227,0.767
-0.0029005451250000407,0.768
-0.0021863565563482066,0.769
-0.0009170262020699853,0.77
0.0008118964965895707,0.771
0.0027769634455646463,0.772
0.0046713895512563225,0.773
0.006174742661403258,0.774
0.007042405106312539,0.775
0.007182224546311332,0.776
0.006664122161675896,0.777
0.005655570614749563,0.778
0.004345770781239445,0.779
0.0029134740487854315,0.78
0.001517776093873974,0.781
0.0002799734987480367,0.782
-0.0007249142290668416,0.783
-0.001460728329288601,0.784
-0.001928401363355605,0.785
-0.0021700675089353118,0.786
-0.0022757378968344725,0.787
-0.0023819006454344387,0.788
-0.002627618843261738,0.789
-0.0030774471225842683,0.79
-0.003673741064040583,0.791
-0.00425302007796433,0.792
-0.00461258217587736,0.793
-0.004589667819485099,0.794
-0.004110341359622035,0.795
-0.0031928431416328815,0.796
-0.0019259202795980153,0.797
-0.0004465879924730111,0.798
0.0010766925737716057,0.799
0.002460549147630449,0.8
0.0035248938498193714,0.801
0.004121694101552162,0.802
0.004180187193683056,0.803
0.0037311516686067705,0.804
0.0028833646358725064,0.805
0.0017960355509558377,0.806
0.0006744150474553476,0.807
-0.0002514247677169801,0.808
-0.000789265544970761,0.809
-0.0008562323975546567,0.81
-0.0005106793670489033,0.811
7.058852038455311e-05,0.812
0.0006519762771320088,0.813
0.0010245586823443703,0.814
0.0010887238604847123,0.815
0.000877217898602821,0.816
0.0005114791318623211,0.817
0.00013575429301378405,0.818
-0.0001360545099398359,0.819
-0.0002503465456064267,0.82
-0.00022678267830085035,0.821
-0.00014461744750999481,0.822
-9.02528509428755e-05,0.823
-0.00011028852139818357,0.824
-0.0002102420860667512,0.825
-0.00036986739262236644,0.826
-0.0005554087674614513,0.827
-0.0007384140620705621,0.828
-0.0009026870471816838,0.829
-0.0010326377578240393,0.83
-0.0011114923583096608,0.831
-0.0011276253318244277,0.832
-0.001073443781218267,0.833
-0.0009526043237373769,0.834
-0.0007921328392372799,0.835
-0.0006371095623416456,0.836
-0.0005352401990681069,0.837
-0.0005224819854842056,0.838
-0.0006089009887172642,0.839
-0.0007660955974971849,0.84
-0.0009189751178793764,0.841
-0.0009573622864653274,0.842
-0.000776508330898873,0.843
-0.0003215757482979886,0.844
0.00038881652860657415,0.845
0.0012582976090682238,0.846
0.002122929196147268,0.847
0.0027894721464388683,0.848
0.0031075284960821146,0.849
0.003036660910582569,0.85
0.0026571319130785803,0.851
0.002115468818905046,0.852
0.0015396144463072088,0.853
0.000979370536435148,0.854
0.0004088735949378,0.855
-0.00023520071921116152,0.856
-0.0010213825485796352,0.857
-0.0019904922532377168,0.858
-0.003109463666466232,0.859
-0.004233500243711845,0.86
-0.0051154726240158896,0.861
-0.00548365922209378,0.862
-0.005148568829560803,0.863
-0.004068004337716247,0.864
-0.002351457367101541,0.865
-0.00023533053135095793,0.866
0.0019602581909182147,0.867
0.003904006306762841,0.868
0.005332729794655831,0.869
0.0060995344169445034,0.87
0.006182896507936558,0.871
0.005659582132841362,0.872
0.004658094223919247,0.873
0.003333108192535209,0.874
0.0018698369078391913,0.875
0.0004829342703639074,0.876
-0.0006148769594734838,0.877
-0.0012655602871882636,0.878
-0.001418010318294129,0.879
-0.0011506398324763105,0.88
-0.0006383295800104553,0.881
-8.594900393361504e-05,0.882
0.0003201874047030864,0.883
0.0004289791403907821,0.884
0.00013092378559219394,0.885
-0.0006217931528829031,0.886
-0.001773196722067915,0.887
-0.0031312531948270014,0.888
-0.00439936144900233,0.889
-0.005271930234779304,0.89
-0.005540931422006913,0.891
-0.005166855481244098,0.892
-0.004277949647082362,0.893
-0.003095341825066528,0.894
-0.001839125229499563,0.895
-0.0006683774900132391,0.896
0.0003365299172807978,0.897
0.0011610486236004513,0.898
0.0018234625048570733,0.899
0.00234124650110649,0.9
0.0027203444769153544,0.901
0.002969735358402493,0.902
0.003122943405807722,0.903
0.0032432095125196647,0.904
0.003398905316299936,0.905
0.0036187892994444175,0.906
0.003858918909353931,0.907
0.004009384078796583,0.908
0.003935384509754466,0.909
0.0035322228554568263,0.91
0.002775295901575039,0.911
0.0017311031861002124,0.912
0.0005171464742536302,0.913
-0.000750919070660552,0.914
-0.0019881113942270146,0.915
-0.003141576658960186,0.916
-0.004180425218066649,0.917
-0.0050890232533730255,0.918
-0.005851870426252253,0.919
-0.0064152972964037856,0.92
-0.006661720604793019,0.921
-0.006437849203689613,0.922
-0.005623031160487335,0.923
-0.004199016461757664,0.924
-0.002280435643002073,0.925
-8.150222818833796e-05,0.926
0.0021483373903515893,0.927
0.004166059809532572,0.928
0.005755687878121925,0.929
0.00676238397672654,0.93
0.007131628699358652,0.931
0.00691932168230926,0.932
0.0062650728055895916,0.933
0.005336143286938474,0.934
0.004259217337412371,0.935
0.0030795986635932123,0.936
0.001783874105197428,0.937
0.00037186422761299563,0.938
-0.0010865766751142329,0.939
-0.0024635798108806287,0.94
-0.0036387169255243535,0.941
-0.004545104892881775,0.942
-0.005155762513143623,0.943
-0.005450318130244828,0.944
-0.005412888609281381,0.945
-0.0050477129080774485,0.946
-0.0043722806430208745,0.947
-0.003400330887978995,0.948
-0.0021517669882452502,0.949
-0.0006852579484180305,0.95
0.0008722111793742489,0.951
0.0023203372647773324,0.952
0.003432301381246182,0.953
0.004047911353693552,0.954
0.0041451322574980526,0.955
0.0038348579264051233,0.956
0.0032942000950572686,0.957
0.002686580737826541,0.958
0.0021075533665825476,0.959
0.0015754036464845369,0.96
0.0010632213434562787,0.961
0.0005411088160661143,0.962
-4.33881439955331e-06,0.963
-0.0005723976372733568,0.964
-0.0011568116060722544,0.965
-0.0017468188091257948,0.966
-0.0023094817305968516,0.967
-0.0027696196161422753,0.968
-0.003019102861776552,0.969
-0.002958094487919878,0.97
-0.0025405448544398427,0.971
-0.0017950921812183295,0.972
-0.0008160569261146123,0.973
0.00025652876652334453,0.974
0.0012557585275417872,0.975
0.0020161629789171294,0.976
0.002419487816389863,0.977
0.002437669814093111,0.978
0.002144107115564316,0.979
0.0016833227219663534,0.98
0.001209145304313477,0.981
0.0008311982279048095,0.982
0.0006059759653528296,0.983
0.0005469272337574791,0.984
0.0006110299420403572,0.985
0.0006769043836575873,0.986
0.0005652188901015111,0.987
0.00011613826651435639,0.988
-0.0007243899463627422,0.989
-0.0018750056449086548,0.99
-0.0031629924383357643,0.991
-0.004398156352426833,0.992
-0.005416807119966079,0.993
-0.00607614865986374,0.994
-0.0062375245790259656,0.995
-0.005781595844880641,0.996
-0.004653477248231931,0.997
-0.002900986498470051,0.998
-0.000670199137030464,0.999
0.001832985868956335,1.0
0.004374158791871934,1.001
0.006698186383883592,1.002
0.008540025042213345,1.003
0.009667785481508793,1.004
0.0099367112547445,1.005
0.009315626860821545,1.006
0.007890108791037244,1.007
0.005856458942382436,1.008
0.003499241463823057,1.009
0.001145534463516696,1.01
-0.000907625220168912,1.011
-0.0024821286050571273,1.012
-0.003572391435843852,1.013
-0.004312180643398932,1.014
-0.00487902367689681,1.015
-0.005402600454600626,1.016
-0.005906507093257114,1.017
-0.0063028418866861715,1.018
-0.006447823189769603,1.019
-0.006203920717922773,1.02
-0.005474117503358807,1.021
-0.004239994080274043,1.022
-0.0025958358868737553,1.023
-0.0007320683115544318,1.024
0.0011249472245196488,1.025
0.002775511753252517,1.026
0.004091063091920477,1.027
0.0050259461169967455,1.028
0.005583430318034219,1.029
0.005759892947678029,1.03
0.005511206356672893,1.031
0.004758060074494939,1.032
0.003431074778578887,1.033
0.001546338956897852,1.034
-0.0007388025649798834,1.035
-0.0031416394420445987,1.036
-0.00532386238492953,1.037
-0.006958577343211825,1.038
-0.007777133731017191,1.039
-0.007609353998235175,1.04
-0.006418615882795896,1.041
-0.004329871193981657,1.042
-0.0016369304800998563,1.043
0.0012448529058928749,1.044
0.003873056570764417,1.045
0.0058688884823585,1.046
0.006983655511160995,1.047
0.0071454766732727566,1.048
0.00646997577256269,1.049
0.005218868458277551,1.05
0.0037244216118072246,1.051
0.0023061602310900852,1.052
0.0011928081122132882,1.053
0.00047740582523836,1.054
0.000131085767547604,1.055
5.1999718192051255e-05,1.056
0.00010344983090327326,1.057
0.00013032695782576483,1.058
-1.9441222244724837e-05,1.059
-0.00045809480512590733,1.06
-0.0012293316785829188,1.061
-0.0023027303420682897,1.062
-0.0035785326390393095,1.063
-0.0048908290169246815,1.064
-0.006020031114824983,1.065
-0.006725493618903526,1.066
-0.0067954139169059714,1.067
-0.006099754012286099,1.068
-0.004624450012464803,1.069
-0.002487552801887799,1.07
5.306060667967347e-05,1.071
0.00262342714433976,1.072
0.004811104985457467,1.073
0.006271387943409736,1.074
0.00681533695542584,1.075
0.006455532433342226,1.076
0.005402285235276994,1.077
0.0039979422966653095,1.078
0.00259900337493058,1.079
0.0014616237024280374,1.08
0.0006849124656640218,1.081
0.0002248293958839787,1.082
-4.3906666598231904e-05,1.083
-0.00025734985938910917,1.084
-0.0005109040060368307,1.085
-0.0008367846658257624,1.086
-0.0012138130213402813,1.087
-0.0015985180046518036,1.088
-0.0019514467522744965,1.089
-0.0022407595920336306,1.09
-0.002431491150579057,1.091
-0.00248242948060566,1.092
-0.002361529552625942,1.093
-0.0020679459486048573,1.094
-0.0016410060944326013,1.095
-0.001146895993745256,1.096
-0.0006484708388684763,1.097
-0.00019117193776914388,1.098
0.0001810555115271541,1.099
0.0004249835426629148,1.1
0.0005250442656316065,1.101
0.000501362892687779,1.102
0.00039188233426488256,1.103
0.0002368302749552476,1.104
6.906107069153575e-05,1.105
-8.405927612128082e-05,1.106
-0.00018003336818721272,1.107
-0.0001476675497244488,1.108
8.874022612423593e-05,1.109
0.0005516186414552752,1.11
0.0011697999352913077,1.111
0.00179785470927166,1.112
0.0022677606166518487,1.113
0.0024366951651846633,1.114
0.002232842735674746,1.115
0.0016894106913815901,1.116
0.0009336147135776848,1.117
0.00013139537713303893,1.118
-0.0005649156228028188,1.119
-0.0010435497646164086,1.12
-0.0012523370581394649,1.121
-0.0012093214200666483,1.122
-0.0009889340737312827,1.123
-0.0006902718558257983,1.124
-0.0004085629433557459,1.125
-0.0002139690030211844,1.126
-0.00013600357790309535,1.127
-0.00016480366520787336,1.128
-0.000263369740327244,1.129
-0.0003784073018961156,1.13
-0.00046224968503263947,1.131
-0.0005015481468382054,1.132
-0.0005212597381437094,1.133
-0.000553579746853975,1.134
-0.0005959484789875636,1.135
-0.0006027943460855865,1.136
-0.0005305805810676626,1.137
-0.00038786638433146997,1.138
-0.00022949296461595081,1.139
-9.958860192806525e-05,1.14
1.8075331422030562e-05,1.141
0.00019628430509714792,1.142
0.0005145373000863967,1.143
0.0010083323590707584,1.144
0.0016514985102902234,1.145
0.002361658508006497,1.146
0.003004451215476267,1.147
0.0034056329674115172,1.148
0.003392252161959132,1.149
0.002848406006890752,1.15
0.0017578411806026767,1.151
0.0002280935981180412,1.152
-0.0015118247684833038,1.153
-0.003158557333573233,1.154
-0.0044240302550522664,1.155
-0.005126056584764627,1.156
-0.005216696471927401,1.157
-0.004741543868245693,1.158
-0.003798750003950308,1.159
-0.0025349311260955522,1.16
-0.0011445096825174574,1.161
0.00015167712188921144,1.162
0.0011459131546098923,1.163
0.0017003616314669769,1.164
0.001786945340944208,1.165
0.0014739331086428588,1.166
0.0008915213690554044,1.167
0.00020996615674264514,1.168
-0.00038494851277346613,1.169
-0.0007262655081698834,1.17
-0.0006947379837069879,1.171
-0.00023838265949306444,1.172
0.0006068622133762843,1.173
0.0017096722782110622,1.174
0.0028733947204798048,1.175
0.003883539119180373,1.176
0.00454676132433582,1.177
0.004727271617830827,1.178
0.004376331344094454,1.179
0.003540991582503137,1.18
0.0023537178855687546,1.181
0.0010032929807869775,1.182
-0.000312064450359466,1.183
-0.001432588335597643,1.184
-0.0022632881357379634,1.185
-0.0027740462175895914,1.186
-0.0029882539233171564,1.187
-0.002961864351572439,1.188
-0.0027538079713826367,1.189
-0.002415075274349777,1.19
-0.002001432404494765,1.191
-0.0015766201597586479,1.192
-0.0011979970509068435,1.193
-0.0009075964717641666,1.194
-0.0007336396309643521,1.195
-0.0006848961743266586,1.196
-0.0007322552929757478,1.197
-0.000802617290644461,1.198
-0.0008074202317600528,1.199
-0.0006875831979302431,1.2
-0.00043945937671651476,1.201
-0.00011037304252439383,1.202
0.00022344546756362571,1.203
0.0004894709806460999,1.204
0.0006594165904735965,1.205
0.0007714531344825546,1.206
0.0009062241530836089,1.207
0.0011264924855051012,1.208
0.0014236143881616633,1.209
0.0017151471117801131,1.21
0.0018945043307655035,1.211
0.0018831056207160085,1.212
0.0016498262647319374,1.213
0.001214042628108902,1.214
0.0006395142699556609,1.215
-5.371166539515226e-07,1.216
-0.0006620018705584088,1.217
-0.0013254189984544327,1.218
-0.0019631359187226517,1.219
-0.0025168552003296827,1.22
-0.0028935691884080083,1.221
-0.002982426549384918,1.222
-0.002689693041028649,1.223
-0.0019754182162953693,1.224
-0.0008830002221494191,1.225
0.00045153801735853255,1.226
0.0018283508571782772,1.227
0.003039406551953375,1.228
0.00391699370002193,1.229
0.00436150206090968,1.23
0.004357254882607148,1.231
0.003970483046944638,1.232
0.003317877479984554,1.233
0.002519343318662194,1.234
0.0016582705246216878,1.235
0.0007656610842371247,1.236
-0.00015915195821899374,1.237
-0.0011013805884230409,1.238
-0.0019984403107157975,1.239
-0.0027526438081927587,1.24
-0.0032778542505142185,1.241
-0.0035456973274186573,1.242
-0.0035979020069182685,1.243
-0.003509853178280926,1.244
-0.0033323512261508553,1.245
-0.0030687454626477303,1.246
-0.0027057371129777814,1.247
-0.0022490593728492062,1.248
-0.001718698962263293,1.249
-0.0011234778444363038,1.25
-0.00046335594718376153,1.251
0.00024242189369180837,1.252
0.000945316268560939,1.253
0.0015819734071721105,1.254
0.0020906518326126843,1.255
0.0024264260791025264,1.256
0.0025633667181948995,1.257
0.0024763386859488453,1.258
0.002139755931850747,1.259
0.0015646509502708773,1.26
0.0008384016414013818,1.261
0.0001278595452032175,1.262
-0.00036061934185637406,1.263
-0.0004527617364286893,1.264
-8.776693816310182e-05,1.265
0.0006331934274446369,1.266
0.0014699329481302123,1.267
0.002132005367397896,1.268
0.0023903444775298876,1.269
0.0021595021849574276,1.27
0.0015103079217501322,1.271
0.0006123684224874071,1.272
-0.00034546314128568797,1.273
-0.0012039588677756632,1.274
-0.0018428353038764094,1.275
-0.0021747383594050793,1.276
-0.002152436409102379,1.277
-0.0017962422773945984,1.278
-0.001208180086457764,1.279
-0.0005394138730969425,1.28
7.247641321909417e-05,1.281
0.0005443416321108435,1.282
0.0008349998727891171,1.283
0.0009101692162976969,1.284
0.0007366004967991706,1.285
0.0003059474453847201,1.286
-0.0003408949559483883,1.287
-0.0011016356680401869,1.288
-0.0018186797459463558,1.289
-0.0023097125240669728,1.29
-0.0024254981260561836,1.291
-0.0021198531119648464,1.292
-0.001484327563631122,1.293
-0.0007133611808766719,1.294
-2.5368650362030704e-05,1.295
0.00041094829309455515,1.296
0.0005260434424785501,1.297
0.00037694269167713875,1.298
0.00012981407773653703,1.299
-2.9335601844834805e-05,1.3
-4.1838095283159165e-06,1.301
0.00017983461290549564,1.302
0.0004373002755244646,1.303
0.0007109051459758489,1.304
0.0010165302503229172,1.305
0.0014111991604026026,1.306
0.0019090621762568017,1.307
0.002423109120749715,1.308
0.002791850513068482,1.309
0.002867384560525546,1.31
0.0025855647161403534,1.311
0.0019750331311275287,1.312
0.0011300882631394712,1.313
0.0001855457286095778,1.314
-0.0007039627050432904,1.315
-0.0013989201513482227,1.316
-0.0018214991891127659,1.317
-0.001979002451789767,1.318
-0.0019358739708902047,1.319
-0.0017581756078840808,1.32
-0.0014838164173481222,1.321
-0.0011331830649148275,1.322
-0.0007344467269228206,1.323
-0.0003398894119188475,1.324
-1.535381059744435e-05,1.325
0.00019007994952374322,1.326
0.00025362454529523717,1.327
0.00016188826544796198,1.328
-9.406719215371923e-05,1.329
-0.000500115327015275,1.33
-0.000999255807456071,1.331
-0.001490739004056339,1.332
-0.0018533080237749583,1.333
-0.001979847709297498,1.334
-0.0018071755660139335,1.335
-0.0013335670494650546,1.336
-0.0006178086765984066,1.337
0.0002394934545396362,1.338
0.0011248369021337565,1.339
0.0019394777514142253,1.34
0.0026059617930497977,1.341
0.0030554931390263445,1.342
0.003228689329668714,1.343
0.003103033162446412,1.344
0.0027143840404971567,1.345
0.002144681902319478,1.346
0.0014973955653927965,1.347
0.0008741060219874268,1.348
0.00033629951623426896,1.349
-0.00012172798442242598,1.35
-0.0005489065086560838,1.351
-0.0009889955477134585,1.352
-0.001459857682108002,1.353
-0.0019603579797332826,1.354
-0.002471283278959801,1.355
-0.002945428447322923,1.356
-0.0033094216566448634,1.357
-0.003483483413016468,1.358
-0.0034047245973447293,1.359
-0.003040536294819419,1.36
-0.0023861374467399285,1.361
-0.0014567880954358267,1.362
-0.00029862166045283457,1.363
0.000985392671422976,1.364
0.0022327102876446513,1.365
0.003259965755485139,1.366
0.003920938196879985,1.367
0.004147345681856344,1.368
0.003942723141766646,1.369
0.0033448170299186287,1.37
0.0024143900364905885,1.371
0.001262734837449314,1.372
6.488985356735193e-05,1.373
-0.0009765547785909295,1.374
-0.001694710670918095,1.375
-0.002010263970519246,1.376
-0.0019529017777288188,1.377
-0.001646527755595327,1.378
-0.0012629160673607264,1.379
-0.0009611740424130011,1.38
-0.0008344033653375615,1.381
-0.0008817178560807746,1.382
-0.0010195225753516016,1.383
-0.0011313252641027107,1.384
-0.001124459805535829,1.385
-0.0009581681166634128,1.386
-0.0006442233613539312,1.387
-0.00023513135602679758,1.388
0.00020318225541600588,1.389
0.0006270069875148988,1.39
0.0010252347987410753,1.391
0.0013905053477661032,1.392
0.0016944126671563143,1.393
0.001914564743860267,1.394
0.002074941800237272,1.395
0.002225923222960253,1.396
0.0023813413179751847,1.397
0.0024845878570510216,1.398
0.0024256123826911597,1.399
0.0020960658707863764,1.4
0.0014624452521579479,1.401
0.0006027456377174626,1.402
-0.0003306907768277228,1.403
-0.0011835546736033123,1.404
-0.0018510668373626056,1.405
-0.0022915476062477635,1.406
-0.0025126672285204136,1.407
-0.0025503676048576275,1.408
-0.002455255596707524,1.409
-0.0022837963210878835,1.41
-0.0020895807842779765,1.411
-0.0019198437810307063,1.412
-0.0018113385396027733,1.413
-0.0017755629465145881,1.414
-0.001782434822666977,1.415
-0.0017601078169952283,1.416
-0.001622971940149731,1.417
-0.00131690712485734,1.418
-0.0008476153322118192,1.419
-0.00027363843029548087,1.42
0.0003253702041948142,1.421
0.0008840247250970112,1.422
0.0013653981774718175,1.423
0.0017523217812372006,1.424
0.002043046774123109,1.425
0.0022492352884688257,1.426
0.002376608798772592,1.427
0.00240865366861423,1.428
0.0023180684683323932,1.429
0.0020958757607141146,1.43
0.0017728409159060905,1.431
0.001412256579266694,1.432
0.0010759325765102232,1.433
0.0007869229720829503,1.434
0.0005116427211563598,1.435
0.0001802536475448145,1.436
-0.00025432878889200777,1.437
-0.0007648724774548261,1.438
-0.001257507117864123,1.439
-0.0016256002350931475,1.44
-0.0017963454518814571,1.441
-0.001748854657511745,1.442
-0.001508709097649419,1.443
-0.0011207431342284142,1.444
-0.000619438832692739,1.445
-2.886780658720959e-05,1.446
0.0006074342745868915,1.447
0.0012064474150544882,1.448
0.0016665566450245685,1.449
0.0019035310800564035,1.45
0.001863039805949376,1.451
0.0015186222569573448,1.452
0.0008758726879284774,1.453
-1.4609103407564228e-05,1.454
-0.0010407388916856182,1.455
-0.002031488822164906,1.456
-0.002792448743437608,1.457
-0.003150383266032961,1.458
-0.0029906459861429135,1.459
-0.002292958258442514,1.46
-0.0011527500934516148,1.461
0.00022680377315771778,1.462
0.001573950375351384,1.463
0.0026230692974659586,1.464
0.0032019859233980855,1.465
0.0032768017370111958,1.466
0.002932859379487124,1.467
0.0023202230790782727,1.468
0.0015909239157611882,1.469
0.0008447337458621325,1.47
0.00011099622092157264,1.471
-0.0006214173381867212,1.472
-0.0013591044350914309,1.473
-0.002082185133890222,1.474
-0.002745650925960915,1.475
-0.003291735004298509,1.476
-0.0036676330572060017,1.477
-0.0038344796580791992,1.478
-0.003760396978672622,1.479
-0.003414911372538815,1.48
-0.0027870593876817623,1.481
-0.0019204874555566191,1.482
-0.0009241762456031725,1.483
6.569558920375062e-05,1.484
0.0009472572165429104,1.485
0.001694002191154959,1.486
0.002346657056663449,1.487
0.002957942514779587,1.488
0.003530301671135504,1.489
0.003996537394408015,1.49
0.004253325889004447,1.491
0.004215395671654383,1.492
0.0038609205998188702,1.493
0.0032492593438061238,1.494
0.0024937446883270703,1.495
0.0017065132318800625,1.496
0.0009565690965865483,1.497
0.0002562681972729935,1.498
-0.0004274668336356222,1.499
-0.0011385878065027458,1.5
-0.001890650467382266,1.501
-0.002648736668032545,1.502
-0.0033353095457604363,1.503
-0.0038470335120129625,1.504
-0.004089355920755633,1.505
-0.004011146801257381,1.506
-0.003606532169979725,1.507
-0.0029021622659422047,1.508
-0.00195750420625052,1.509
-0.0008652205573672742,1.51
0.0002523469636906697,1.511
0.0012507133737710988,1.512
0.001998291672213047,1.513
0.0024229266542340195,1.514
0.0025249914370774483,1.515
0.0023605819980408367,1.516
0.002017993674882333,1.517
0.0015890239736810077,1.518
0.0011452460033069605,1.519
0.0007338030638573607,1.52
0.00038436971785220326,1.521
0.00011447063612803276,1.522
-7.027198418535164e-05,1.523
-0.00018109385858229034,1.524
-0.00024311363195313727,1.525
-0.0002716652492319902,1.526
-0.0002527654074254299,1.527
-0.0001590085500107407,1.528
1.4657633476641791e-05,1.529
0.00023632243526537986,1.53
0.0004587875739573174,1.531
0.0006466754863693524,1.532
0.0007789568720911024,1.533
0.0008389331204696248,1.534
0.0008018461661735696,1.535
0.0006200660961752583,1.536
0.00023434789343145247,1.537
-0.00037681102487604833,1.538
-0.0011564026245883751,1.539
-0.001972961657064643,1.54
-0.002650596437743455,1.541
-0.0030074318038326307,1.542
-0.0029115243114971536,1.543
-0.0023435909700808173,1.544
-0.0014227885226147825,1.545
-0.00037016933829266656,1.546
0.0005667837423723289,1.547
0.001191742431741143,1.548
0.0014161985893908643,1.549
0.0012738998497734226,1.55
0.0008907053731728157,1.551
0.00044421544654052214,1.552
0.00012971271119268494,1.553
0.00010134936678101005,1.554
0.0003920583670674681,1.555
0.0008903788795990013,1.556
0.0014072321106439881,1.557
0.001764683635866869,1.558
0.0018543440647192135,1.559
0.0016633592182226202,1.56
0.00125969824952703,1.561
0.0007439767857392521,1.562
0.00020087490438994203,1.563
-0.0003226886293495391,1.564
-0.000802116060644684,1.565
-0.0012127665071210514,1.566
-0.0015388096204594823,1.567
-0.0017868997892611482,1.568
-0.0019655463332898114,1.569
-0.0020551029032897057,1.57
-0.0020103111643360256,1.571
-0.0017915538441527867,1.572
-0.001392152042268499,1.573
-0.0008451892722153148,1.574
-0.0002179126673384161,1.575
0.0003992645495896067,1.576
0.0009101856799626797,1.577
0.0012334129773461675,1.578
0.0013200966175924344,1.579
0.0011724818593570547,1.58
0.0008617983053479245,1.581
0.0005177608221298174,1.582
0.00027376355711066126,1.583
0.00020731893749823265,1.584
0.00032622839220829554,1.585
0.000596422471394899,1.586
0.000968669473358227,1.587
0.0013828065896338997,1.588
0.001758784383256544,1.589
0.0020001659538172968,1.59
0.00202749666251688,1.591
0.0018108935863842877,1.592
0.0013741296054011849,1.593
0.0007918070815574609,1.594
0.00017743473148386702,1.595
-0.0003612255626625587,1.596
-0.0007691520359820977,1.597
-0.0010509001138434473,1.598
-0.0012478047907399036,1.599
-0.0014138218950970939,1.6
-0.001594600088878692,1.601
-0.0018071124513189141,1.602
-0.0020283128926793788,1.603
-0.002206213001817964,1.604
-0.0022896963886917523,1.605
-0.0022524494919138856,1.606
-0.002095609894967551,1.607
-0.0018337721876580415,1.608
-0.001485465907667496,1.609
-0.001083529242426728,1.61
-0.0006786686109053069,1.611
-0.00031587925175894456,1.612
-1.0088466065493164e-05,1.613
0.00026494810826603756,1.614
0.0005756799032691721,1.615
0.001004589274890448,1.616
0.0016109332379133981,1.617
0.0023939241012289766,1.618
0.0032673650063695836,1.619
0.004066159503366308,1.62
0.0045988410716063495,1.621
0.0047214169693756206,1.622
0.00437927175708607,1.623
0.003593252200037646,1.624
0.002425633219237256,1.625
0.000967039492744971,1.626
-0.0006565329171896881,1.627
-0.0022803357119206414,1.628
-0.0037194144390331977,1.629
-0.0048084787508606815,1.63
-0.005442927975863608,1.631
-0.005599082456313134,1.632
-0.0053211430970545575,1.633
-0.0046841038710431675,1.634
-0.003764397071006099,1.635
-0.0026327995314020334,1.636
-0.0013579223094214751,1.637
-1.7760657628200545e-05,1.638
0.0012878123796463852,1.639
0.0024502124485046815,1.64
0.003378825220192576,1.641
0.004003918816731407,1.642
0.004273999138312064,1.643
0.004172800957376033,1.644
0.0037288386446161096,1.645
0.003006584821047138,1.646
0.0021031181350095935,1.647
0.0011451078502751548,1.648
0.00026222221838948737,1.649
-0.00045872285784009557,1.65
-0.0010069306771439816,1.651
-0.0014316820592672756,1.652
-0.0017779234639447123,1.653
-0.0020316864479392248,1.654
-0.0021263584625123926,1.655
-0.0019938797632060206,1.656
-0.001619547640139391,1.657
-0.001065509022781903,1.658
-0.0004418433844264969,1.659
0.00014459070129521477,1.66
0.0006170246405890634,1.661
0.0009305803394519532,1.662
0.001066538441808617,1.663
0.0010156616392295154,1.664
0.000760337675282704,1.665
0.000285904017015829,1.666
-0.00038696619708126074,1.667
-0.0011782655841721616,1.668
-0.001938956089124341,1.669
-0.002470479394067763,1.67
-0.0025920935537009915,1.671
-0.002218194398222402,1.672
-0.0013868151458856363,1.673
-0.0002348417587741787,1.674
0.0010613280351954787,1.675
0.0023517569829180456,1.676
0.0035263458856840814,1.677
0.004469026534819642,1.678
0.005028215706628442,1.679
0.005049123934332958,1.68
0.004438301901487431,1.681
0.0032136351314596564,1.682
0.0015214224745351162,1.683
-0.0003833575344542311,1.684
-0.002202218185356967,1.685
-0.003679906371507808,1.686
-0.004660636301797155,1.687
-0.005102758880145415,1.688
-0.005077838168023347,1.689
-0.004752300551576883,1.69
-0.00432317735958799,1.691
-0.0039257250186124784,1.692
-0.0035775618220032896,1.693
-0.0031857894326176874,1.694
-0.00260104721163229,1.695
-0.0016959524159439313,1.696
-0.00042468641675298934,1.697
0.0011661242141869461,1.698
0.002948456537884,1.699
0.004712687466698867,1.7
0.006171041539876171,1.701
0.007006342330830482,1.702
0.006975156786317229,1.703
0.006019072253431861,1.704
0.004317449851016532,1.705
0.0022433550504555315,1.706
0.00024721238667176824,1.707
-0.001269985719773604,1.708
-0.002058073880217621,1.709
-0.002076775080397495,1.71
-0.001483323305759278,1.711
-0.0005453168872200183,1.712
0.0004666878948434708,1.713
0.0013446122828202195,1.714
0.00195528665031898,1.715
0.002228215339388268,1.716
0.0021432340179155596,1.717
0.001717662085551081,1.718
0.0009823742845656716,1.719
-3.9410929567196225e-05,1.72
-0.00132547346715039,1.721
-0.002832878237347634,1.722
-0.004489122945252022,1.723
-0.006181851129818972,1.724
-0.007729026166083447,1.725
-0.008866538430770255,1.726
-0.00929784732296419,1.727
-0.008790787770417008,1.728
-0.0072682672123117785,1.729
-0.004852400117949967,1.73
-0.0018412607613134922,1.731
0.001380043087050217,1.732
0.004442871098426218,1.733
0.007045775741253861,1.734
0.008953137008924158,1.735
0.009993144541788292,1.736
0.010075529430634398,1.737
0.00922304123652861,1.738
0.007597499390768063,1.739
0.005480630426331219,1.74
0.0032106478218376713,1.741
0.0011178688366275417,1.742
-0.0005341292993358496,1.743
-0.0016103149725910561,1.744
-0.0021348388642357537,1.745
-0.0022570163494495437,1.746
-0.0021788654762423267,1.747
-0.0020947821055182034,1.748
-0.002159385521959773,1.749
-0.0024730347305360143,1.75
-0.003064144884535321,1.751
-0.0038594455104845834,1.752
-0.0046787822733334915,1.753
-0.005283035892197071,1.754
-0.005440841846090499,1.755
-0.0049808040479223424,1.756
-0.0038373389398935064,1.757
-0.0020830709576386158,1.758
7.932255174701514e-05,1.759
0.0023567657657292043,1.76
0.0044104429372890325,1.761
0.005916644391931241,1.762
0.006654329918579761,1.763
0.006566666627052807,1.764
0.005742715575043548,1.765
0.004352489276363421,1.766
0.0026000138585849262,1.767
0.0007073656461001812,1.768
-0.001093212656192584,1.769
-0.0025818570803973796,1.77
-0.003590184846949927,1.771
-0.004037866414254995,1.772
-0.003948135240314912,1.773
-0.0034298024086102225,1.774
-0.002632955098465105,1.775
-0.00170963377016205,1.776
-0.0007936697592522899,1.777
1.697442639974896e-05,1.778
0.0006789311651592186,1.779
0.001201072804411827,1.78
0.0016198829283664044,1.781
0.0019773723614982153,1.782
0.0023128581159337952,1.783
0.0026582232178433184,1.784
0.003013742744784352,1.785
0.003312674513886143,1.786
0.003426514000046865,1.787
0.0032174035329446088,1.788
0.002581315122934568,1.789
0.0014614234456461065,1.79
-0.00012924308237638357,1.791
-0.002067073040889651,1.792
-0.004112888535620887,1.793
-0.005966344204618384,1.794
-0.007336027908102174,1.795
-0.00799457754371289,1.796
-0.007822643703989503,1.797
-0.00683252296040101,1.798
-0.005158000090102011,1.799
-0.0030206638553148036,1.8
-0.0006932897328709278,1.801
0.001535050910987382,1.802
0.0034072827946084613,1.803
0.0047590434849374965,1.804
0.005549583139429938,1.805
0.005827656408823279,1.806
0.005672822738128409,1.807
0.005182122306842497,1.808
0.004483660305733891,1.809
0.003712532190787623,1.81
0.002963189293208495,1.811
0.00227061462394293,1.812
0.0016278656776384291,1.813
0.001016565465326806,1.814
0.00042550798757523377,1.815
-0.00015019033868546647,1.816
-0.0007169054777772983,1.817
-0.0012851606207150022,1.818
-0.0018579987258931785,1.819
-0.00240527233337895,1.82
-0.0028570122673042776,1.821
-0.0031459947531548727,1.822
-0.0032650614896866433,1.823
-0.003271472939569738,1.824
-0.0032295386391751587,1.825
-0.0031520786204647148,1.826
-0.002985770647967743,1.827
-0.002636270901818837,1.828
-0.002018463673821464,1.829
-0.0011084595326819422,1.83
4.048220101229226e-05,1.831
0.001320739683682568,1.832
0.002592560054898709,1.833
0.003686846714630027,1.834
0.004412260893189619,1.835
0.004602829819172731,1.836
0.004200729500766398,1.837
0.0033054878000429015,1.838
0.0021406047815593745,1.839
0.0009772299075326229,1.84
6.851075672262872e-05,1.841
-0.0004089001884868991,1.842
-0.00041166998821143914,1.843
-4.8831790358866564e-05,1.844
0.0004637920527424504,1.845
0.0008826064158401464,1.846
0.0009998467054803941,1.847
0.0006944549963197243,1.848
-1.6378672905811992e-05,1.849
-0.0009703216344704367,1.85
-0.0019384585298764289,1.851
-0.002738406876882518,1.852
-0.0032914804511707187,1.853
-0.003605471259103365,1.854
-0.0037278408941573108,1.855
-0.0036984318181263937,1.856
-0.00351895492980583,1.857
-0.003160064238532121,1.858
-0.002595721980639738,1.859
-0.0018365619460865416,1.86
-0.0009541252825157341,1.861
-8.104548226212963e-05,1.862
0.0006433837303106941,1.863
0.0011529604989077102,1.864
0.0014747915291991242,1.865
0.0016769338719506883,1.866
0.001815341723653064,1.867
0.0019236645238974543,1.868
0.002028746886651161,1.869
0.002156479050120385,1.87
0.002316500039082416,1.871
0.002491136933960567,1.872
0.002646754622013986,1.873
0.0027542534008268248,1.874
0.0028029470595246717,1.875
0.002799700037536708,1.876
0.0027469238352761595,1.877
0.002610983441740021,1.878
0.002316737682724839,1.879
0.001787519996379833,1.88
0.001000826973835456,1.881
1.3737307243805766e-05,1.882
-0.0010537968802082178,1.883
-0.0020514002253170034,1.884
-0.0028286458767963125,1.885
-0.0032691159437838236,1.886
-0.003317925529189016,1.887
-0.0029945961163102765,1.888
-0.002402401956483469,1.889
-0.0017164744242031316,1.89
-0.0011327536639978077,1.891
-0.0008072034988112872,1.892
-0.0008138026044490417,1.893
-0.001127527195079487,1.894
-0.0016397541308104725,1.895
-0.0022008532019372833,1.896
-0.002660176939088611,1.897
-0.0028827574193986123,1.898
-0.002766217105810059,1.899
-0.0022818129239432043,1.9
-0.0015065506187546612,1.901
-0.0006003045262676721,1.902
0.00026569495775260885,1.903
0.0009773730744208065,1.904
0.0015017237283082045,1.905
0.0018668474274966202,1.906
0.0021214629412822142,1.907
0.002300457471772002,1.908
0.002419927362584974,1.909
0.0025027734273198113,1.91
0.002598054129664467,1.911
0.002753030741409497,1.912
0.0029617688174448063,1.913
0.0031587387912482335,1.914
0.0032651229595951022,1.915
0.0032348882372765985,1.916
0.003067808450121421,1.917
0.0027886338806717213,1.918
0.0024093140033957287,1.919
0.0019044341620155208,1.92
0.0012237298320739824,1.921
0.00034170633097875303,1.922
-0.0006914954983905586,1.923
-0.0017492181085407052,1.924
-0.0026845212159364797,1.925
-0.003400256458657051,1.926
-0.003886597918611734,1.927
-0.004201669171988007,1.928
-0.004419028972437527,1.929
-0.004589804902192825,1.93
-0.004717509439169496,1.931
-0.004734333270007381,1.932
-0.004516395744465728,1.933
-0.003949056415665181,1.934
-0.002994990720643684,1.935
-0.0017281579364690654,1.936
-0.0003205983476394434,1.937
0.0010167291581969593,1.938
0.0021039307280523237,1.939
0.002836619563445345,1.94
0.003200093513778855,1.941
0.0032555420552997445,1.942
0.003105515217267336,1.943
0.0028575556847099527,1.944
0.0025971764738415798,1.945
0.002375627788311912,1.946
0.0022112493958912466,1.947
0.0020911970471766913,1.948
0.0019773583361808833,1.949
0.0018270232341665396,1.95
0.0016136039341106744,1.951
0.0013331927948602006,1.952
0.0009951617326359099,1.953
0.0006055589435869063,1.954
0.00016882215483400776,1.955
-0.00029092570268994517,1.956
-0.0007224555640600481,1.957
-0.0010655046988758304,1.958
-0.0012728937008039084,1.959
-0.0013236373464950496,1.96
-0.0012281469414839412,1.961
-0.0010243772058977061,1.962
-0.0007692549235688025,1.963
-0.00053264334624526,1.964
-0.0003901409159104876,1.965
-0.00040502590293961744,1.966
-0.0006022431052505494,1.967
-0.0009536832649763162,1.968
-0.0013865386460440148,1.969
-0.001811214504586203,1.97
-0.002148255508518341,1.971
-0.002326622803900801,1.972
-0.002270051396161671,1.973
-0.001912772069918941,1.974
-0.0012430668448790286,1.975
-0.00034272625756448565,1.976
0.0006206694179514103,1.977
0.0014657872514294546,1.978
0.0020701025694567572,1.979
0.0023826559989329208,1.98
0.0024029705013965193,1.981
0.0021641927681454193,1.982
0.0017276397327272823,1.983
0.0011881862550927322,1.984
0.0006680020446961109,1.985
0.0002735935535411814,1.986
4.211285607032878e-05,1.987
-7.01077671605784e-05,1.988
-0.00014644033039069168,1.989
-0.0002554021500960807,1.99
-0.0004247745418579568,1.991
-0.0006479563625590652,1.992
-0.0008926644715691529,1.993
-0.0011051247052476071,1.994
-0.0012306567597834307,1.995
-0.00124086058705589,1.996
-0.001133016579243701,1.997
-0.0009054435612265217,1.998
-0.0005486280906532083,1.999
-6.25213689230606e-05,2.0
0.0005258035146074741,2.001
0.0011566086788432474,2.002
0.0017443566782325295,2.003
0.002200366883290251,2.004
0.002455119298778702,2.005
0.0024654211748221296,2.006
0.002219736404862634,2.007
0.0017432102482224428,2.008
0.0010918631708161492,2.009
0.0003411576608768625,2.01
-0.0004270309376584726,2.011
-0.0011351841833424233,2.012
-0.0017125863141158309,2.013
-0.002099552494973802,2.014
-0.002262347394002789,2.015
-0.0022081214226336967,2.016
-0.0019898291942602345,2.017
-0.001693292503663307,2.018
-0.0014025578114759106,2.019
-0.0011696092995230247,2.02
-0.0010078740496765304,2.021
-0.0008927517859878839,2.022
-0.0007677939586476612,2.023
-0.0005676823111074835,2.024
-0.00024201088901793075,2.025
0.00022977615159354775,2.026
0.0008274920801639327,2.027
0.0014969422280221903,2.028
0.0021679548703036405,2.029
0.002754712580086702,2.03
0.0031571503096950596,2.031
0.0032946274561810314,2.032
0.0031414740229626682,2.033
0.0027208075933108458,2.034
0.0020677957724713216,2.035
0.0012027032954223537,2.036
0.00014081283083108723,2.037
-0.0010630890486311492,2.038
-0.0022780812971834974,2.039
-0.003308639912640982,2.04
-0.003954926248841549,2.041
-0.0040948278273722554,2.042
-0.0037431444837522287,2.043
-0.003053518143947291,2.044
-0.002252402442873986,2.045
-0.0015336350396979255,2.046
-0.0009890937313104824,2.047
-0.0006121194433052048,2.048
-0.0003400865741708198,2.049
-0.00010315105873011642,2.05
0.0001417933901398527,2.051
0.00041004088374088513,2.052
0.0007069405965919522,2.053
0.0010414400827827943,2.054
0.001431211075073453,2.055
0.001887823864075134,2.056
0.002382581967323457,2.057
0.002832000131337389,2.058
0.003124156601144633,2.059
0.003159048114893716,2.06
0.0028792779498621433,2.061
0.0022975739596311096,2.062
0.0015109484475116766,2.063
0.0006669220569288356,2.064
-0.00010457134225624514,2.065
-0.0007339483480640601,2.066
-0.0012076082498132395,2.067
-0.0015402943900414843,2.068
-0.001747938873328632,2.069
-0.0018370761146411518,2.07
-0.0018166967751113748,2.071
-0.0017141676693442206,2.072
-0.0015765486684307414,2.073
-0.0014598556048661506,2.074
-0.001404718243641311,2.075
-0.0014026656524773926,2.076
-0.0013863093807111025,2.077
-0.0012637495169148026,2.078
-0.0009679361164707026,2.079
-0.0004711726712768455,2.08
0.00023591528975720375,2.081
0.0011419967738256903,2.082
0.0021693643606282864,2.083
0.0031490086859394446,2.084
0.003864063967363863,2.085
0.004127559628710901,2.086
0.0038455778752652537,2.087
0.0030529510175676643,2.088
0.0019152654134792912,2.089
0.0006794094758534721,2.09
-0.0004277123926594539,2.091
-0.0013020228415862615,2.092
-0.001990504688559368,2.093
-0.002621392139210952,2.094
-0.0032903547272974203,2.095
-0.003974898479112636,2.096
-0.004520983783027974,2.097
-0.004710544215440205,2.098
-0.004375599513468789,2.099
-0.003488110731709759,2.1
-0.0021699812190627463,2.101
-0.0006368687920665009,2.102
0.0008680214669775953,2.103
0.002125895109008482,2.104
0.002986514671948309,2.105
0.0033920258494769973,2.106
0.0033676837714627177,2.107
0.0030004740032833844,2.108
0.0024250491677089278,2.109
0.0017984665425551795,2.11
0.0012511688648968258,2.111
0.0008491599697897456,2.112
0.0005975521083780593,2.113
0.0004672836998962521,2.114
0.00041355380291734995,2.115
0.000380644550124407,2.116
0.00030683626264774746,2.117
0.0001340259995261658,2.118
-0.00018236708707413182,2.119
-0.0006589549710145026,2.12
-0.0012613554024370336,2.121
-0.0018871425464781167,2.122
-0.0023800747379187203,2.123
-0.0025832243100723257,2.124
-0.0024028101811599616,2.125
-0.0018462199053897966,2.126
-0.0010216878121367102,2.127
-0.00010065725152539671,2.128
0.0007398937772527598,2.129
0.0013581863274229763,2.13
0.0016628325082242376,2.131
0.0016277320591050809,2.132
0.0013073405161030463,2.133
0.0008322381685655629,2.134
0.0003796724952272693,2.135
0.00011740736969163155,2.136
0.00013499361742695933,2.137
0.0004061956418997735,2.138
0.0008073083586550475,2.139
0.0011783543584761261,2.14
0.001395820935570322,2.141
0.0014129673557915121,2.142
0.0012505379079020002,2.143
0.0009608115844950449,2.144
0.0005948140285039818,2.145
0.00019431714745909087,2.146
-0.0002029981475057513,2.147
-0.0005683503688861097,2.148
-0.0008887506840966556,2.149
-0.0011663386016230821,2.15
-0.0014107236689307047,2.151
-0.0016280138868383484,2.152
-0.0018109875247908063,2.153
-0.0019235746555472167,2.154
-0.0018976662098924078,2.155
-0.0016697441660528847,2.156
-0.001226138305989715,2.157
-0.0006154302738707971,2.158
6.459954954761257e-05,2.159
0.0006886856742388715,2.16
0.00113395328998358,2.161
0.0013115843964018239,2.162
0.0011860440241269977,2.163
0.0007839780664748132,2.164
0.00019938835371248456,2.165
-0.0004238127428476131,2.166
-0.0009472238231451279,2.167
-0.0012895436233251584,2.168
-0.0014230426745807266,2.169
-0.0013453496961839393,2.17
-0.00108067642285519,2.171
-0.000697040500834389,2.172
-0.00030310382385903057,2.173
-1.3049068008873959e-05,2.174
0.00010783327968740484,2.175
7.898544846259322e-05,2.176
-5.398365168959485e-06,2.177
-2.0244759903685517e-05,2.178
0.00014058932871187173,2.179
0.0005277746109637135,2.18
0.0011203958213914648,2.181
0.0018263639102344496,2.182
0.0024971027251306887,2.183
0.002972777693802611,2.184
0.0031495973761939355,2.185
0.0030101802979926795,2.186
0.002592450325525761,2.187
0.0019486146224000453,2.188
0.0011373217954340766,2.189
0.00023169746753429166,2.19
-0.0006825871403539368,2.191
-0.00151394581396941,2.192
-0.0021633048752092926,2.193
-0.002525766270227685,2.194
-0.002518789306919606,2.195
-0.0021255460427370538,2.196
-0.0014148262210863384,2.197
-0.0005163293320994283,2.198
0.0004365469248408538,2.199
0.0013501073424138994,2.2
0.0021626192400726364,2.201
0.002805721835260962,2.202
0.003174218457004101,2.203
0.003128300350083137,2.204
0.002543118199553771,2.205
0.001377511237232929,2.206
-0.00029884320826407675,2.207
-0.002332220545004424,2.208
-0.004510686964898147,2.209
-0.006549319597965926,2.21
-0.008077906884602632,2.211
-0.008698024119384603,2.212
-0.00812288972719068,2.213
-0.006341311561062033,2.214
-0.003677852582760447,2.215
-0.0006767822200445161,2.216
0.002097820621333784,2.217
0.0042184963583230825,2.218
0.005466831763026575,2.219
0.005833891987560491,2.22
0.0054808081006209744,2.221
0.004680783295259656,2.222
0.003741425202947111,2.223
0.0029222588096389527,2.224
0.0023707981673913407,2.225
0.0020903807366981597,2.226
0.0019610876774694397,2.227
0.0018200606442938636,2.228
0.0015517570080186577,2.229
0.0011224598915484212,2.23
0.0005546230523847479,2.231
-0.00011048738149934744,2.232
-0.0008327555556977799,2.233
-0.0015723441794794723,2.234
-0.0022687313463577137,2.235
-0.0028268677472431006,2.236
-0.0031349071123427485,2.237
-0.003099126213159748,2.238
-0.002679956606259845,2.239
-0.0019129680990089743,2.24
-0.0008958667874279955,2.241
0.00024071644094002736,2.242
0.0013488975057298275,2.243
0.0022714633181347,2.244
0.0028622386519782665,2.245
0.0030200309162268677,2.246
0.002717395284189106,2.247
0.0020047972068684555,2.248
0.0009925629008927536,2.249
-0.00017961551630050332,2.25
-0.0013809683771185024,2.251
-0.0025079655878681596,2.252
-0.003455445313880611,2.253
-0.004076373540203778,2.254
-0.004198612448998739,2.255
-0.0037074450328705905,2.256
-0.0026295873255685037,2.257
-0.0011570074060920288,2.258
0.0003998057770949549,2.259
0.0017073623512966663,2.26
0.002514923437514058,2.261
0.002731321343570917,2.262
0.0024534916017434844,2.263
0.001926338621184684,2.264
0.0014323143115577302,2.265
0.0011696297358856638,2.266
0.001195088514518486,2.267
0.0014485128939278902,2.268
0.0018085539266581062,2.269
0.0021388312588579033,2.27
0.00231815745257679,2.271
0.0022491156803156665,2.272
0.0018560199784237777,2.273
0.0010942397783660534,2.274
-2.8776173924724388e-05,2.275
-0.0014370088596788852,2.276
-0.002991443136566067,2.277
-0.004518129483514957,2.278
-0.00583861690314416,2.279
-0.0067833828967097925,2.28
-0.007197286199142713,2.281
-0.006972967930116262,2.282
-0.006104831047364797,2.283
-0.004694854769301847,2.284
-0.0028896596237817126,2.285
-0.0008191630491802451,2.286
0.0014000726794995558,2.287
0.003621605970416155,2.288
0.005658617593940769,2.289
0.007321597971224021,2.29
0.008452436561517429,2.291
0.008934730153483962,2.292
0.008718886162539134,2.293
0.007863326336125999,2.294
0.006527147684475979,2.295
0.004901456519268996,2.296
0.0031546805179872134,2.297
0.001426505210445315,2.298
-0.0001741992138482935,2.299
-0.0015840937126569432,2.3
-0.002785569661737083,2.301
-0.0037881434210393057,2.302
-0.004603011357131047,2.303
-0.0052226764742939,2.304
-0.00561710121872974,2.305
-0.005734105231119931,2.306
-0.005496917533523241,2.307
-0.004832773388751692,2.308
-0.003741999847512781,2.309
-0.0023499316121745172,2.31
-0.0008875656298078493,2.311
0.0003960592203709785,2.312
0.0013291475688403415,2.313
0.0018476656650453346,2.314
0.00197480001886827,2.315
0.0018159235329161091,2.316
0.0015523322851850611,2.317
0.0013737622619156497,2.318
0.0013744265942129605,2.319
0.001498801168128008,2.32
0.0015773765314895604,2.321
0.0014177887495231247,2.322
0.0008964065214152396,2.323
1.1149672126821174e-05,2.324
-0.001125150397552894,2.325
-0.0023385062328532017,2.326
-0.003447587320518495,2.327
-0.004284179543801409,2.328
-0.004702050132335453,2.329
-0.004597698636453156,2.33
-0.00392597986776705,2.331
-0.0027090752412529118,2.332
-0.0010475521864043813,2.333
0.0008933105305452843,2.334
0.002927338933674164,2.335
0.00488198896765354,2.336
0.0065963049614025816,2.337
0.00788055430255886,2.338
0.008486836316004484,2.339
0.008166003670066941,2.34
0.006777452286359454,2.341
0.0043666597664789985,2.342
0.0012215890680253702,2.343
-0.002107660974146496,2.344
-0.004926312751462217,2.345
-0.0066354858586747355,2.346
-0.006938373319980579,2.347
-0.005904778121084075,2.348
-0.003926116180053833,2.349
-0.0016097582721034266,2.35
0.0004080119680501157,2.351
0.0016931734642463999,2.352
0.0021467700394560557,2.353
0.0019624654514113797,2.354
0.0014733726378807737,2.355
0.0009885172872549912,2.356
0.0006776394296330477,2.357
0.0005311518295122198,2.358
0.00040361746217192003,2.359
0.0001249551516982911,2.36
-0.0003759659691533204,2.361
-0.0010174314605776139,2.362
-0.0016240460695531287,2.363
-0.002054407271602837,2.364
-0.0022853591107908316,2.365
-0.0023794644641916313,2.366
-0.002393566673306978,2.367
-0.0023329070730654555,2.368
-0.0021644071702924114,2.369
-0.0018429774419676905,2.37
-0.001331867732098709,2.371
-0.0006197721911056633,2.372
0.0002617757415376385,2.373
0.0012193371221042584,2.374
0.002099645527087303,2.375
0.0027437673719978768,2.376
0.0030656186665320505,2.377
0.003092490365343536,2.378
0.0029511141328586467,2.379
0.0028090573136239174,2.38
0.002790488605702997,2.381
0.00291389615805411,2.382
0.003084149257086449,2.383
0.0031384498813723377,2.384
0.002929237175086386,2.385
0.002392034250972505,2.386
0.0015446232265026703,2.387
0.00043145313167278746,2.388
-0.0009338012705111017,2.389
-0.00259570644222455,2.39
-0.00462665764195219,2.391
-0.0070241875820981495,2.392
-0.009581654672959974,2.393
-0.01181670312568735,2.394
-0.013052150270291656,2.395
-0.012682454744481219,2.396
-0.01047660065841702,2.397
-0.006696396512405676,2.398
-0.001980494930648857,2.399
0.002899949001123356,2.4
0.007292330199965264,2.401
0.010816766005560155,2.402
0.013364318638576761,2.403
0.014962635436434701,2.404
0.015613700846513487,2.405
0.015231846745900755,2.406
0.013723540644836793,2.407
0.011125079177194764,2.408
0.007680558539063136,2.409
0.0038069115411186643,2.41
-2.4034213985539592e-05,2.411
-0.003412728387831598,2.412
-0.0061081233009998735,2.413
-0.008020046525845417,2.414
-0.009205372739635412,2.415
-0.009854519464854345,2.416
-0.010229052326538311,2.417
-0.010520783505646196,2.418
-0.010720683058042644,2.419
-0.010619368420564965,2.42
-0.009957474935352918,2.421
-0.008594769401240755,2.422
-0.006560337742974037,2.423
-0.004003485292749896,2.424
-0.0011340154659884296,2.425
0.0018119884419212921,2.426
0.004574923772251662,2.427
0.00687330888618201,2.428
0.008465948100507279,2.429
0.009277405169168243,2.43
0.009475252154108415,2.431
0.009368070273097943,2.432
0.009182757449531212,2.433
0.00895254834070966,2.434
0.008595689499663706,2.435
0.00802013850154458,2.436
0.0071309712102916,2.437
0.005797081223673789,2.438
0.003863709860826793,2.439
0.001218875262252171,2.44
-0.0021344415844094375,2.441
-0.006054544939089441,2.442
-0.010290650097877831,2.443
-0.014497526839938478,2.444
-0.018172980744966597,2.445
-0.02058504475219131,2.446
-0.020879093393737513,2.447
-0.018449122891129377,2.448
-0.013324335701525407,2.449
-0.0062262842132705006,2.45
0.0017017952837979366,2.451
0.009235631940084869,2.452
0.015330631910589981,2.453
0.01930266725038602,2.454
0.02092708642242972,2.455
0.020400261877480553,2.456
0.01816468039911735,2.457
0.01471593052225364,2.458
0.010513908695423936,2.459
0.006017384205511834,2.46
0.0017319724174971825,2.461
-0.001859670053155464,2.462
-0.004459172335405976,2.463
-0.006062690754192947,2.464
-0.0069434070939963875,2.465
-0.007532783050108766,2.466
-0.008256046439035419,2.467
-0.009363196093128521,2.468
-0.010805845159218399,2.469
-0.012224354542012686,2.47
-0.013069827795658585,2.471
-0.012823143929781927,2.472
-0.011217504630980016,2.473
-0.008333948241167363,2.474
-0.0045126841179959805,2.475
-0.00018410940967757426,2.476
0.00424883075291281,2.477
0.008452383479697368,2.478
0.012142883896863596,2.479
0.015025752033049681,2.48
0.016740732009643208,2.481
0.016868626787961253,2.482
0.015055397810968723,2.483
0.011226985365522543,2.484
0.0057214090671016205,2.485
-0.0007902164727342858,2.486
-0.007508185703710445,2.487
-0.013653378148639629,2.488
-0.018474694304113574,2.489
-0.021202218526281867,2.49
-0.02112806006935373,2.491
-0.01787496258498535,2.492
-0.011672916793822975,2.493
-0.0034076438341160372,2.494
0.0055860292454368065,2.495
0.013845707662257642,2.496
0.020093153509719408,2.497
0.023445419516498103,2.498
0.0234976784589486,2.499
0.020344191120542067,2.5
0.014568098627884905,2.501
0.0071569509387181315,2.502
-0.0006331032286423554,2.503
-0.007438117173409436,2.504
-0.012064412939425357,2.505
-0.013863091534460371,2.506
-0.012952252753823194,2.507
-0.010092689373105935,2.508
-0.006290546206294266,2.509
-0.002436527699070777,2.51
0.0007855721260311137,2.511
0.002864537245528768,2.512
0.0035366078384710927,2.513
0.002903425659850752,2.514
0.0014097265878973096,2.515
-0.00034145513275582527,2.516
-0.0018280955895637017,2.517
-0.0027576923909783924,2.518
-0.0030574485695370654,2.519
-0.0028012557853921045,2.52
-0.0021844162880969233,2.521
-0.0015006727854428648,2.522
-0.001031955125999883,2.523
-0.0008895706286961712,2.524
-0.0009270604481809403,2.525
-0.0008115318683700237,2.526
-0.00024194791429948595,2.527
0.0008159408887398448,2.528
0.002045619005874636,2.529
0.002938027403979244,2.53
0.0031170569507187854,2.531
0.002577030527328404,2.532
0.0016317575396378777,2.533
0.0006540573020136267,2.534
-0.00016866749999576636,2.535
-0.000918997560113663,2.536
-0.0018651245758030924,2.537
-0.0032343724556857323,2.538
-0.004926620932818311,2.539
-0.006440960146024266,2.54
-0.007176069594288575,2.541
-0.006804794154720634,2.542
-0.005368292192549154,2.543
-0.0031273754961650122,2.544
-0.0003852155550333136,2.545
0.002616601027564906,2.546
0.0056994187528549714,2.547
0.008653896381628369,2.548
0.011150323664184662,2.549
0.012775453018157782,2.55
0.013197069034677423,2.551
0.012325621574669937,2.552
0.010358829776954041,2.553
0.0076900117090924714,2.554
0.004734202515390641,2.555
0.0017948060633312807,2.556
-0.0009341112587802901,2.557
-0.003267335925521952,2.558
-0.0049353604125701445,2.559
-0.00558814000305369,2.56
-0.00494670692213759,2.561
-0.0030668194978561367,2.562
-0.0006054783090100568,2.563
0.001072018656935436,2.564
0.00024443426691721606,2.565
-0.004199441320316066,2.566
-0.011754720700807854,2.567
-0.02018653615691072,2.568
-0.026470813044550172,2.569
-0.028108623612155992,2.57
-0.02408571473390849,2.571
-0.015077533217423712,2.572
-0.002974858661429728,2.573
0.00980492255966027,2.574
0.02086152135041885,2.575
0.028216907317205026,2.576
0.03070094337075332,2.577
0.028218448166100606,2.578
0.02168839097424816,2.579
0.012663350123180223,2.58
0.0028708688783747067,2.581
-0.006124932436175219,2.582
-0.013175005500853026,2.583
-0.01774881435856054,2.584
-0.01994394956892924,2.585
-0.020230702185364078,2.586
-0.019058373746813958,2.587
-0.016515973218266172,2.588
-0.012287323716630551,2.589
-0.006019211901866275,2.59
0.002142381214127046,2.591
0.011262775590942523,2.592
0.01981315674153216,2.593
0.026270719989391997,2.594
0.029734309312062054,2.595
0.03016307736734401,2.596
0.028181290037963224,2.597
0.024630600370559037,2.598
0.02013945250119755,2.599
0.014972624709739016,2.6
0.00914505215367459,2.601
0.0025333108252784866,2.602
-0.005075500138730313,2.603
-0.013803582810238165,2.604
-0.023388113642350612,2.605
-0.03299324848533324,2.606
-0.04122351025197799,2.607
-0.04639310477198053,2.608
-0.047046284498204916,2.609
-0.04247489991836764,2.61
-0.032969047201583515,2.611
-0.019750134546002846,2.612
-0.004624675384904038,2.613
0.01050751483640983,2.614
0.02402940681738113,2.615
0.03471132032472994,2.616
0.04163300509440745,2.617
0.044123096272819184,2.618
0.04185829163987059,2.619
0.03512973211718752,2.62
0.025047074024491543,2.621
0.01330947957944395,2.622
0.0015655875621345475,2.623
-0.009126515579455284,2.624
-0.018388063615343075,2.625
-0.02621200283793899,2.626
-0.03244743585518498,2.627
-0.03631505912893647,2.628
-0.0363176117550494,2.629
-0.03093948213793418,2.63
-0.01998834768393914,2.631
-0.005505187736573274,2.632
0.008845069584469832,2.633
0.019689565800728042,2.634
0.025640037135407565,2.635
0.02737423995732858,2.636
0.02632455146110035,2.637
0.02346605367368969,2.638
0.019235380089694932,2.639
0.014140909712076056,2.64
0.008987431520351181,2.641
0.004484981898254392,2.642
0.0009059551371048495,2.643
-0.001817255825352647,2.644
-0.0038360832256400597,2.645
-0.005267635142433229,2.646
-0.006177831976062537,2.647
-0.006584538315927059,2.648
-0.006494775278127896,2.649
-0.005976960268257951,2.65
-0.005209931115610206,2.651
-0.004464053103281098,2.652
-0.004043683331408534,2.653
-0.0042248502638589066,2.654
-0.005176823649707938,2.655
-0.006871554735699513,2.656
-0.009025366916185436,2.657
-0.011104655718872791,2.658
-0.012419850903577122,2.659
-0.012341579996892048,2.66
-0.01057869296450555,2.661
-0.007325862691332942,2.662
-0.0031441074914277103,2.663
0.0013367116392859085,2.664
0.005664477658047724,2.665
0.009625293801012463,2.666
0.013163468525697847,2.667
0.016246471770257606,2.668
0.018744230642661095,2.669
0.02040116241015763,2.67
0.020851316849563026,2.671
0.019573044779406787,2.672
0.015889965259162808,2.673
0.009178846853811425,2.674
-0.0007533607583963755,2.675
-0.01323831588599821,2.676
-0.026424058535337688,2.677
-0.03738164716746673,2.678
-0.04286992244799359,2.679
-0.04059405995904822,2.68
-0.03040745712998205,2.681
-0.01472434545351746,2.682
0.0022580935483204946,2.683
0.016158757388191045,2.684
0.023976720760567352,2.685
0.02492744906669026,2.686
0.020353183071499067,2.687
0.012879421733354187,2.688
0.005275310314784405,2.689
-0.00030982259474461447,2.69
-0.0025328278040727945,2.691
-0.0009159168262540955,2.692
0.004070952415830165,2.693
0.011169296104990479,2.694
0.01865217197382558,2.695
0.024560992674032937,2.696
0.027006811822619096,2.697
0.02477319833066096,2.698
0.017994011612173802,2.699
0.008338439995330389,2.7
-0.0015558454870379672,2.701
-0.009069247712198842,2.702
-0.01248691794879875,2.703
-0.01151528465743505,2.704
-0.007433724168426647,2.705
-0.00293217238917892,2.706
-0.0014672294664530995,2.707
-0.005875486762563086,2.708
-0.016661384465055717,2.709
-0.031218639390932435,2.71
-0.04474559499683654,2.711
-0.052266999628484655,2.712
-0.05063651699610263,2.713
-0.0396469730580427,2.714
-0.021847862189372555,2.715
-0.0013168234576347063,2.716
0.017916085220010085,2.717
0.033022378791888365,2.718
0.0426610821546261,2.719
0.04665945418327024,2.72
0.04566857822213922,2.721
0.04095160354363593,2.722
0.03407340364140452,2.723
0.02639119149696415,2.724
0.01865090897440079,2.725
0.01102041984729252,2.726
0.003382837960661497,2.727
-0.004479776038459937,2.728
-0.012794367076056704,2.729
-0.021607097461211942,2.73
-0.03054442532300329,2.731
-0.0386808910369259,2.732
-0.0445779484062567,2.733
-0.04651663830503946,2.734
-0.04298018406813896,2.735
-0.033381143569097944,2.736
-0.018638140044399565,2.737
-0.001044774803651645,2.738
0.016467583304215026,2.739
0.031114883075840753,2.74
0.040887523474153364,2.741
0.044987801210932425,2.742
0.04385911895209722,2.743
0.03873927019229372,2.744
0.031078394050410244,2.745
0.022214788454188214,2.746
0.013289749747934756,2.747
0.005158385629862331,2.748
-0.001668818526764752,2.749
-0.006958535492976575,2.75
-0.010711920524774482,2.751
-0.013177407227006064,2.752
-0.01480052389024129,2.753
-0.016137373455058984,2.754
-0.017783385231808467,2.755
-0.02027392309702877,2.756
-0.02385371656759482,2.757
-0.02806609635883729,2.758
-0.03146197610843253,2.759
-0.03196836995198436,2.76
-0.027896670288733237,2.761
-0.01879067737900075,2.762
-0.005513050479577432,2.763
0.010161334954820404,2.764
0.02590391513458117,2.765
0.03911572915342545,2.766
0.04738853439699885,2.767
0.04910930747130202,2.768
0.04399879910732193,2.769
0.03334306265515601,2.77
0.019657933710233798,2.771
0.005846583623992008,2.772
-0.005734674153967167,2.773
-0.013890049086842228,2.774
-0.01867991056106309,2.775
-0.02108447759949357,2.776
-0.022468955530605808,2.777
-0.024030384239461564,2.778
-0.02634529407504896,2.779
-0.029133656908818802,2.78
-0.03137020387043197,2.781
-0.031761308851569706,2.782
-0.029334242942979663,2.783
-0.02378975528395884,2.784
-0.015456128951803707,2.785
-0.004918059804702115,2.786
0.007308883333749172,2.787
0.02066078215370478,2.788
0.03418552274925367,2.789
0.0465034993252855,2.79
0.056067089073838824,2.791
0.06139327324114864,2.792
0.06120655991040763,2.793
0.054735512026405655,2.794
0.0422697807028787,2.795
0.02553508549468255,2.796
0.007348835430141087,2.797
-0.009335664682171466,2.798
-0.022437452344615756,2.799
-0.031378402514083546,2.8
-0.03715626290743176,2.801
-0.041799675155527946,2.802
-0.04728092486593232,2.803
-0.054325480621879134,2.804
-0.06176650132890229,2.805
-0.0667528275283544,2.806
-0.06578497479574644,2.807
-0.056392587578129906,2.808
-0.03864320506055473,2.809
-0.015263200492223995,2.81
0.009753028468239775,2.811
0.03278428021108139,2.812
0.051451800274725165,2.813
0.06461925305936708,2.814
0.07177588090620338,2.815
0.07238990680591262,2.816
0.06602919792999723,2.817
0.053261209986961364,2.818
0.03624381347952529,2.819
0.018177391406751044,2.82
0.002112039566420571,2.821
-0.009952277245541555,2.822
-0.017354430472206667,2.823
-0.020597091499987327,2.824
-0.020918968047377157,2.825
-0.019806440566763332,2.826
-0.018574327649085526,2.827
-0.018077465879387033,2.828
-0.018624756740937314,2.829
-0.02012352167977786,2.83
-0.022264928799960303,2.831
-0.024486388813392435,2.832
-0.025788516008116876,2.833
-0.024775862601356984,2.834
-0.020115031049847635,2.835
-0.011283460287860482,2.836
0.0007885763762182176,2.837
0.01375847252406563,2.838
0.024815914030418842,2.839
0.03192936173655837,2.84
0.03447311807217609,2.841
0.032986044314158046,2.842
0.02856779751031129,2.843
0.022363198112025064,2.844
0.015228888051362969,2.845
0.007654462352537774,2.846
-2.703410437549071e-05,2.847
-0.007373721120221393,2.848
-0.0138183389601438,2.849
-0.018896459477270453,2.85
-0.022427105726171546,2.851
-0.02443658857069627,2.852
-0.024934646539565473,2.853
-0.023826550995181817,2.854
-0.02109917204187112,2.855
-0.017102726550066304,2.856
-0.01258606791041867,2.857
-0.008324705816279355,2.858
-0.004555329087340437,2.859
-0.0006683656978289442,2.86
0.004476640517186802,2.861
0.01166513989218646,2.862
0.020485031892871382,2.863
0.02925040937484863,2.864
0.035772938022714335,2.865
0.038400506258042366,2.866
0.03666332282234176,2.867
0.031169195268986736,2.868
0.022878169959253833,2.869
0.012377914291411031,2.87
-0.00020895124853147825,2.871
-0.01465963134172346,2.872
-0.030003440708344372,2.873
-0.04433782892767717,2.874
-0.055168451402943935,2.875
-0.06003075595463184,2.876
-0.05714941191698242,2.877
-0.045954671260451795,2.878
-0.02738030853315912,2.879
-0.003879745544932004,2.88
0.02093288372213239,2.881
0.04296032722360938,2.882
0.058468966564599004,2.883
0.06496684107617787,2.884
0.061872356416144594,2.885
0.05063625364515601,2.886
0.0341991986692156,2.887
0.01612990049602041,2.888
-0.00021586542139470963,2.889
-0.012510773409005029,2.89
-0.019986162221160002,2.891
-0.02322735695517238,2.892
-0.023454556234230185,2.893
-0.02191884258588546,2.894
-0.019622799509117186,2.895
-0.017215190755718562,2.896
-0.014928165503268549,2.897
-0.012572947777320539,2.898
-0.009700584194968182,2.899
-0.005896829842762587,2.9
-0.0010441951845390983,2.901
0.004517639050463058,2.902
0.009918087765819492,2.903
0.0138354702686451,2.904
0.014822549737205482,2.905
0.011782026547958388,2.906
0.004379884731172566,2.907
-0.006646916505963264,2.908
-0.019317069546640423,2.909
-0.030583325571442964,2.91
-0.0369569776850771,2.911
-0.03550270783364151,2.912
-0.02505633850125245,2.913
-0.007093794355045634,2.914
0.014505982713603326,2.915
0.03479743847898926,2.916
0.04932624547866188,2.917
0.05509606631849873,2.918
0.050848422170109334,2.919
0.03703790064618141,2.92
0.015748520216626385,2.921
-0.009517293519110744,2.922
-0.034233849958459496,2.923
-0.05352372686903703,2.924
-0.0633485035628365,2.925
-0.061930155925482865,2.926
-0.05036939006075724,2.927
-0.03190651394287663,2.928
-0.010506569788889737,2.929
0.010253816861001214,2.93
0.02776558981563086,2.931
0.04070085599976269,2.932
0.04901185330976071,2.933
0.0533918077829627,2.934
0.05452300349557263,2.935
0.05269351734712048,2.936
0.04789182355489972,2.937
0.040075473417475804,2.938
0.029391888554555826,2.939
0.01638921232904282,2.94
0.002155583369773003,2.941
-0.011899409118483577,2.942
-0.02457125179302469,2.943
-0.03522203134185339,2.944
-0.043757249368967924,2.945
-0.050399502983393296,2.946
-0.05540102273762616,2.947
-0.058687898679577605,2.948
-0.059531723113788064,2.949
-0.05658224811435161,2.95
-0.04849999635927917,2.951
-0.03484968101695165,2.952
-0.01657816437517022,2.953
0.004211361294665761,2.954
0.024944276782554325,2.955
0.04324565313207346,2.956
0.057219747584454306,2.957
0.06545859748139586,2.958
0.06723537676630024,2.959
0.06289548088291062,2.96
0.053903551708531755,2.961
0.04229035443561748,2.962
0.029945110532283756,2.963
0.018224871090185956,2.964
0.007875862888898232,2.965
-0.0009349726972768454,2.966
-0.008543830966801802,2.967
-0.015576865941096694,2.968
-0.022583447089934882,2.969
-0.029659101994641907,2.97
-0.03624572098427727,2.971
-0.041254822487741316,2.972
-0.04344458551193105,2.973
-0.04180656080165145,2.974
-0.03584948514292357,2.975
-0.025798280238403387,2.976
-0.012695092633661214,2.977
0.0016044507361341626,2.978
0.01462419509215482,2.979
0.023811433013474957,2.98
0.027324154534171766,2.981
0.02465321076764439,2.982
0.016766786359917674,2.983
0.005802867901047202,2.984
