VaMe,time
-0.0005622597961141777,0.001
0.005862195938988908,0.002
0.010540297274045105,0.003
0.012211004958704584,0.004
0.010395972947156143,0.005
0.005470369687644685,0.006
-0.001431375584097064,0.007
-0.00873311091576162,0.008
-0.014935180858073714,0.009
-0.01904385998719504,0.01
-0.020682798943969752,0.011
-0.019959648847744114,0.012
-0.01727029919816621,0.013
-0.01315293549634191,0.014
-0.008212652303630245,0.015
-0.003078669940380318,0.016
0.001640927950786824,0.017
0.005425910789237411,0.018
0.007936434273844694,0.019
0.00908422435666526,0.02
0.009025639013878367,0.021
0.008091722172339442,0.022
0.006699327581428395,0.023
0.005256233656640636,0.024
0.004078962164677176,0.025
0.003348188952383793,0.026
0.0030838623490819306,0.027
0.0031311538189665493,0.028
0.003210176142345015,0.029
0.0030388333198084934,0.03
0.002443623213302537,0.031
0.0014030776556495396,0.032
3.381667253752793e-05,0.033
-0.001467162269634657,0.034
-0.0028826918621239718,0.035
-0.003999598345223179,0.036
-0.004635551378506684,0.037
-0.004700337423930553,0.038
-0.004248427125524953,0.039
-0.003474973472394704,0.04
-0.002646829175897905,0.041
-0.0019949309083420854,0.042
-0.0016092494932945134,0.043
-0.001377255614864016,0.044
-0.0010071378892072547,0.045
-0.00014474189534915882,0.046
0.0014549865273988302,0.047
0.003770577395599829,0.048
0.006457560147037184,0.049
0.008938548758549483,0.05
0.0106090430632868,0.051
0.01106911639734769,0.052
0.010234974901188527,0.053
0.008279147059287197,0.054
0.005516687663761007,0.055
0.002301776474184928,0.056
-0.0010767832422764467,0.057
-0.004452113409366274,0.058
-0.007755576005720663,0.059
-0.010938940267969164,0.06
-0.013873131267915123,0.061
-0.016264493332007513,0.062
-0.01763231356110076,0.063
-0.01739325926428603,0.064
-0.015097461540373901,0.065
-0.010732951800742454,0.066
-0.004850969527993289,0.067
0.0016114681024480756,0.068
0.007652388917338833,0.069
0.012470196508718874,0.07
0.015593853316126923,0.071
0.016866175710483506,0.072
0.016352751208101375,0.073
0.014312520452382344,0.074
0.011219940322525443,0.075
0.007665394474929263,0.076
0.004152495843687608,0.077
0.0010132968725646498,0.078
-0.001533282501951862,0.079
-0.0033441485339408355,0.08
-0.0043954891967786704,0.081
-0.004817400432799258,0.082
-0.004839107396745056,0.083
-0.004682854591961553,0.084
-0.004496406346132111,0.085
-0.004342963652857507,0.086
-0.004192856747727212,0.087
-0.0039085638938635425,0.088
-0.0033109544880489607,0.089
-0.002342737241638075,0.09
-0.0011632001360203366,0.091
-4.876924893232586e-05,0.092
0.0007792347061388075,0.093
0.0012276295087776936,0.094
0.0013024989731859546,0.095
0.0010553342097272137,0.096
0.0005576321114157242,0.097
-9.037396559412249e-05,0.098
-0.0007602110507876639,0.099
-0.0013187256135886894,0.1
-0.0016511397835999708,0.101
-0.0016806616173942856,0.102
-0.0013873357584459716,0.103
-0.0008182013718948984,0.104
-7.813098176728849e-05,0.105
0.0007103989149006695,0.106
0.0014626383744567404,0.107
0.0021502907267950087,0.108
0.0027620733169529932,0.109
0.0032504604374668476,0.11
0.003508806040165896,0.111
0.00338123975458437,0.112
0.0026999832154886755,0.113
0.001349278197491396,0.114
-0.0006425045587070063,0.115
-0.0030020551726316906,0.116
-0.005194290941126211,0.117
-0.006587295543259067,0.118
-0.006732576209084184,0.119
-0.005549073674864378,0.12
-0.003300348412058293,0.121
-0.00044383960792395,0.122
0.0025311206689691513,0.123
0.005203801624584326,0.124
0.007238507371132479,0.125
0.008361441668188082,0.126
0.00836093918419928,0.127
0.00714533661786353,0.128
0.004835499877524221,0.129
0.0017910944580542755,0.13
-0.0014856145924457458,0.131
-0.004486783501412791,0.132
-0.006788313415634535,0.133
-0.008091881393316484,0.134
-0.008249192784174976,0.135
-0.007270039856161839,0.136
-0.005311650710420365,0.137
-0.0026779600706644466,0.138
0.00017847516433705833,0.139
0.0027219125798729512,0.14
0.004475667554539019,0.141
0.005153019147370314,0.142
0.004717275897025396,0.143
0.0033818778126199606,0.144
0.0015476406048794266,0.145
-0.0003176886358981888,0.146
-0.001794967164763634,0.147
-0.002585703890098495,0.148
-0.0025567471262653413,0.149
-0.001765196058600133,0.15
-0.0004415550963333491,0.151
0.0010794053531665672,0.152
0.00245093205212512,0.153
0.0033874062186036702,0.154
0.0036893967197872838,0.155
0.003233225700427949,0.156
0.001983072307096426,0.157
5.255236848873456e-05,0.158
-0.0022406403902141686,0.159
-0.0044007597662036844,0.16
-0.005869398674362981,0.161
-0.00618751065952759,0.162
-0.005143138666261258,0.163
-0.0028466711920822206,0.164
0.00028116791404413164,0.165
0.003595676704504394,0.166
0.0063636939074417235,0.167
0.007926446820237737,0.168
0.00791305444685973,0.169
0.006427260052874991,0.17
0.0040078663376139625,0.171
0.0013675929150381155,0.172
-0.0008854560390426394,0.173
-0.002424972053422992,0.174
-0.0032502198197943226,0.175
-0.003609082667663361,0.176
-0.0038688935333650604,0.177
-0.004380072922799705,0.178
-0.005350791502928682,0.179
-0.006766424568659283,0.18
-0.008368483769461043,0.181
-0.00967530918592176,0.182
-0.010045392997776815,0.183
-0.00884299476033909,0.184
-0.005735173395370491,0.185
-0.0009609001749160797,0.186
0.004657145212831161,0.187
0.009985385683459557,0.188
0.013971623115973589,0.189
0.015953628304407982,0.19
0.015763589239223035,0.191
0.013663193075448582,0.192
0.010213201914593467,0.193
0.006142248004671298,0.194
0.002213010852626425,0.195
-0.0009538853614808574,0.196
-0.0030652146570314368,0.197
-0.0042217663266988,0.198
-0.004790040997905098,0.199
-0.005165475940238749,0.2
-0.005600650580021857,0.201
-0.006168299288540734,0.202
-0.006788591238289388,0.203
-0.0072763041815586986,0.204
-0.0074293740686670485,0.205
-0.007121046965306536,0.206
-0.006316875285172559,0.207
-0.005028520587065844,0.208
-0.0032869223971864116,0.209
-0.0011676550720980071,0.21
0.001162326181678994,0.211
0.003412786097353116,0.212
0.005193322698712244,0.213
0.006136434978920834,0.214
0.006074293556417332,0.215
0.005126552139842023,0.216
0.0036437400569399774,0.217
0.0020796161224931596,0.218
0.0008575133806580707,0.219
0.00025628701477349526,0.22
0.00034710736542607897,0.221
0.0010036743517905908,0.222
0.001963815923227213,0.223
0.002897946933151524,0.224
0.0034691836253644115,0.225
0.00340564199949979,0.226
0.0025949948287085907,0.227
0.0011550830379240342,0.228
-0.0005933744206563504,0.229
-0.0022569041263746045,0.23
-0.0035049728448816844,0.231
-0.004135679900832814,0.232
-0.004098895981557654,0.233
-0.0035050613453189642,0.234
-0.0025937816478404283,0.235
-0.0016494091238928037,0.236
-0.0009014557496553578,0.237
-0.0004699656711426445,0.238
-0.0003804074166515579,0.239
-0.0006124335651716558,0.24
-0.0011269860180732135,0.241
-0.001851480829073637,0.242
-0.0026486137045827955,0.243
-0.0033065132190641996,0.244
-0.0035692290203597015,0.245
-0.0031976349514546967,0.246
-0.002040277946274972,0.247
-0.0001176047860162652,0.248
0.00229168484941463,0.249
0.00465835009753041,0.25
0.0063924210747360035,0.251
0.007125393041977285,0.252
0.006870468080214031,0.253
0.005945976913017497,0.254
0.004749387825978993,0.255
0.003562272683059636,0.256
0.0024806077265477626,0.257
0.0014466669615691345,0.258
0.00033912313328964976,0.259
-0.000917793934154006,0.26
-0.002290617860510816,0.261
-0.003656011302707883,0.262
-0.004863791550575526,0.263
-0.005786304545229732,0.264
-0.0063342443576167315,0.265
-0.006444525074092317,0.266
-0.006064657711322433,0.267
-0.005165671419542607,0.268
-0.003790665004537069,0.269
-0.002100929086498379,0.27
-0.0003506922146944093,0.271
0.0012193016891439302,0.272
0.0024681252382345613,0.273
0.0033512135582025255,0.274
0.0038737815145686535,0.275
0.004049383427751713,0.276
0.0038833593206845708,0.277
0.0033998627908892643,0.278
0.002680701229148441,0.279
0.0018557599270506346,0.28
0.0010449625582573563,0.281
0.0003142281484939416,0.282
-0.00031454107645931755,0.283
-0.0008272485656012819,0.284
-0.0012099604891817207,0.285
-0.0014753847730832887,0.286
-0.0016597055782792398,0.287
-0.00176550114484818,0.288
-0.0017231543522588484,0.289
-0.0014252644020564568,0.29
-0.0008043905584079501,0.291
0.0001031566234102353,0.292
0.0011465430311816383,0.293
0.0021134478762001793,0.294
0.002817453421163359,0.295
0.0031620341019427314,0.296
0.0031477375138407866,0.297
0.0028388813674236606,0.298
0.0023285227781638415,0.299
0.00172098514770788,0.3
0.0011202609547836442,0.301
0.0006097351206711886,0.302
0.0002223941218088191,0.303
-8.354358958408467e-05,0.304
-0.00042466110448260026,0.305
-0.0009594643473260229,0.306
-0.0018154521470007282,0.307
-0.0029979237179494985,0.308
-0.00434018424175395,0.309
-0.005530841416336878,0.31
-0.006216245713088314,0.311
-0.006142847070965086,0.312
-0.005264975953652334,0.313
-0.003764359085852453,0.314
-0.001971864146104322,0.315
-0.00021405791372435944,0.316
0.0013275174384409442,0.317
0.00264177643011651,0.318
0.003783586252447386,0.319
0.004732206191460444,0.32
0.005352135444928314,0.321
0.005494282348279291,0.322
0.005102712646250527,0.323
0.004200311474696523,0.324
0.0028086783077104693,0.325
0.0009240930587044732,0.326
-0.001427007585039416,0.327
-0.004097386627123203,0.328
-0.006740829419785725,0.329
-0.008791150469943335,0.33
-0.009561302252793337,0.331
-0.008517136088267126,0.332
-0.005618057713446584,0.333
-0.0014489661471042087,0.334
0.00300452732446484,0.335
0.006777205157901675,0.336
0.009247868686841588,0.337
0.010215017239625274,0.338
0.009797520046709637,0.339
0.008299006333034877,0.34
0.006111850775403397,0.341
0.0036673904733262913,0.342
0.001369105477940236,0.343
-0.0005186218999050542,0.344
-0.001933417076146408,0.345
-0.0029629473694737962,0.346
-0.0037299650565143414,0.347
-0.004294548670954907,0.348
-0.004629318162615142,0.349
-0.004673906173114813,0.35
-0.004400041599219081,0.351
-0.003828367440142066,0.352
-0.003013445644262455,0.353
-0.002023027044194666,0.354
-0.0009159322359583762,0.355
0.00026689996056789337,0.356
0.001478396182950331,0.357
0.0026097328413193037,0.358
0.0034496288016256467,0.359
0.003733687556928324,0.36
0.003287859680168604,0.361
0.0021455155179876347,0.362
0.0005282629230523296,0.363
-0.0012657856346283162,0.364
-0.0029528130744067376,0.365
-0.004299589967295808,0.366
-0.005134193858149949,0.367
-0.005352273381266093,0.368
-0.004931205494721706,0.369
-0.003943996841127159,0.37
-0.002546658025923575,0.371
-0.0009453303922941714,0.372
0.0006298403509350605,0.373
0.0019523299190242027,0.374
0.0028532980066786266,0.375
0.003284615442963578,0.376
0.003339024080904675,0.377
0.003209654514650268,0.378
0.003113734376656002,0.379
0.003203189123821877,0.38
0.003494553346328208,0.381
0.0038588866897553485,0.382
0.004071840543044579,0.383
0.0038878503512569866,0.384
0.003121999433731887,0.385
0.001747769731579605,0.386
-4.0334356381243517e-05,0.387
-0.0018793671414545278,0.388
-0.003373428856898209,0.389
-0.004211913056646298,0.39
-0.004232440578676514,0.391
-0.003445862111780079,0.392
-0.00203127950537293,0.393
-0.0002926297739405039,0.394
0.0014134785386413983,0.395
0.002754470775384465,0.396
0.0034867303225595628,0.397
0.003508578129443772,0.398
0.00288955302774508,0.399
0.001835645181000074,0.4
0.0005939713710881238,0.401
-0.00063781281754808,0.402
-0.0017505553352099427,0.403
-0.002715461608876887,0.404
-0.0035542995204363038,0.405
-0.004304397306841364,0.406
-0.004984354353462518,0.407
-0.005568667806169516,0.408
-0.005986823645564757,0.409
-0.006143570010941585,0.41
-0.00593561402130705,0.411
-0.005267828868455042,0.412
-0.004083961735682805,0.413
-0.002399777595030737,0.414
-0.00032883142614463485,0.415
0.0019041752903340883,0.416
0.003991640241577765,0.417
0.005632214109204486,0.418
0.0066333467484145795,0.419
0.006945943454854882,0.42
0.00662178307591087,0.421
0.005767646731485203,0.422
0.00453593603196806,0.423
0.0031194731333510682,0.424
0.001730211738247686,0.425
0.0005734483728701861,0.426
-0.0001829008779621123,0.427
-0.0004510008914724966,0.428
-0.00026121518915628176,0.429
0.00022730828794214556,0.43
0.0007522884324925256,0.431
0.0010284424281349844,0.432
0.0008753131179581855,0.433
0.000306719590345444,0.434
-0.0004955627944117719,0.435
-0.0012833191747766094,0.436
-0.0018304199206043488,0.437
-0.001989765324504253,0.438
-0.0017313454565879333,0.439
-0.0011437536378320812,0.44
-0.0003976373008215383,0.441
0.0002977007324292807,0.442
0.0007317887389237946,0.443
0.0007338185388867797,0.444
0.00021750441778369206,0.445
-0.0007757511196875452,0.446
-0.002051919955862814,0.447
-0.003298287066731576,0.448
-0.004193277311725493,0.449
-0.004533620229941078,0.45
-0.004293693526456019,0.451
-0.003597278791374691,0.452
-0.002641524895006283,0.453
-0.001608022066067073,0.454
-0.0005974546989345258,0.455
0.0003738156010815749,0.456
0.0013184838121993924,0.457
0.002207335529990753,0.458
0.0029376075511225947,0.459
0.003368713134306948,0.46
0.003400622142617867,0.461
0.003044525897418299,0.462
0.0024390115912357366,0.463
0.0017912369873537577,0.464
0.0012761481238449325,0.465
0.0009574893906691286,0.466
0.0007792441572830744,0.467
0.0006305552879123643,0.468
0.00042349595849928246,0.469
0.00012799648315934788,0.47
-0.00023126891493092683,0.471
-0.0005996131774829537,0.472
-0.0009196401180278712,0.473
-0.0011393350424850075,0.474
-0.0012108656612405022,0.475
-0.0010985156170049207,0.476
-0.0007932743489748452,0.477
-0.0003323867681614564,0.478
0.0001740285481298455,0.479
0.0005400043706362699,0.48
0.0005657514325399521,0.481
0.0001451131699141272,0.482
-0.0006549537631239513,0.483
-0.0015991443125913324,0.484
-0.002368301518135724,0.485
-0.002677658581473262,0.486
-0.0023891562273693928,0.487
-0.0015742799975730234,0.488
-0.0004740785049116432,0.489
0.0006231945246022646,0.49
0.0014916426368193094,0.491
0.0020195283946991406,0.492
0.0022097551982225854,0.493
0.002130246424247189,0.494
0.0018662290049642305,0.495
0.0015254276573205751,0.496
0.0012419261720076308,0.497
0.0011197497751807156,0.498
0.0011543253358969427,0.499
0.0012161065851758746,0.5
0.0011353913854299322,0.501
0.0008244916701643294,0.502
0.0003293778176890913,0.503
-0.00021335875615065102,0.504
-0.0006497806985911621,0.505
-0.0008679736444618631,0.506
-0.0008418957233015651,0.507
-0.0006398605741555161,0.508
-0.0003863647910314585,0.509
-0.0002185089546410691,0.51
-0.00026721981420444135,0.511
-0.0006337528143590561,0.512
-0.0013317089209302004,0.513
-0.00223864735443923,0.514
-0.0031303041338638913,0.515
-0.0037817630174812123,0.516
-0.004046501615455072,0.517
-0.003868377988559586,0.518
-0.0032549227920551957,0.519
-0.0022549562685040482,0.52
-0.0009533685391086435,0.521
0.0005199527119041685,0.522
0.001975217394115216,0.523
0.003176062926473274,0.524
0.0039044595346909177,0.525
0.004044703396336902,0.526
0.003633491596935118,0.527
0.002847761682289534,0.528
0.0019391770388921931,0.529
0.0011514496603483133,0.53
0.0006496528972012103,0.531
0.0004692425862576554,0.532
0.0005067359640114625,0.533
0.0005751726878018194,0.534
0.0004903955542206348,0.535
0.00013761147443317292,0.536
-0.000498881560444465,0.537
-0.0013461017861498615,0.538
-0.0022753615045146406,0.539
-0.003127487383766987,0.54
-0.003729852875914119,0.541
-0.0039249889260939645,0.542
-0.003608324633673693,0.543
-0.002759315620423147,0.544
-0.001464944947370712,0.545
7.808088532438022e-05,0.546
0.0016054653843264113,0.547
0.0028595118490552995,0.548
0.0036680113043519084,0.549
0.003995845036201522,0.55
0.003927793069289038,0.551
0.003589365174747028,0.552
0.0030711592885969293,0.553
0.002410302956465342,0.554
0.0016277128393967799,0.555
0.0007763733138093785,0.556
-5.099819762875066e-05,0.557
-0.0007606296562042132,0.558
-0.0012911789749964445,0.559
-0.001607151271942036,0.56
-0.0016865508203913135,0.561
-0.0015464679614373023,0.562
-0.0012767481165625247,0.563
-0.0010175737928895176,0.564
-0.0008831501438172215,0.565
-0.0008908682653001954,0.566
-0.000944722281750287,0.567
-0.0008973235783820699,0.568
-0.0006731571780922246,0.569
-0.000355009828672098,0.57
-0.00013734576405033389,0.571
-0.0001902879721919685,0.572
-0.0005584905468514946,0.573
-0.0011488019983595245,0.574
-0.0017808712755668615,0.575
-0.0022588584265539335,0.576
-0.002426001494105023,0.577
-0.002187230537534611,0.578
-0.0015298309239580859,0.579
-0.0005511140777340269,0.58
0.0005504519759516028,0.581
0.0015330778593202748,0.582
0.002183745381923482,0.583
0.0023760947931030724,0.584
0.0021023169170563388,0.585
0.001469796566929248,0.586
0.000660524229434921,0.587
-0.00012639093399828622,0.588
-0.0007286462038074802,0.589
-0.0010597010973389586,0.59
-0.0011136807949217098,0.591
-0.000936437374525955,0.592
-0.0005926808750356038,0.593
-0.00014481963818372892,0.594
0.00036438418249150643,0.595
0.0009163418484429358,0.596
0.0014937766217992283,0.597
0.002052878083207337,0.598
0.00251871956623666,0.599
0.0028062023685525967,0.6
0.0028589217214042262,0.601
0.002678718366570855,0.602
0.0023104869330107507,0.603
0.0017940284827186192,0.604
0.00113393047468098,0.605
0.00031482293482144955,0.606
-0.0006597488845649339,0.607
-0.0017417196227159065,0.608
-0.0028349681208486915,0.609
-0.003803378139974623,0.61
-0.004490150613107805,0.611
-0.004753815236216194,0.612
-0.004510393847954978,0.613
-0.003754570410755276,0.614
-0.002547550219664487,0.615
-0.0009966838839206955,0.616
0.0007438822917040208,0.617
0.0024573031686372033,0.618
0.003861632404745836,0.619
0.00465369985226331,0.62
0.004608792944073723,0.621
0.0036841405798013226,0.622
0.002052349723994078,0.623
5.0211852688022435e-05,0.624
-0.001917987496224329,0.625
-0.0034867184264828883,0.626
-0.004414662426476119,0.627
-0.004612495143796338,0.628
-0.0041111964158539235,0.629
-0.0030214965461954984,0.63
-0.0015177897917082322,0.631
0.00017720140607886914,0.632
0.0018259821549649142,0.633
0.003215695846935281,0.634
0.004194514340259493,0.635
0.004690397832733394,0.636
0.004695549113317141,0.637
0.004234662485581389,0.638
0.0033502864623044856,0.639
0.0021152425367151222,0.64
0.0006548742002753341,0.641
-0.0008522025080633858,0.642
-0.002204445967835066,0.643
-0.0032145042942081517,0.644
-0.0037409661208672317,0.645
-0.003725375326020462,0.646
-0.003226282160288541,0.647
-0.002418104015012095,0.648
-0.0015382330002861526,0.649
-0.0008087236696230927,0.65
-0.00037455584605831504,0.651
-0.0002708668463301279,0.652
-0.00041615416224010835,0.653
-0.0006424932252984423,0.654
-0.0007610085673117365,0.655
-0.0006338569635159957,0.656
-0.00022333726382115274,0.657
0.0004009908995420245,0.658
0.0010972180076485665,0.659
0.0017014481189317377,0.66
0.002068601298304405,0.661
0.002110648739354868,0.662
0.0018410776474393454,0.663
0.001386660418197445,0.664
0.0009288761049860756,0.665
0.0006195129819668276,0.666
0.0005359320180090706,0.667
0.0006646476394049399,0.668
0.000891249937307163,0.669
0.001038336823762432,0.67
0.0009563340413897417,0.671
0.0005896932752117022,0.672
-2.0750008323137968e-05,0.673
-0.0007682282424195559,0.674
-0.001516607779770849,0.675
-0.00213276350930482,0.676
-0.0025111010927123902,0.677
-0.002598948305468577,0.678
-0.002420515672961051,0.679
-0.002073201549747283,0.68
-0.001680640304227994,0.681
-0.0013361369604499836,0.682
-0.0010803734637154345,0.683
-0.0009063453327214962,0.684
-0.0007692908009743105,0.685
-0.0005994781083155238,0.686
-0.0003205991162560402,0.687
0.000123014667357409,0.688
0.0007440390585672018,0.689
0.0015089225382933747,0.69
0.0023373298109448516,0.691
0.0030989693928472357,0.692
0.0036377633780079865,0.693
0.00383488952892582,0.694
0.003669342297351617,0.695
0.0032225728403758366,0.696
0.002620004366406338,0.697
0.0019590761315985516,0.698
0.0012817780272119748,0.699
0.0005990313360863512,0.7
-7.22927834998846e-05,0.701
-0.0006949026885433706,0.702
-0.0012190015451167822,0.703
-0.0015943447366798423,0.704
-0.001787554078505114,0.705
-0.0018135662436865579,0.706
-0.00175711674434097,0.707
-0.0017480730555023759,0.708
-0.0018977041250187044,0.709
-0.0022389701061601994,0.71
-0.0027098992948589883,0.711
-0.0031905048711772877,0.712
-0.0035580582859127017,0.713
-0.003719280828869471,0.714
-0.0036225490536377666,0.715
-0.003264058569523313,0.716
-0.0026843240938549165,0.717
-0.0019554907214618476,0.718
-0.0011601542145898848,0.719
-0.0003622478107997079,0.72
0.0004131617136000942,0.721
0.0011739459450670643,0.722
0.0019331034756598872,0.723
0.0026776932397820593,0.724
0.0033582674743483465,0.725
0.003912105620275218,0.726
0.004293620228076256,0.727
0.0044818280903458916,0.728
0.004479540169619511,0.729
0.004309412836040288,0.73
0.003986053137774002,0.731
0.0034845783513690475,0.732
0.002749727409272068,0.733
0.0017462325510066486,0.734
0.0005129308726396608,0.735
-0.0008152283876290009,0.736
-0.0020387413864148968,0.737
-0.0029730402752855723,0.738
-0.003523181438078507,0.739
-0.0037022924971101727,0.74
-0.0036031648279509737,0.741
-0.003352284146193129,0.742
-0.0030598591529858786,0.743
-0.0027875308261574878,0.744
-0.002547074445929268,0.745
-0.002311917110837918,0.746
-0.002023031345662579,0.747
-0.001600728817399474,0.748
-0.0009812630038929361,0.749
-0.0001613943801052031,0.75
0.0007872801464399243,0.751
0.0017395540814315962,0.752
0.002550926300796604,0.753
0.0030930856045015822,0.754
0.0032813680150384533,0.755
0.003091695390922171,0.756
0.0025761760243585563,0.757
0.0018597063782526816,0.758
0.0011008185343487783,0.759
0.00044631782574555337,0.76
1.5368027101012562e-06,0.761
-0.0001967903374368035,0.762
-0.00019566438327543495,0.763
-0.0001005682511328085,0.764
-2.7092005453132382e-05,0.765
-7.210650296576759e-05,0.766
-0.00029974736753675277,0.767
-0.000717787506304522,0.768
-0.001266398265717068,0.769
-0.0018389762598849243,0.77
-0.0023117768810526525,0.771
-0.002572691097849466,0.772
-0.0025498732447200236,0.773
-0.002229293316196736,0.774
-0.0016630399720679052,0.775
-0.000955353843714684,0.776
-0.0002116597860080084,0.777
0.0005046310483582678,0.778
0.001163084952534554,0.779
0.0017320363807200052,0.78
0.0021591642841037473,0.781
0.0023688227493352683,0.782
0.0022762647137918313,0.783
0.0018319681572169717,0.784
0.0010827784036318978,0.785
0.00019420798920877496,0.786
-0.000605758761460231,0.787
-0.0011234385542855277,0.788
-0.001266035680250355,0.789
-0.0010498498119892897,0.79
-0.0005664383178844346,0.791
6.053026799012407e-05,0.792
0.0007059305981577026,0.793
0.0012594658623906643,0.794
0.0016302641272601605,0.795
0.00174920243427238,0.796
0.0015793084294067306,0.797
0.0011276141018443985,0.798
0.00044595975474334877,0.799
-0.00038362914618561713,0.8
-0.001264254773959196,0.801
-0.0020832906192435356,0.802
-0.002714926846328994,0.803
-0.0030533928673908564,0.804
-0.0030616076825046154,0.805
-0.0027906792892340203,0.806
-0.0023507810231598804,0.807
-0.001863843510629608,0.808
-0.0014284859712309877,0.809
-0.0010918292581332935,0.81
-0.000827610032983051,0.811
-0.0005470009807958339,0.812
-0.00015456129262690133,0.813
0.000384155342669092,0.814
0.0010150993285407267,0.815
0.0016253207936109105,0.816
0.0020993423445430305,0.817
0.0023680499803892764,0.818
0.002440977867353214,0.819
0.002403126308450994,0.82
0.0023503059440723286,0.821
0.002309496059409356,0.822
0.002229244028591624,0.823
0.002036528610873411,0.824
0.0016977811051932892,0.825
0.0012491483514159027,0.826
0.0007780327578883849,0.827
0.0003677782220565492,0.828
5.4042147669622626e-05,0.829
-0.00017833625491626526,0.83
-0.00037043336877615564,0.831
-0.0005648736699876705,0.832
-0.0007959931884399183,0.833
-0.0010855962383108557,0.834
-0.001433480536892543,0.835
-0.0018003031519907974,0.836
-0.002093867689797389,0.837
-0.0021894475575131816,0.838
-0.0019935596759717076,0.839
-0.0015053251873300172,0.84
-0.0008233417305929809,0.841
-9.561022765958137e-05,0.842
0.0005425391997973319,0.843
0.0009991379957164067,0.844
0.0012295211305647009,0.845
0.0012361191261749485,0.846
0.0010649575127199033,0.847
0.0007904854332100784,0.848
0.00048438325626885674,0.849
0.00018231750574940208,0.85
-0.0001287209275746173,0.851
-0.0004987855781111698,0.852
-0.000979860686857319,0.853
-0.0015711502475147848,0.854
-0.002181825951377603,0.855
-0.0026586978252105507,0.856
-0.00286773223592807,0.857
-0.0027606115613907083,0.858
-0.0023820663356544517,0.859
-0.00182945413128384,0.86
-0.001200691393611854,0.861
-0.0005665722587858997,0.862
2.1987032753131206e-05,0.863
0.0005151095756213255,0.864
0.0008667462900356343,0.865
0.0010635309929575795,0.866
0.001144646793432638,0.867
0.001188745270892801,0.868
0.0012834154099543448,0.869
0.0014976386591726456,0.87
0.0018616998327464428,0.871
0.0023489826314698745,0.872
0.002863246836129498,0.873
0.00325499477954217,0.874
0.003371868249911577,0.875
0.0031136106140300227,0.876
0.002473238332988894,0.877
0.0015566385642048213,0.878
0.0005536168835170279,0.879
-0.00034326635481538324,0.88
-0.0010190082685890534,0.881
-0.001456457323765441,0.882
-0.0016900954771700127,0.883
-0.0017459172656270926,0.884
-0.0016182108912233385,0.885
-0.0012879928684734216,0.886
-0.0007673353132472121,0.887
-0.00013584936476639258,0.888
0.0004704211979956142,0.889
0.0009082907736892139,0.89
0.0010710019605365095,0.891
0.0009083730788711495,0.892
0.0004313268335274227,0.893
-0.0002974505231259771,0.894
-0.0011883245644327748,0.895
-0.002146160908092198,0.896
-0.003058944138113023,0.897
-0.0037739011774510886,0.898
-0.004118479198499511,0.899
-0.0039658607488774,0.9
-0.003295060641857926,0.901
-0.0022094651002552233,0.902
-0.000901978809237477,0.903
0.00040694388409546177,0.904
0.001514411139670282,0.905
0.0022618290678765715,0.906
0.002566320893762969,0.907
0.002447220882765517,0.908
0.0020167513567749353,0.909
0.001423523053045606,0.91
0.0007790636414462593,0.911
0.0001269970148765368,0.912
-0.0005236552404660078,0.913
-0.0011469320072213399,0.914
-0.0016717148099182242,0.915
-0.001981079266930508,0.916
-0.0019474473899277582,0.917
-0.001501417793588338,0.918
-0.000684012621666546,0.919
0.00036550054285382645,0.92
0.0014640378064118946,0.921
0.0024312793964107377,0.922
0.0031225746849315875,0.923
0.0034602019492806137,0.924
0.003448745583529201,0.925
0.003163569599587926,0.926
0.0027234039836511884,0.927
0.0022486355415047453,0.928
0.0018115093247126248,0.929
0.0014165856201402492,0.93
0.0010294651681296316,0.931
0.0006228273247462312,0.932
0.00020790715550340747,0.933
-0.00016360241070904433,0.934
-0.0004341573208336357,0.935
-0.0005951496914770299,0.936
-0.0007132030043157245,0.937
-0.0008921894898196859,0.938
-0.0012084805632148728,0.939
-0.0016812345372045074,0.94
-0.0022810715436084044,0.941
-0.002952123183896998,0.942
-0.0036357098233541886,0.943
-0.004282799979648249,0.944
-0.004844632552243222,0.945
-0.005253978241380432,0.946
-0.005420541808183996,0.947
-0.005244059660872397,0.948
-0.00463399687030084,0.949
-0.003533113360680239,0.95
-0.0019453909966822976,0.951
4.433524635305308e-05,0.952
0.0022701428893964893,0.953
0.004492766932197895,0.954
0.00641661220137381,0.955
0.007744466724608507,0.956
0.00826034338352725,0.957
0.007888827118869842,0.958
0.006709858784866784,0.959
0.004940486322533128,0.96
0.002889615267468753,0.961
0.0008918511056281276,0.962
-0.000765398027245684,0.963
-0.0019038696440133996,0.964
-0.002482453286537633,0.965
-0.0025747106523322746,0.966
-0.0023190047447950567,0.967
-0.0018843220140348452,0.968
-0.0014495292292792832,0.969
-0.0011745248744423386,0.97
-0.0011676396722588188,0.971
-0.0014545882793075427,0.972
-0.0019624006461451795,0.973
-0.0025398078628845705,0.974
-0.003009484518590971,0.975
-0.003232252430658189,0.976
-0.0031544013101563453,0.977
-0.0028016411291957276,0.978
-0.0022266675953574407,0.979
-0.0014646290043424024,0.98
-0.0005278517607179077,0.981
0.000566495035088272,0.982
0.0017561041372174209,0.983
0.0029208416304214503,0.984
0.003925193949929596,0.985
0.004674885135529602,0.986
0.005118780662584748,0.987
0.005202709775138149,0.988
0.004851813479417602,0.989
0.00401247323110203,0.99
0.0027069689504293027,0.991
0.0010545946298659591,0.992
-0.0007446817023975552,0.993
-0.0024472885037458013,0.994
-0.0038145051666184575,0.995
-0.004674313309839589,0.996
-0.0049766535997940505,0.997
-0.004797172384972355,0.998
-0.0042852232572474,0.999
-0.0036028670750901425,1.0
-0.0028848007037669374,1.001
-0.0022175455059291,1.002
-0.0016311537971127285,1.003
-0.00110468666534299,1.004
-0.0005895758660043013,1.005
-3.5997096596363064e-05,1.006
0.0005917181539713043,1.007
0.001304020198375638,1.008
0.002081406781892262,1.009
0.0028817140131983184,1.01
0.003639515286219805,1.011
0.004252307351177745,1.012
0.004596597182512373,1.013
0.0045850480152253015,1.014
0.0042088332001325975,1.015
0.0035280409238701987,1.016
0.0026265741013808525,1.017
0.0015745832451688167,1.018
0.0004251155321880066,1.019
-0.0007759662556608279,1.02
-0.001983224861367367,1.021
-0.0031377513187065835,1.022
-0.004153114338254777,1.023
-0.00491757869689915,1.024
-0.005316539376517747,1.025
-0.005265871482540178,1.026
-0.004743268560594577,1.027
-0.0038094903435557186,1.028
-0.002606204147499844,1.029
-0.0013219501102552812,1.03
-0.0001384764353677994,1.031
0.000815606209867027,1.032
0.0014840914095294601,1.033
0.001875518689772634,1.034
0.002037944211243995,1.035
0.002035664879010859,1.036
0.0019401634907904829,1.037
0.001820161636201331,1.038
0.001727573577080989,1.039
0.0016966137161303976,1.04
0.00174754206739963,1.041
0.0018748177155979767,1.042
0.002025725144756307,1.043
0.0020965499648025084,1.044
0.001978648887126851,1.045
0.0016309141487228294,1.046
0.0010971551516100295,1.047
0.0004622474469598094,1.048
-0.00018305407088721863,1.049
-0.000750635138027251,1.05
-0.0011676811541587828,1.051
-0.0014021555306672848,1.052
-0.0014754946269199692,1.053
-0.0014441304906594346,1.054
-0.0013708319654473144,1.055
-0.001307453157612407,1.056
-0.001281202451472962,1.057
-0.0012814922470806558,1.058
-0.0012656166151733194,1.059
-0.0011878597971579322,1.06
-0.0010227713218255955,1.061
-0.0007623071665593355,1.062
-0.00040952707746663486,1.063
8.289694166883732e-06,1.064
0.0004180113703260297,1.065
0.0007010485988106076,1.066
0.0007394912687155917,1.067
0.0004808176566457519,1.068
-3.969658835317788e-05,1.069
-0.0007234993751310425,1.07
-0.0014334205202721113,1.071
-0.002004121699114278,1.072
-0.002256483811817862,1.073
-0.002031568556841016,1.074
-0.0012521969471474775,1.075
1.1197037004823808e-05,1.076
0.0015296078524616604,1.077
0.0029984655424212677,1.078
0.004163199634199459,1.079
0.004884545894506589,1.08
0.005123724530954915,1.081
0.004901163817246668,1.082
0.004249872827601583,1.083
0.0031798630411086558,1.084
0.0016984122595345606,1.085
-0.00012610252586690263,1.086
-0.0021322796028227613,1.087
-0.0040970711522195025,1.088
-0.0057890661507010305,1.089
-0.00699965363224391,1.09
-0.007561236514940804,1.091
-0.007379756619628675,1.092
-0.0064677006595625286,1.093
-0.004953457062443084,1.094
-0.0030651699979622714,1.095
-0.0010820141934193065,1.096
0.0007405761069180663,1.097
0.002230762290764914,1.098
0.003321056085449156,1.099
0.004034287546774198,1.1
0.004438120613046735,1.101
0.004595403556888637,1.102
0.004557631729294409,1.103
0.004392202944668078,1.104
0.0041869885814751606,1.105
0.004018590022020966,1.106
0.003906792576151756,1.107
0.0037734826405942095,1.108
0.0034486903866933353,1.109
0.0027549753543983395,1.11
0.001613565021021387,1.111
9.102453262436406e-05,1.112
-0.0016292773507557308,1.113
-0.003317675976603705,1.114
-0.004761631752293285,1.115
-0.00579733423428947,1.116
-0.006327418170209287,1.117
-0.006331851838770219,1.118
-0.005861740104615202,1.119
-0.00502158565311112,1.12
-0.003947657018591357,1.121
-0.002780344221957169,1.122
-0.0016238890941303757,1.123
-0.0005078500054911041,1.124
0.0006073828080195421,1.125
0.0017734075049214745,1.126
0.0029889850246917144,1.127
0.004167865599135119,1.128
0.005155772441524484,1.129
0.0057861939046959625,1.13
0.005937107823056087,1.131
0.005559978321778086,1.132
0.004684253388744212,1.133
0.0034099312794892154,1.134
0.0018920572327869721,1.135
0.00031634559900594255,1.136
-0.0011335943124306525,1.137
-0.0023117952533442203,1.138
-0.0031365884748204742,1.139
-0.0035957460639643272,1.14
-0.0037261198003356592,1.141
-0.0035810991133782655,1.142
-0.003208646785265233,1.143
-0.0026509323997712855,1.144
-0.0019626897564141922,1.145
-0.0012363544756408182,1.146
-0.0006075578813232267,1.147
-0.00022076956517031707,1.148
-0.00016570797177813907,1.149
-0.0004227181729279794,1.15
-0.0008607980092090677,1.151
-0.0012936751899457243,1.152
-0.001551854379671303,1.153
-0.0015275388219717493,1.154
-0.001186324683623754,1.155
-0.0005640376783432134,1.156
0.0002461265758661284,1.157
0.0011148037072971294,1.158
0.0018987912921988506,1.159
0.002473438680470964,1.16
0.0027678825804829782,1.161
0.002771912298123217,1.162
0.002515539776781287,1.163
0.0020451997876750638,1.164
0.0014125745364234898,1.165
0.0006840804771243114,1.166
-5.1304526847006785e-05,1.167
-0.0007050187539429766,1.168
-0.0012205675937217904,1.169
-0.0015713581813972984,1.17
-0.0017305349391770225,1.171
-0.0016594005259754022,1.172
-0.0013341268223568317,1.173
-0.0007767272884011595,1.174
-5.64415342446366e-05,1.175
0.0007382694227567663,1.176
0.0015357536847697977,1.177
0.0022871007955119716,1.178
0.002928958812572613,1.179
0.003354838735708732,1.18
0.0034466988221410464,1.181
0.003137539575459049,1.182
0.0024391560854672674,1.183
0.001424975100033115,1.184
0.00019498419849341324,1.185
-0.0011595758231781076,1.186
-0.0025682671934581422,1.187
-0.003958227414902515,1.188
-0.005219183814168767,1.189
-0.006182905037183168,1.19
-0.00663548945811097,1.191
-0.00637974444028446,1.192
-0.005332921892067773,1.193
-0.0035948056994667835,1.194
-0.0014202721280066801,1.195
0.0008789779532833002,1.196
0.0030119154947526165,1.197
0.004739916929400598,1.198
0.005899462696842945,1.199
0.0064196895532999745,1.2
0.006321773859823993,1.201
0.005709015207014321,1.202
0.0047506307967987065,1.203
0.0036407064415700345,1.204
0.0025317369697804193,1.205
0.0014899120673119053,1.206
0.0005084562628693885,1.207
-0.0004547244946864448,1.208
-0.0014460643941297498,1.209
-0.002477503498016296,1.21
-0.0035007840454467825,1.211
-0.004424934237988167,1.212
-0.005139652113590835,1.213
-0.005522406540165689,1.214
-0.005468516117654978,1.215
-0.004946605295039383,1.216
-0.0040310699729493,1.217
-0.0028869619711470733,1.218
-0.0017155014777000507,1.219
-0.0006832482941281796,1.22
0.00013412609432891085,1.221
0.0007695625293431492,1.222
0.001333273212825181,1.223
0.0019376821407395086,1.224
0.0026086256379658757,1.225
0.0032371004752080185,1.226
0.0036251754187781675,1.227
0.003611403855112224,1.228
0.0031702811010776897,1.229
0.002408592592933688,1.23
0.0014913842236473004,1.231
0.0005676852839334639,1.232
-0.00026518140398178023,1.233
-0.0009592801786728647,1.234
-0.0014975319270444604,1.235
-0.0018701940279017492,1.236
-0.0020553758200186037,1.237
-0.0020232670612061244,1.238
-0.0017566380208158523,1.239
-0.0012657624771872731,1.24
-0.0006033978526711354,1.241
0.0001289114860509555,1.242
0.0008104283774169594,1.243
0.001352297498532967,1.244
0.0017301996742116303,1.245
0.0019810713093390627,1.246
0.002169690684626758,1.247
0.002342017081864482,1.248
0.002488135435840413,1.249
0.002537080936432658,1.25
0.0023924948190873255,1.251
0.0019846922317295476,1.252
0.0013040955048531102,1.253
0.0004159061615496786,1.254
-0.0005480149480852723,1.255
-0.0014422143855116886,1.256
-0.0021676842534133814,1.257
-0.0026749683643190053,1.258
-0.0029281677536714982,1.259
-0.0028947154482971576,1.26
-0.0025766115768020193,1.261
-0.0020435934872462106,1.262
-0.001424780443087631,1.263
-0.0008532453873099955,1.264
-0.00040703984058840573,1.265
-9.954548329806114e-05,1.266
9.03539009957132e-05,1.267
0.00020870285097212638,1.268
0.00033709859584502434,1.269
0.0005627831254409856,1.27
0.0009150084901809015,1.271
0.0013289691244667582,1.272
0.0016532551342339965,1.273
0.0016914646583970792,1.274
0.0012681373537812546,1.275
0.0002940390088801098,1.276
-0.0011861120381006858,1.277
-0.002973244651527816,1.278
-0.004736425585199408,1.279
-0.006081872807948644,1.28
-0.0066517655747841305,1.281
-0.006219443242218779,1.282
-0.00475037665288681,1.283
-0.0024176783263748516,1.284
0.00043743100629179885,1.285
0.0033985090007658428,1.286
0.006073731252065526,1.287
0.00814979802460524,1.288
0.009401769449173505,1.289
0.009696864163468428,1.29
0.009010146749058144,1.291
0.00743845933244265,1.292
0.005196515456288036,1.293
0.002588328398085796,1.294
-4.4593615376921015e-05,1.295
-0.0023840497256849835,1.296
-0.004192941676448273,1.297
-0.005361099342588204,1.298
-0.005914595933613589,1.299
-0.005966947217112271,1.3
-0.005639443576107446,1.301
-0.005017516176560953,1.302
-0.004170394767204707,1.303
-0.0031920683117120296,1.304
-0.002211483609064686,1.305
-0.0013641498561772535,1.306
-0.0007529025496343003,1.307
-0.00042188308323900354,1.308
-0.0003558357405510252,1.309
-0.0004963967093784738,1.31
-0.0007379685000860801,1.311
-0.0009030627629698554,1.312
-0.0007663250489467943,1.313
-0.00015583022490552387,1.314
0.0009443784333660307,1.315
0.002368027860316738,1.316
0.0038173779464691507,1.317
0.004963134649249652,1.318
0.005563603586152929,1.319
0.0055459999773226605,1.32
0.005005303057947726,1.321
0.004143329635836901,1.322
0.003197097172274451,1.323
0.0023687802873458537,1.324
0.0017554736288581008,1.325
0.001307400473335251,1.326
0.0008533633203935225,1.327
0.00019349207632054203,1.328
-0.0007985531741093039,1.329
-0.0021221665127656416,1.33
-0.003650049170160521,1.331
-0.005168599596120524,1.332
-0.006438816566800663,1.333
-0.00724783862462581,1.334
-0.007443506395910807,1.335
-0.006956883723919505,1.336
-0.0058111085305538246,1.337
-0.004124173837792635,1.338
-0.0021156266177860803,1.339
-9.49047193157354e-05,1.34
0.0016075632977184898,1.341
0.0027484994554143826,1.342
0.003246583581150351,1.343
0.0031822713857262326,1.344
0.0027408440844770322,1.345
0.00214192142759276,1.346
0.001584695428064884,1.347
0.0012154317664798597,1.348
0.00112230123120994,1.349
0.0013476419656403157,1.35
0.0018837871447369239,1.351
0.00264933744697449,1.352
0.003481666084400173,1.353
0.004160518702799881,1.354
0.0044584543743396024,1.355
0.004218767518551049,1.356
0.0034276045373755307,1.357
0.002224047590827546,1.358
0.0008463443975573916,1.359
-0.00044097827995997037,1.36
-0.0014194198993279317,1.361
-0.0019780909409619642,1.362
-0.0021225023609563647,1.363
-0.0019346033568062003,1.364
-0.0015574090116060421,1.365
-0.0012069105836263513,1.366
-0.0011342355371847513,1.367
-0.0015301070059141604,1.368
-0.0024407745071308743,1.369
-0.0037434863141050942,1.37
-0.005179485434801679,1.371
-0.006412127658804753,1.372
-0.007091944093864339,1.373
-0.00693995020910544,1.374
-0.00583904988170645,1.375
-0.003886435579265032,1.376
-0.0013713940757421916,1.377
0.001313035962779787,1.378
0.0037809241593916862,1.379
0.005734685124834797,1.38
0.0069910884227875345,1.381
0.007471514433383417,1.382
0.007196639910752803,1.383
0.00629146476899925,1.384
0.0049597606709458255,1.385
0.0034128422428933362,1.386
0.0018069905607356444,1.387
0.0002441245186783795,1.388
-0.0011874918677768232,1.389
-0.0023972663244338074,1.39
-0.003315266440184491,1.391
-0.0039122763868596425,1.392
-0.004184964142301477,1.393
-0.004122971599386234,1.394
-0.003706477382058232,1.395
-0.002952653363971753,1.396
-0.001960972480936924,1.397
-0.0009069714417059792,1.398
4.253673389408235e-06,1.399
0.0006028199360046735,1.4
0.0008254954935763226,1.401
0.0007552414511280133,1.402
0.0005907489879160675,1.403
0.000560354959797146,1.404
0.0008336233995499433,1.405
0.0014679256293514261,1.406
0.0023909348537796407,1.407
0.0034149198837350615,1.408
0.004292782335618002,1.409
0.004803003193438507,1.41
0.0048136666114682,1.411
0.004296392889511163,1.412
0.003308056226156118,1.413
0.001966054956878572,1.414
0.00042978961199573537,1.415
-0.0011078334039776518,1.416
-0.0024373468227110433,1.417
-0.0033838563780757363,1.418
-0.0038707091134402155,1.419
-0.003935912275712096,1.42
-0.003682423801662799,1.421
-0.003214452299188117,1.422
-0.0026153577584091636,1.423
-0.0019617174639053143,1.424
-0.0013398088207712687,1.425
-0.0008467954759676556,1.426
-0.0005669009553274184,1.427
-0.0005338447351881104,1.428
-0.0007109051522800474,1.429
-0.0010001264724582362,1.43
-0.001276403945713618,1.431
-0.0014370693458122192,1.432
-0.001437403534999295,1.433
-0.0012847240534520164,1.434
-0.0010030591964301577,1.435
-0.0006073691313155397,1.436
-0.00011438813950493952,1.437
0.0004258820283623888,1.438
0.00092645505825002,1.439
0.0012937002299519174,1.44
0.0014468028601739705,1.441
0.0013223616971706634,1.442
0.0008998181988184475,1.443
0.0002352402007838243,1.444
-0.0005423749436929814,1.445
-0.0012703041582524937,1.446
-0.0017871539970515853,1.447
-0.0019614745963065783,1.448
-0.0017337495592442609,1.449
-0.0011393250957878588,1.45
-0.0002738345441784508,1.451
0.0007613733608414676,1.452
0.001886212997437026,1.453
0.003045972855384298,1.454
0.004199057636415443,1.455
0.005293196822401566,1.456
0.006248914080926036,1.457
0.006950327557790796,1.458
0.007248232384653637,1.459
0.006997717674950893,1.46
0.006120398459117713,1.461
0.004651745111815357,1.462
0.0027439353939576567,1.463
0.0006256253473760069,1.464
-0.001454134540641811,1.465
-0.003275367405564049,1.466
-0.004689211097478839,1.467
-0.0056562491954104295,1.468
-0.006262376768337041,1.469
-0.006679411467422871,1.47
-0.007074656654465703,1.471
-0.007525907730391574,1.472
-0.007987695653853386,1.473
-0.008309685434480216,1.474
-0.00829314128221062,1.475
-0.007761427409687388,1.476
-0.006615895096396713,1.477
-0.0048698811176037474,1.478
-0.0026627486033505643,1.479
-0.00024434242023721193,1.48
0.002080893043534872,1.481
0.004043332892931592,1.482
0.005487287980443954,1.483
0.006386856337963655,1.484
0.006810398463097532,1.485
0.006883378557687094,1.486
0.006746743184488577,1.487
0.006497903164074632,1.488
0.006163480189756201,1.489
0.00572802315045023,1.49
0.0051642517729411025,1.491
0.004442229099067519,1.492
0.003544724176288513,1.493
0.0024834756586826355,1.494
0.0013022688788011216,1.495
7.255211616513478e-05,1.496
-0.0011234717862941934,1.497
-0.002218875516683552,1.498
-0.003170767757427262,1.499
-0.003945096220967181,1.5
-0.004501717766055721,1.501
-0.004793944768672466,1.502
-0.004773527542688459,1.503
-0.004405988749598465,1.504
-0.003707899105701996,1.505
-0.002782432462772821,1.506
-0.0018138946695129042,1.507
-0.001001192175259417,1.508
-0.00046102042355187557,1.509
-0.00018013002734960682,1.51
-5.6145330277047145e-05,1.511
1.8203772523072105e-05,1.512
0.00010188495734723897,1.513
0.00021436313873540616,1.514
0.0003735407947638507,1.515
0.0006218394013236135,1.516
0.0010240379675182892,1.517
0.001625835363009453,1.518
0.0023903440024580394,1.519
0.0031689651058335326,1.52
0.003736162933784563,1.521
0.003870328676429407,1.522
0.0034501720865271627,1.523
0.0025163295258985485,1.524
0.001252480348359572,1.525
-9.72470172577289e-05,1.526
-0.0013188368413720522,1.527
-0.002283791686705183,1.528
-0.002952239833185924,1.529
-0.0033411728535356826,1.53
-0.003490215339724434,1.531
-0.0034372608624798247,1.532
-0.0032043009760099397,1.533
-0.002793032092421843,1.534
-0.0021881600716248516,1.535
-0.0013795193709376465,1.536
-0.00040401178396774957,1.537
0.0006332135712957026,1.538
0.0015879206778420325,1.539
0.0023264995766500134,1.54
0.0027496303565051525,1.541
0.002789478224549283,1.542
0.0024165913087542583,1.543
0.0016624771105042484,1.544
0.0006334001670145621,1.545
-0.0004904691732559804,1.546
-0.0014682569480887666,1.547
-0.002046128187567133,1.548
-0.0020563413294550914,1.549
-0.0015127579906488954,1.55
-0.0006126254291140715,1.551
0.0003589113414990909,1.552
0.0011375323298470482,1.553
0.0015459812629299392,1.554
0.0015263483972863094,1.555
0.0011474649224157574,1.556
0.0005660491169733258,1.557
-5.104495355238487e-05,1.558
-0.000579131207174513,1.559
-0.0009353353273472798,1.56
-0.0010714974775545504,1.561
-0.0009895562557318384,1.562
-0.0007532153501311945,1.563
-0.00046286133316903767,1.564
-0.00019503243241734354,1.565
5.440623125331141e-05,1.566
0.0003696692082519919,1.567
0.0008448952960233544,1.568
0.0014895569422634415,1.569
0.0021729511084340202,1.57
0.00265733234853311,1.571
0.0027041617411773878,1.572
0.0021804295264491124,1.573
0.0011156859502559,1.574
-0.00029999115457481366,1.575
-0.0017767494210233679,1.576
-0.00301977585730964,1.577
-0.0038007551479125627,1.578
-0.003985848171846437,1.579
-0.0035543086069074674,1.58
-0.002608765810327165,1.581
-0.0013471445145674065,1.582
-1.6558469002771515e-06,1.583
0.0012210344878504171,1.584
0.0021682351477533028,1.585
0.0027346819785073386,1.586
0.0028491759669291147,1.587
0.0024801820801931295,1.588
0.001657781828156703,1.589
0.0004939336095525355,1.59
-0.0008184620960530436,1.591
-0.0020399104048891793,1.592
-0.002943886151868181,1.593
-0.003379068542950077,1.594
-0.0033070906045239126,1.595
-0.002793988434552221,1.596
-0.001967992989935895,1.597
-0.0009795720351096515,1.598
2.5809450087148083e-05,1.599
0.0009295222105331285,1.6
0.0016506799644120601,1.601
0.0021455386098442517,1.602
0.0024097564107842698,1.603
0.002485660928707369,1.604
0.0024534636289918984,1.605
0.0023944865704306944,1.606
0.0023561860637365743,1.607
0.0023487198491782485,1.608
0.00235441862033674,1.609
0.002327371396618438,1.61
0.002200831555902453,1.611
0.0019206640010854979,1.612
0.0014749463928229083,1.613
0.0008874692235219962,1.614
0.00019868716767803407,1.615
-0.000532844430507222,1.616
-0.001221148798001592,1.617
-0.001768976336563656,1.618
-0.0021042323830168072,1.619
-0.002206455331499727,1.62
-0.0021194646358365203,1.621
-0.0019394340028383978,1.622
-0.0017684297164269702,1.623
-0.0016758780293806988,1.624
-0.0016972028303641517,1.625
-0.0018419175526083343,1.626
-0.0020897731174137797,1.627
-0.0023844926804988827,1.628
-0.0026354981794953136,1.629
-0.0027361887188952438,1.63
-0.002608295886133965,1.631
-0.002249586002668102,1.632
-0.001736892115826466,1.633
-0.0011736737614830369,1.634
-0.000631541476767059,1.635
-0.00014204217656536375,1.636
0.0002724039391123334,1.637
0.0005851063822484172,1.638
0.0007878890209720085,1.639
0.0009201762229137319,1.64
0.0010699084878711064,1.641
0.0013416317561465727,1.642
0.0018067641389249716,1.643
0.0024478091212051345,1.644
0.0031272128546993927,1.645
0.003626909147047769,1.646
0.0037500272128653694,1.647
0.003406232040524502,1.648
0.0026320124303936703,1.649
0.0015763307728000546,1.65
0.0004730792404037998,1.651
-0.0004273971402034513,1.652
-0.0009644123207273778,1.653
-0.0011382231625982552,1.654
-0.0010893764374982817,1.655
-0.0010083342569659343,1.656
-0.0010309660122155254,1.657
-0.0011731100425437246,1.658
-0.0013333789170891011,1.659
-0.001346912152161174,1.66
-0.001069985543683182,1.661
-0.0004681208996801629,1.662
0.0003584013515260723,1.663
0.0012332514433028643,1.664
0.001978662664773171,1.665
0.002450013312911953,1.666
0.0025479888836135917,1.667
0.002239085673775458,1.668
0.0015789308241681704,1.669
0.0007039577585292273,1.67
-0.00022515171651073994,1.671
-0.0010882579648071684,1.672
-0.0018237582954950783,1.673
-0.0023980049690833414,1.674
-0.0027787823431653902,1.675
-0.002941501927600304,1.676
-0.002873797441478659,1.677
-0.002564795762108186,1.678
-0.002015489025576607,1.679
-0.0012701939578982696,1.68
-0.0004289459303796819,1.681
0.00037085803029124467,1.682
0.0009861249478916078,1.683
0.0012990327987065882,1.684
0.001243691236466352,1.685
0.0008259284194940803,1.686
0.00012900411586760658,1.687
-0.0007002081864023846,1.688
-0.0014817943592681196,1.689
-0.0020443339578065413,1.69
-0.0022669018905498123,1.691
-0.0021013879401626427,1.692
-0.0015649523302025457,1.693
-0.0007207930727896988,1.694
0.00032416134578082796,1.695
0.0014098661762119015,1.696
0.002344950747569112,1.697
0.002968837084293879,1.698
0.0031990896174660384,1.699
0.0030353371001586313,1.7
0.0025590511411775745,1.701
0.0019290744398689258,1.702
0.001318502173305389,1.703
0.0008149000680688159,1.704
0.0003754938566643911,1.705
-0.00012474436048457737,1.706
-0.0007869212247036693,1.707
-0.0015937780476037449,1.708
-0.002399546135243552,1.709
-0.0030114038934919204,1.71
-0.003288118363884865,1.711
-0.0031842066404881666,1.712
-0.00273401458793866,1.713
-0.0020147886029914176,1.714
-0.0011196224223184005,1.715
-0.00014037923050443297,1.716
0.0008451538791643392,1.717
0.0017726871896709317,1.718
0.0025839561536733,1.719
0.0032419515820292216,1.72
0.0037502889502848647,1.721
0.0041164102243653284,1.722
0.00427655566463085,1.723
0.00408124810666784,1.724
0.0033833046212916476,1.725
0.002160811537476529,1.726
0.0005803497570691024,1.727
-0.001044812861786346,1.728
-0.002378745495576818,1.729
-0.003187407904805121,1.73
-0.0033926507916524976,1.731
-0.003059661115430502,1.732
-0.0023491185474688405,1.733
-0.0014600926977653772,1.734
-0.0006011948405341588,1.735
1.676480752929697e-05,1.736
0.0002254974849482296,1.737
-1.9058822974833503e-05,1.738
-0.0006076138262116976,1.739
-0.0013447614616116665,1.74
-0.0020411412768333173,1.741
-0.0025605171352054085,1.742
-0.0028254292657954997,1.743
-0.002805493919382227,1.744
-0.0025003477330523606,1.745
-0.0019318398910515738,1.746
-0.0011589522283151296,1.747
-0.0002960878954796217,1.748
0.000502656629450241,1.749
0.001095725679839551,1.75
0.00140871219286528,1.751
0.001461421717278942,1.752
0.0013601335052099935,1.753
0.0012536805944078208,1.754
0.0012667522870480196,1.755
0.0014506417094111057,1.756
0.0017733011135647907,1.757
0.0021413387509363457,1.758
0.0024458953574934693,1.759
0.0026114020598222002,1.76
0.002612870051885771,1.761
0.002453612476280747,1.762
0.0021383512090995503,1.763
0.0016757484569919828,1.764
0.0010995957075298807,1.765
0.0004761242923804243,1.766
-0.0001160270927510523,1.767
-0.000620773001619915,1.768
-0.0010281085906038267,1.769
-0.001368783547134783,1.77
-0.0016955557466225336,1.771
-0.0020698092040736284,1.772
-0.0025383150674216782,1.773
-0.003102251241143354,1.774
-0.0037110304169781817,1.775
-0.004273554269301597,1.776
-0.004661687253077194,1.777
-0.004722947927004378,1.778
-0.004325904311966904,1.779
-0.0034179956442504694,1.78
-0.0020523889172119002,1.781
-0.00037358053342271175,1.782
0.0014116121779965498,1.783
0.0030641224839253107,1.784
0.004358794735861134,1.785
0.005149398931352194,1.786
0.005415043784783135,1.787
0.005247363500802713,1.788
0.004784622565495782,1.789
0.004141447825710236,1.79
0.0033767043497006893,1.791
0.0025006852398879323,1.792
0.001506353590578664,1.793
0.0004144723487670803,1.794
-0.000696435786228404,1.795
-0.0017013169965313468,1.796
-0.0024615269928969976,1.797
-0.0028581220466178453,1.798
-0.0028310293994356487,1.799
-0.002407076483793912,1.8
-0.0016963456248499853,1.801
-0.0008750473040000694,1.802
-0.00015617381152529443,1.803
0.00026955348117318546,1.804
0.0002974499257938248,1.805
-5.9705734091445534e-05,1.806
-0.0006852029732077705,1.807
-0.0014102598351548278,1.808
-0.0020732026315331566,1.809
-0.0025545032191046165,1.81
-0.0027838604693093466,1.811
-0.0027358463895263765,1.812
-0.0024273890489556124,1.813
-0.001917222821624163,1.814
-0.0012964564121820267,1.815
-0.0006490294259901635,1.816
6.23076347769121e-07,1.817
0.0006845210054109409,1.818
0.0014250970200092327,1.819
0.002187088991666101,1.82
0.0028995194466746657,1.821
0.0035219032101194187,1.822
0.004084358469672075,1.823
0.004645119825492113,1.824
0.005203781191624906,1.825
0.005659263660922985,1.826
0.005828089281837394,1.827
0.0054951851772821764,1.828
0.0044991803222047275,1.829
0.002822188554841192,1.83
0.0006143739092979615,1.831
-0.001846218080778822,1.832
-0.004210890646375667,1.833
-0.006131606388854985,1.834
-0.00734646073217608,1.835
-0.007743980768634867,1.836
-0.007376587164599212,1.837
-0.006423036321454025,1.838
-0.005128127206731198,1.839
-0.0037538898745109596,1.84
-0.002541315493206513,1.841
-0.0016621351483662005,1.842
-0.001178540122800931,1.843
-0.0010487916939090165,1.844
-0.0011739341657173875,1.845
-0.0014405860668188508,1.846
-0.0017309333280019375,1.847
-0.0019133400082395077,1.848
-0.0018399779369168358,1.849
-0.0013714015645566126,1.85
-0.0004250600743523733,1.851
0.0009872643267099179,1.852
0.002752259064211827,1.853
0.004667877642706664,1.854
0.00647522116712294,1.855
0.007906730500183425,1.856
0.008733192748288748,1.857
0.008811254905909768,1.858
0.008127665249622674,1.859
0.006804935452498866,1.86
0.005067988800349224,1.861
0.003198014054157391,1.862
0.0014650284881062054,1.863
4.334161062320945e-05,1.864
-0.0010342280459617998,1.865
-0.0018456267652837428,1.866
-0.002512511536214675,1.867
-0.0031510699923099324,1.868
-0.00383990038839527,1.869
-0.004594731044471693,1.87
-0.005362708489108102,1.871
-0.006039057858351048,1.872
-0.006486294767954523,1.873
-0.006546885238713327,1.874
-0.006077684098763691,1.875
-0.005021188251076449,1.876
-0.0034632043900595685,1.877
-0.0016212643606242773,1.878
0.00021857567054995295,1.879
0.0017733770601978962,1.88
0.0028360225721351775,1.881
0.003333382972159468,1.882
0.0033386649403342795,1.883
0.003031078870879963,1.884
0.0026159669245907065,1.885
0.002237984314833528,1.886
0.001933280457489151,1.887
0.0016500798480117687,1.888
0.001322024631442939,1.889
0.0009296746315301033,1.89
0.0005033342441311237,1.891
9.407577115068131e-05,1.892
-0.0002431763976443733,1.893
-0.00045636579559311924,1.894
-0.0005085879653830755,1.895
-0.00038948111755274066,1.896
-0.00012088736296535208,1.897
0.00024047521224971257,1.898
0.0006144096322042639,1.899
0.000926002097002702,1.9
0.0011295844432959439,1.901
0.0012147722204422797,1.902
0.0012031314022403479,1.903
0.0011363200672497558,1.904
0.0010515701796278416,1.905
0.0009601253876470077,1.906
0.000843706498842356,1.907
0.0006619576728489005,1.908
0.0003625299803899045,1.909
-0.0001065563713009729,1.91
-0.0007824070483071814,1.911
-0.0016660397452327223,1.912
-0.00270023326286575,1.913
-0.00377640726650654,1.914
-0.004776719490129638,1.915
-0.005609551459495801,1.916
-0.006212050866670811,1.917
-0.006537012636509284,1.918
-0.0065410302789462235,1.919
-0.006178340266459054,1.92
-0.005404011522800195,1.921
-0.004180266446049188,1.922
-0.002483802076410746,1.923
-0.0003302894626967125,1.924
0.0021820027912398785,1.925
0.0048454240342951154,1.926
0.007370025088961516,1.927
0.009456883227699863,1.928
0.010877503606248054,1.929
0.01152121749194013,1.93
0.011394957080543005,1.931
0.010588196852677327,1.932
0.00922006471880215,1.933
0.007385088650177261,1.934
0.005138219062499996,1.935
0.002537817328765408,1.936
-0.00030001847977478174,1.937
-0.0031804935697114013,1.938
-0.005843594529594653,1.939
-0.008002577692772172,1.94
-0.009404131123452493,1.941
-0.00989588558093324,1.942
-0.009474707445892535,1.943
-0.008297332916866426,1.944
-0.006637982609209522,1.945
-0.004801306319490741,1.946
-0.003036881230109797,1.947
-0.001490885774810998,1.948
-0.00020199418536450856,1.949
0.0008696397348905346,1.95
0.0018013542435869024,1.951
0.0026630540109328447,1.952
0.003466189552978906,1.953
0.0041299295766822446,1.954
0.004505409685734972,1.955
0.004451327901222902,1.956
0.003898523550450403,1.957
0.002865747958422539,1.958
0.0014477632350493024,1.959
-0.0002024544175692587,1.96
-0.001893534488878271,1.961
-0.0034114570358162615,1.962
-0.004541733068249214,1.963
-0.005103613171740653,1.964
-0.004972822233013948,1.965
-0.004093841412823808,1.966
-0.0025100809326588105,1.967
-0.00040070174403991795,1.968
0.0019176248001644925,1.969
0.004042733106297407,1.97
0.005582836006445766,1.971
0.006262206528966176,1.972
0.005992142999416262,1.973
0.004880571974058359,1.974
0.0031790218511955877,1.975
0.001196877168615026,1.976
-0.0007697849959767692,1.977
-0.0024779533501579883,1.978
-0.003763463248412455,1.979
-0.004560106853414457,1.98
-0.004887823175909435,1.981
-0.004789325044775176,1.982
-0.004257893497818038,1.983
-0.0032398351517000617,1.984
-0.0017311437229364467,1.985
0.00012079434505477861,1.986
0.0020142715056161342,1.987
0.003587561749775887,1.988
0.00453378322732618,1.989
0.004686413903960954,1.99
0.004058727788955458,1.991
0.0028249472849993925,1.992
0.0012527938444387814,1.993
-0.000377671743489823,1.994
-0.0018421252799350745,1.995
-0.003004634671262565,1.996
-0.003792944711851933,1.997
-0.004145102883811327,1.998
-0.003989950889402529,1.999
-0.0032785127313724434,2.0
-0.0020295652986485903,2.001
-0.00034790191655074466,2.002
0.0015815655475733454,2.003
0.00349827077094603,2.004
0.005091278581101343,2.005
0.006078958324262995,2.006
0.006299485162867959,2.007
0.005734468955485206,2.008
0.004471510289869644,2.009
0.002678052337633492,2.01
0.0006006250915749949,2.011
-0.0014565316139058249,2.012
-0.003184222044074977,2.013
-0.0043289113512402005,2.014
-0.004741655540670981,2.015
-0.004403111343461643,2.016
-0.003431781803806225,2.017
-0.0020761086017539476,2.018
-0.0006717718689830911,2.019
0.0004332230544925962,2.02
0.0009632237563930479,2.021
0.0007832929592364034,2.022
-7.199277352787044e-05,2.023
-0.0014128600092837278,2.024
-0.0029500862954786326,2.025
-0.004384309420665542,2.026
-0.00548418728697968,2.027
-0.0061117572328512025,2.028
-0.006206623579194919,2.029
-0.005760690528117137,2.03
-0.004801918006211081,2.031
-0.0033922709698867262,2.032
-0.0016295560562615851,2.033
0.00036015003807910486,2.034
0.002437693490709195,2.035
0.004465623066536834,2.036
0.006327482109633355,2.037
0.007945930342371836,2.038
0.009261518476053736,2.039
0.010172490727053635,2.04
0.010512598806902196,2.041
0.010115319899094508,2.042
0.008921332133659997,2.043
0.007047540334694204,2.044
0.004758637044086753,2.045
0.0023637475768378395,2.046
0.00012204182919648186,2.047
-0.0017981346630943742,2.048
-0.0033177269992774585,2.049
-0.004424498798967769,2.05
-0.005147932858491685,2.051
-0.005551671173601126,2.052
-0.005748389375038186,2.053
-0.005896804523304475,2.054
-0.006139124557965827,2.055
-0.006507185819145612,2.056
-0.006869824115549407,2.057
-0.006965491664660123,2.058
-0.006509843319764533,2.059
-0.005327702451998763,2.06
-0.0034424637500206842,2.061
-0.0010823641520039738,2.062
0.0013767999027856446,2.063
0.00349932139221178,2.064
0.004904311183586078,2.065
0.005379370322795387,2.066
0.004936080171775479,2.067
0.003791430737192691,2.068
0.002293057256926284,2.069
0.0008147949111760142,2.07
-0.000332495657577288,2.071
-0.0009466976946781225,2.072
-0.0009539641721128703,2.073
-0.0004182833160078311,2.074
0.0004762581655188632,2.075
0.001480892247505605,2.076
0.0023467009701316037,2.077
0.002865228646673236,2.078
0.002884704942990769,2.079
0.0023216253215322803,2.08
0.001189533354822999,2.081
-0.0003565326943113219,2.082
-0.002019409222533927,2.083
-0.0034460707384804936,2.084
-0.004334323260589538,2.085
-0.004491968002624503,2.086
-0.0038751634470210023,2.087
-0.0026160788744495176,2.088
-0.0009976215955841334,2.089
0.0006295590752228573,2.09
0.0019535836549157454,2.091
0.0027910467548456636,2.092
0.0031210159263423266,2.093
0.0030532627123389944,2.094
0.0027596280515117633,2.095
0.002401897328813847,2.096
0.002075539433716373,2.097
0.0017889991841895624,2.098
0.0014863200572561384,2.099
0.0010996936443973405,2.1
0.0006105633522207445,2.101
7.642953192511941e-05,2.102
-0.0004113896959387232,2.103
-0.0007966288333496632,2.104
-0.0010764587729178113,2.105
-0.0012616074116397204,2.106
-0.0013429273238452781,2.107
-0.0013091400352536512,2.108
-0.0011868072011888796,2.109
-0.001052347854569771,2.11
-0.0010033228972683066,2.111
-0.0011129023636170842,2.112
-0.0013970688810243826,2.113
-0.00180708742166845,2.114
-0.0022483422066179658,2.115
-0.0026118946703711644,2.116
-0.002798761885536736,2.117
-0.0027404845313174727,2.118
-0.0024215368466064184,2.119
-0.0018814503956992522,2.12
-0.0011887408330194093,2.121
-0.000415164050724231,2.122
0.000375758528834436,2.123
0.0011361030400252985,2.124
0.0018353389654301665,2.125
0.0024479698922469256,2.126
0.0029337752101368927,2.127
0.003234320264710004,2.128
0.003294829037245909,2.129
0.0030880041426064025,2.13
0.002628667438430098,2.131
0.0019916440177834695,2.132
0.0013229708102131998,2.133
0.0008119357567850297,2.134
0.0006115616441105643,2.135
0.0007512103315952538,2.136
0.0011088669784459053,2.137
0.0014555660313181349,2.138
0.0015381337085082995,2.139
0.0011708641550302577,2.14
0.0003062043684384897,2.141
-0.0009407252140859752,2.142
-0.0023172626089989798,2.143
-0.0035063138655232746,2.144
-0.0042384900158902086,2.145
-0.004402796690203364,2.146
-0.0040917713557192615,2.147
-0.003537390543623377,2.148
-0.002968411918501578,2.149
-0.0024916429127947357,2.15
-0.002072107202118989,2.151
-0.001590372560947458,2.152
-0.0009208019498540129,2.153
-2.7861476201581256e-06,2.154
0.0011181154410220679,2.155
0.0023020711676885524,2.156
0.0033623908775324545,2.157
0.004112473487447573,2.158
0.004407526942006549,2.159
0.004185983772791135,2.16
0.003496107662014283,2.161
0.002479304195476344,2.162
0.0013107053238849296,2.163
0.00015324236750147025,2.164
-0.0008498568363594262,2.165
-0.0015879861153321577,2.166
-0.002013447581582679,2.167
-0.0021466000144080804,2.168
-0.0020453754806729093,2.169
-0.0017710566268350756,2.17
-0.0013646405544586121,2.171
-0.0008409404197743909,2.172
-0.0002142362707749614,2.173
0.0004677643611551393,2.174
0.001119966041773297,2.175
0.0016426614621541159,2.176
0.0019432286432177364,2.177
0.0019462654877647327,2.178
0.0016020627651639897,2.179
0.0009033898724276433,2.18
-8.91363893475095e-05,2.181
-0.001221986947786326,2.182
-0.002252260138627026,2.183
-0.0029182215136683673,2.184
-0.0030569922699216667,2.185
-0.0026770238696250427,2.186
-0.0019294761254862536,2.187
-0.001019129597587682,2.188
-0.00012824420012429738,2.189
0.0006131304511411824,2.19
0.001126691173090721,2.191
0.0013818963566215093,2.192
0.0013972971286800233,2.193
0.0012386352101112995,2.194
0.0010000405516653705,2.195
0.0007665322337350293,2.196
0.0005764023060021753,2.197
0.00041129310559903133,2.198
0.00021937916486010383,2.199
-4.683951749872934e-05,2.2
-0.0003980432148864623,2.201
-0.0007967228333453614,2.202
-0.001166087880151597,2.203
-0.0014070062483696908,2.204
-0.0014224213510416086,2.205
-0.0011584625112887371,2.206
-0.0006529155395084641,2.207
-4.358919852263327e-05,2.208
0.000489512270056882,2.209
0.0007997524446484506,2.21
0.0008146213443765561,2.211
0.0005448807594929859,2.212
8.274887224403492e-05,2.213
-0.0004092712339036032,2.214
-0.0007345009983689302,2.215
-0.0007300471954583657,2.216
-0.0003367589000730242,2.217
0.00037413832878149946,2.218
0.0012369688306070952,2.219
0.002071182649165646,2.22
0.00274763285283936,2.221
0.003192983797411822,2.222
0.0033560369033491335,2.223
0.003186835222922621,2.224
0.00264331652297084,2.225
0.0017218771464259997,2.226
0.0004847877496974584,2.227
-0.000946624187913589,2.228
-0.002413465427234719,2.229
-0.0037306591394223013,2.23
-0.00471174722238297,2.231
-0.005225067194295459,2.232
-0.005239349348025607,2.233
-0.004812312820670137,2.234
-0.004043301742197738,2.235
-0.0030432234029420255,2.236
-0.0019346984047115756,2.237
-0.0008435522136023717,2.238
0.0001466957398163848,2.239
0.0010352307763581666,2.24
0.0018760937410785116,2.241
0.0026939479232113528,2.242
0.003428136583861362,2.243
0.003967716700311548,2.244
0.004240101568656419,2.245
0.004251577855701388,2.246
0.004053194592517472,2.247
0.0037030358898050017,2.248
0.003252020249110488,2.249
0.0027277868887011702,2.25
0.0021233163618826654,2.251
0.001399418869731868,2.252
0.0004940025620214757,2.253
-0.0006502963345956068,2.254
-0.0020269493350839034,2.255
-0.0035120220559772563,2.256
-0.004880346592624025,2.257
-0.00589244897960799,2.258
-0.0063840296156201,2.259
-0.006302305975406231,2.26
-0.005695691900335911,2.261
-0.00469521737605696,2.262
-0.0034845456632264763,2.263
-0.0022250696483224267,2.264
-0.000980777403514609,2.265
0.0002724909091796135,2.266
0.0015744227507766815,2.267
0.00291838431908918,2.268
0.004217299221617834,2.269
0.005302684086874537,2.27
0.005969148075767866,2.271
0.006043076140853269,2.272
0.005449119536544154,2.273
0.004255984300983269,2.274
0.0026746537150293473,2.275
0.0009946178241793647,2.276
-0.0005120271741663891,2.277
-0.0016538613066045022,2.278
-0.0023335946171040936,2.279
-0.00255064744578257,2.28
-0.002391413498422234,2.281
-0.0019779385623860616,2.282
-0.001403763199236086,2.283
-0.0007206990205036903,2.284
1.8042575071901294e-05,2.285
0.0007211184508973095,2.286
0.001274042914477619,2.287
0.001589447394908555,2.288
0.0016453753571749141,2.289
0.0014792768388107282,2.29
0.0011477521860335607,2.291
0.0006916393067163108,2.292
0.00013411712483397132,2.293
-0.0004999295082804058,2.294
-0.0011768361952454523,2.295
-0.0018699789102820526,2.296
-0.002561996948676874,2.297
-0.003210233128690946,2.298
-0.0037312473587093726,2.299
-0.004036484378906767,2.3
-0.004061934377188241,2.301
-0.003772292015658632,2.302
-0.003171242314776282,2.303
-0.002310292603214018,2.304
-0.0012816369958426603,2.305
-0.00019735360515204273,2.306
0.0008493708434630843,2.307
0.0018143605615695366,2.308
0.0026833632604896383,2.309
0.00342667286474877,2.31
0.003980571538503318,2.311
0.004264065746850068,2.312
0.004209180961688284,2.313
0.003791789256784944,2.314
0.003057619824392135,2.315
0.0021259074275249237,2.316
0.0011527305873120625,2.317
0.0002787241460467805,2.318
-0.0003940760212593743,2.319
-0.0008021604021849895,2.32
-0.0009291317058666621,2.321
-0.0008124114060424315,2.322
-0.0005266891475454849,2.323
-0.00016181422026131692,2.324
0.0001845299351279996,2.325
0.0004157760331984237,2.326
0.0004726216724196085,2.327
0.0003747209177159542,2.328
0.00020847668505065826,2.329
5.1517655527341754e-05,2.33
-0.00010288752719933187,2.331
-0.0003527651142898612,2.332
-0.0008126881896000955,2.333
-0.0015129468913541249,2.334
-0.0023471192318308726,2.335
-0.0031061913439387563,2.336
-0.0035758206721672333,2.337
-0.0036296276926600715,2.338
-0.0032729666322588867,2.339
-0.0026303110248335347,2.34
-0.0018791190617957784,2.341
-0.0011572205686356998,2.342
-0.0005036105992101124,2.343
0.00013946118956866777,2.344
0.0008789770088757778,2.345
0.0017848588427556795,2.346
0.002803878703032784,2.347
0.0037405630754461638,2.348
0.004307747079100106,2.349
0.004214027675628843,2.35
0.003271505318447764,2.351
0.0014907751708431237,2.352
-0.0008881089504589658,2.353
-0.003439879845973396,2.354
-0.0056391186207210425,2.355
-0.006978129849417977,2.356
-0.007122561817794888,2.357
-0.006036305651337126,2.358
-0.003979838328405903,2.359
-0.0013868771380392548,2.36
0.0012843777389121658,2.361
0.00365299186004383,2.362
0.0054628666084028474,2.363
0.006595707657029501,2.364
0.007056963171148534,2.365
0.006935095800708999,2.366
0.006361972154699151,2.367
0.00549899924918323,2.368
0.00451006267459545,2.369
0.0034907349486342975,2.37
0.0024328264847072283,2.371
0.001298387192954987,2.372
0.00011975677293731449,2.373
-0.000996273936921464,2.374
-0.0019436177425772923,2.375
-0.0026786941709497857,2.376
-0.0032306529180594814,2.377
-0.003672245946616386,2.378
-0.004069261162253435,2.379
-0.004435595828702969,2.38
-0.00472511992350748,2.381
-0.004863176264976705,2.382
-0.004792181786282112,2.383
-0.004505977465588078,2.384
-0.0040519064478691125,2.385
-0.0034835433749251794,2.386
-0.00278791253540081,2.387
-0.001863859802233103,2.388
-0.000601399400015694,2.389
0.0009914426746322597,2.39
0.002725258813533646,2.391
0.004287937432916269,2.392
0.0053819686791990035,2.393
0.005839968552840866,2.394
0.005658944830040157,2.395
0.004971363121391854,2.396
0.003984092341814082,2.397
0.0028976897523411388,2.398
0.0018362821134212852,2.399
0.0008297538537778464,2.4
-0.00014154861478292755,2.401
-0.0010708811489946622,2.402
-0.001886295946449966,2.403
-0.0024994243608372634,2.404
-0.002879495218620721,2.405
-0.0030536734156095626,2.406
-0.003053912373075377,2.407
-0.0028854189406296196,2.408
-0.002535044371282306,2.409
-0.0020060844140046175,2.41
-0.0013585994341028381,2.411
-0.0007274712868157455,2.412
-0.00029018251426441734,2.413
-0.00018048727107095513,2.414
-0.00040496546332352307,2.415
-0.0008350511618280435,2.416
-0.0012734831081531038,2.417
-0.001540535549802426,2.418
-0.0015430444742335807,2.419
-0.001293740839632162,2.42
-0.0008617137795607169,2.421
-0.0003023327328470149,2.422
0.00036970096961159266,2.423
0.0011598250040005258,2.424
0.002053187170061758,2.425
0.0029789382133899494,2.426
0.003805413432272036,2.427
0.004378711532762446,2.428
0.004584172220053269,2.429
0.004390682218417479,2.43
0.0038531987154307662,2.431
0.0030875778468624536,2.432
0.002236655674954416,2.433
0.0014206417163303185,2.434
0.000688686837534968,2.435
1.4921236304171402e-05,2.436
-0.0006623148132649404,2.437
-0.0013850988657872882,2.438
-0.002124273324355621,2.439
-0.002773775894194206,2.44
-0.0032073960544818053,2.441
-0.003338145375885982,2.442
-0.0031363203640456497,2.443
-0.002633725719377976,2.444
-0.001929877902173778,2.445
-0.0011805788751574867,2.446
-0.0005649189761758278,2.447
-0.00023933830921371878,2.448
-0.0002864747242686765,2.449
-0.0006802054029367741,2.45
-0.001292335799347912,2.451
-0.0019316265995358783,2.452
-0.002384211027232243,2.453
-0.0024577796884242297,2.454
-0.0020469742334147853,2.455
-0.0011932771533668006,2.456
-8.033354950779244e-05,2.457
0.0010491933730835997,2.458
0.001992034347185914,2.459
0.0026274624557027265,2.46
0.0029020618169629106,2.461
0.002807882234603006,2.462
0.002385733169296106,2.463
0.001728597728689081,2.464
0.0009576281265327565,2.465
0.00019088806445004855,2.466
-0.0004709925218684694,2.467
-0.0009508175697997113,2.468
-0.0011907003068090231,2.469
-0.0011376409554115475,2.47
-0.0007645087193806586,2.471
-0.00013138414142033848,2.472
0.0006047482011088979,2.473
0.001278502043617671,2.474
0.001814667750257578,2.475
0.0022401279920095194,2.476
0.0026227713179540796,2.477
0.003017183289665143,2.478
0.003443225666942621,2.479
0.0038582018346967843,2.48
0.004125489846318615,2.481
0.004022017540191855,2.482
0.003279781722196248,2.483
0.0016404557342336416,2.484
-0.0010678865600311628,2.485
-0.004827286205491776,2.486
-0.009325014268923697,2.487
-0.013888452438367895,2.488
-0.017507980446001655,2.489
-0.01902175977972528,2.49
-0.01750843546694361,2.491
-0.012752865809372045,2.492
-0.005472811585229462,2.493
0.0028810821337074163,2.494
0.010623781641331926,2.495
0.016371926387856926,2.496
0.019408473622056003,2.497
0.019766199425877266,2.498
0.01805391889314653,2.499
0.015145915941465086,2.5
0.011866924757002417,2.501
0.008751035892487808,2.502
0.005931800936777848,2.503
0.003232678872393267,2.504
0.0004046904196242586,2.505
-0.0026849878447057106,2.506
-0.006025443590674091,2.507
-0.009520263596095617,2.508
-0.013007254905273114,2.509
-0.01620594076577407,2.51
-0.018659223966263135,2.511
-0.01975846903947637,2.512
-0.018918053319500947,2.513
-0.015878729685439116,2.514
-0.010947822467880217,2.515
-0.004964224285280374,2.516
0.0009965329469449296,2.517
0.005982952227822752,2.518
0.009438957134535539,2.519
0.011330142678631932,2.52
0.012092201404197638,2.521
0.012390035718584297,2.522
0.012767894073137399,2.523
0.013362633298770616,2.524
0.013840764873903285,2.525
0.013593566622051741,2.526
0.012100615087082434,2.527
0.00928049682068521,2.528
0.005577116741747406,2.529
0.0016927905524406837,2.53
-0.0017862440383527385,2.531
-0.004578386728622191,2.532
-0.006666394716773458,2.533
-0.008157595067782753,2.534
-0.009164775998451285,2.535
-0.009750469266310362,2.536
-0.009932582755260091,2.537
-0.009733102527792237,2.538
-0.009208304436286507,2.539
-0.00840961170822313,2.54
-0.007323796058913649,2.541
-0.005879741239927425,2.542
-0.004034556071738437,2.543
-0.0018638228791386594,2.544
0.0004281358720189918,2.545
0.0025815229705833213,2.546
0.004370010608604571,2.547
0.00564845012922995,2.548
0.006356224336782954,2.549
0.00650285685720078,2.55
0.006149391856755119,2.551
0.00537516905171386,2.552
0.004241779431387121,2.553
0.0028032266102375244,2.554
0.0011518083612549726,2.555
-0.0005783122706227163,2.556
-0.0022478061828204794,2.557
-0.0037105029266887245,2.558
-0.004779946689464316,2.559
-0.0052460765586437525,2.56
-0.004954634974802334,2.561
-0.0038855733622509413,2.562
-0.002188006225546402,2.563
-0.00017067733643087542,2.564
0.0017653493438035204,2.565
0.0032510941316811334,2.566
0.004059831956647456,2.567
0.004138398172254156,2.568
0.003579449887970934,2.569
0.002581905607696195,2.57
0.001412929485898605,2.571
0.00036621667281261773,2.572
-0.0002898112191407621,2.573
-0.00037914082727169725,2.574
0.00011857127582530296,2.575
0.0010572246853092428,2.576
0.002185288469838966,2.577
0.003217586649122639,2.578
0.0038613345500651776,2.579
0.0038419043306176697,2.58
0.002978734696446052,2.581
0.0012671979012269512,2.582
-0.0010893468194706551,2.583
-0.003702549111060077,2.584
-0.00607876299657822,2.585
-0.007757108900640306,2.586
-0.00844990660038074,2.587
-0.008089589475346085,2.588
-0.006767489212487684,2.589
-0.004651375913848099,2.59
-0.0019428349203171299,2.591
0.0011306456403791234,2.592
0.004295575876347465,2.593
0.007193991109231581,2.594
0.009390455516769388,2.595
0.010482256939487507,2.596
0.010262965918522653,2.597
0.008835106301452542,2.598
0.006594937098827271,2.599
0.0040696957743414685,2.6
0.001695782271147539,2.601
-0.0003317124836100571,2.602
-0.0020958859992649555,2.603
-0.0038959890830899385,2.604
-0.006096913082237724,2.605
-0.0089511953643602,2.606
-0.012488840679392434,2.607
-0.01647131184367296,2.608
-0.020331511698337034,2.609
-0.02313450269783879,2.61
-0.023725142845253466,2.611
-0.021146245163911285,2.612
-0.015137632965674696,2.613
-0.006348394883804275,2.614
0.003907811822676718,2.615
0.014130061422196576,2.616
0.023015006556705155,2.617
0.029636354389664374,2.618
0.03345357123538968,2.619
0.0342410677570763,2.62
0.03205733014241377,2.621
0.027260384191240297,2.622
0.020487263973439793,2.623
0.012577218063599608,2.624
0.0044487913565739575,2.625
-0.0030717398942747497,2.626
-0.009416100736604238,2.627
-0.01431470087051147,2.628
-0.01767166814221439,2.629
-0.019416581552128897,2.63
-0.019507856562602933,2.631
-0.018074176570378332,2.632
-0.015503220813805662,2.633
-0.01235324154657059,2.634
-0.0091710790097705,2.635
-0.0063638330817656266,2.636
-0.004158854913128852,2.637
-0.002586336653597753,2.638
-0.0014758102130737914,2.639
-0.0005247562573912931,2.64
0.0005913629434799681,2.641
0.002138049773711183,2.642
0.004262950852657389,2.643
0.0069491563980889045,2.644
0.009977709053264467,2.645
0.01285152007053692,2.646
0.014735502388441795,2.647
0.01459727868540005,2.648
0.01158042516142388,2.649
0.00541071898908003,2.65
-0.003378123445238801,2.651
-0.013474939163340421,2.652
-0.023028464500654367,2.653
-0.030028520858018447,2.654
-0.03280767936909625,2.655
-0.030539853884194213,2.656
-0.023475352762570505,2.657
-0.012800648740864213,2.658
-0.0002518338221988829,2.659
0.012332123551907496,2.66
0.023331957932770552,2.661
0.03147253464458596,2.662
0.03586869014969355,2.663
0.03613348402582692,2.664
0.03252624566572286,2.665
0.025955298298970766,2.666
0.01772296037439992,2.667
0.009149189805528962,2.668
0.0012992807627933373,2.669
-0.005094432649270101,2.67
-0.009609513576874599,2.671
-0.012135629639753884,2.672
-0.012883905161780167,2.673
-0.012317859809612869,2.674
-0.01101998263714224,2.675
-0.00955973636542278,2.676
-0.008392651924920908,2.677
-0.007817552565873749,2.678
-0.007993450548728126,2.679
-0.008921615803741354,2.68
-0.01032948014429668,2.681
-0.011605775431805892,2.682
-0.011971762975374653,2.683
-0.010800452652321428,2.684
-0.007847078995228643,2.685
-0.0033053261524996196,2.686
0.002253084528810258,2.687
0.008003940608483981,2.688
0.013039246626323558,2.689
0.016529205493583103,2.69
0.017851410299128807,2.691
0.016729547744827208,2.692
0.013347512776957197,2.693
0.008299272324676287,2.694
0.0023518653108338078,2.695
-0.0037906206594788432,2.696
-0.009541945457209391,2.697
-0.014341629540839805,2.698
-0.017599065709762936,2.699
-0.0188146942086233,2.7
-0.017811253075448837,2.701
-0.014835378611269679,2.702
-0.010430095533615466,2.703
-0.005219719424036582,2.704
0.00026240378697149315,2.705
0.005657285782920862,2.706
0.010736460340633296,2.707
0.01526752404514451,2.708
0.018909308307288177,2.709
0.02123176774240341,2.71
0.02187561602531275,2.711
0.02072801725803562,2.712
0.017935100349112387,2.713
0.0138010389360654,2.714
0.008739320037403868,2.715
0.003220810201694509,2.716
-0.0023537186759008876,2.717
-0.007719344996912977,2.718
-0.012669373658782573,2.719
-0.016944384441273105,2.72
-0.020194137052192408,2.721
-0.022019399689847376,2.722
-0.02204526150943512,2.723
-0.01997536027804991,2.724
-0.01566059549539962,2.725
-0.009259029339297757,2.726
-0.001444416082816434,2.727
0.006505414788385126,2.728
0.012932718155416838,2.729
0.016398328166437943,2.73
0.016364815146886758,2.731
0.013462492406027546,2.732
0.009136147287304105,2.733
0.004934909823227302,2.734
0.0018882468337323775,2.735
0.00028715980698794017,2.736
-0.00012180200708781461,2.737
0.00019334906494715873,2.738
0.0007402646620437124,2.739
0.0010516138598152013,2.74
0.0007544598326003324,2.741
-0.0003318797105542321,2.742
-0.0021811878827416543,2.743
-0.004639192461148423,2.744
-0.0075048471724595235,2.745
-0.010532910385409433,2.746
-0.01335892787123288,2.747
-0.015440640211529699,2.748
-0.016131718533260713,2.749
-0.014916260495044012,2.75
-0.011690968630236151,2.751
-0.006895749380090284,2.752
-0.0013435157609719217,2.753
0.004187799626000125,2.754
0.009306734153003074,2.755
0.014016427798145284,2.756
0.01838439801381581,2.757
0.022184080576418023,2.758
0.024822467654960927,2.759
0.025618903022390796,2.76
0.02424693047597848,2.761
0.020990666718124735,2.762
0.01658693337825757,2.763
0.01181123307540984,2.764
0.007143020087240255,2.765
0.0026746437305502544,2.766
-0.0017873942672315159,2.767
-0.006548616248759807,2.768
-0.011861599234572667,2.769
-0.017815577317813913,2.77
-0.024279498401346942,2.771
-0.030830589646957306,2.772
-0.036633932153465644,2.773
-0.04042734843995143,2.774
-0.04083646076921307,2.775
-0.036933801233651475,2.776
-0.028637254389525853,2.777
-0.016715830116397372,2.778
-0.002554352998824092,2.779
0.012111297490453409,2.78
0.025456340381700308,2.781
0.03586564567803382,2.782
0.04219033590125179,2.783
0.04385809832453789,2.784
0.040916229944223885,2.785
0.03407809089636286,2.786
0.024664103806039107,2.787
0.014362633050559338,2.788
0.004848891636264787,2.789
-0.00264198574953764,2.79
-0.007593758902690667,2.791
-0.01019004622466902,2.792
-0.011089970660384425,2.793
-0.011179105770642546,2.794
-0.011347985556341497,2.795
-0.012280908735491236,2.796
-0.01426405389290959,2.797
-0.017048350649410574,2.798
-0.019839884464483634,2.799
-0.021519375028311045,2.8
-0.0210756152646747,2.801
-0.018005484559231278,2.802
-0.01243612164784225,2.803
-0.004989283999213992,2.804
0.0034512256219885987,2.805
0.011925427492079928,2.806
0.019478863484883074,2.807
0.025224960454500945,2.808
0.028465584936199623,2.809
0.02883981691046283,2.81
0.026426749387651285,2.811
0.02171392722888416,2.812
0.015444232677365622,2.813
0.008459126815144246,2.814
0.001541311979547154,2.815
-0.004793747791188386,2.816
-0.010430409197378924,2.817
-0.015563028067181732,2.818
-0.020441615397842342,2.819
-0.025094041356243435,2.82
-0.02913272284157501,2.821
-0.03174749644973522,2.822
-0.03192786505183629,2.823
-0.028832227938997795,2.824
-0.022135385685145302,2.825
-0.012209726953152835,2.826
-0.00011679545442333728,2.827
0.012524277127813349,2.828
0.023774627362569495,2.829
0.03177367191503364,2.83
0.03525264554849677,2.831
0.03395780455207543,2.832
0.028741795474570096,2.833
0.02118293106074571,2.834
0.01290123314667499,2.835
0.005036867317374578,2.836
-0.0018234040724122154,2.837
-0.007419420285429299,2.838
-0.011576673135486163,2.839
-0.014099250443408587,2.84
-0.014805320941557669,2.841
-0.013635973893432143,2.842
-0.010744372757799549,2.843
-0.006533092820846381,2.844
-0.0016805002413282882,2.845
0.00284594045384389,2.846
0.005918674656394358,2.847
0.006635149326608048,2.848
0.004787742214661434,2.849
0.0010254178749477816,2.85
-0.00343390153669331,2.851
-0.0072902681581385005,2.852
-0.009575661153316642,2.853
-0.009846208396285958,2.854
-0.008115937026991734,2.855
-0.004714394282506139,2.856
-0.00024789249234404297,2.857
0.004435830933316678,2.858
0.00841304787502834,2.859
0.010925727013495385,2.86
0.011576525661492306,2.861
0.010360394746978262,2.862
0.007538729661916037,2.863
0.0035241718981537024,2.864
-0.0011292730682928639,2.865
-0.005696283760456886,2.866
-0.009290581058222433,2.867
-0.010956552543284417,2.868
-0.009891091507264553,2.869
-0.005840023765024304,2.87
0.0004350871377052333,2.871
0.007057752953203858,2.872
0.011781181518334984,2.873
0.013256949595135473,2.874
0.01172734355721564,2.875
0.008566069747977894,2.876
0.005266769471834732,2.877
0.0027341806206671445,2.878
0.001114965092151463,2.879
-5.3708143769030455e-05,2.88
-0.0016044353910348132,2.881
-0.004451247786166079,2.882
-0.009218925336519966,2.883
-0.015878707384861173,2.884
-0.0235569440962093,2.885
-0.03064585166445192,2.886
-0.035254627158990505,2.887
-0.03582200829252369,2.888
-0.03156859796980474,2.889
-0.02266251884889124,2.89
-0.010177399701882507,2.891
0.004187797318472461,2.892
0.018585581409713507,2.893
0.03135246369331882,2.894
0.04107684452105068,2.895
0.04669744023687724,2.896
0.04776123637497009,2.897
0.044560305825545196,2.898
0.03791721299981702,2.899
0.028841173277402644,2.9
0.018364200899543603,2.901
0.007508439815000247,2.902
-0.0027541486053194518,2.903
-0.011561955318469357,2.904
-0.018267925881466255,2.905
-0.02256087427195337,2.906
-0.024497393318848943,2.907
-0.02442597277114921,2.908
-0.02287199102041249,2.909
-0.020424319084391733,2.91
-0.01761549291621202,2.911
-0.01480834883445208,2.912
-0.012153790697941943,2.913
-0.009651144520029995,2.914
-0.007245203847800065,2.915
-0.004856569322537663,2.916
-0.0023610094399095505,2.917
0.0003518817023852775,2.918
0.0032575532070732945,2.919
0.0061900039995514,2.92
0.008971205973371178,2.921
0.01149769321167952,2.922
0.01367818356454808,2.923
0.015298472073296054,2.924
0.01595223560012589,2.925
0.015152138741881193,2.926
0.012638401662680269,2.927
0.00864055218158314,2.928
0.0037619041464498483,2.929
-0.0013925094611949027,2.93
-0.006413043175308888,2.931
-0.011036030302385265,2.932
-0.015044155582484777,2.933
-0.01815527626703962,2.934
-0.01992011386087015,2.935
-0.019753569386959643,2.936
-0.017140185203633976,2.937
-0.011929849981148651,2.938
-0.004599384084848884,2.939
0.0036979782149282256,2.94
0.011462590504289502,2.941
0.01744929411108111,2.942
0.021112076637605358,2.943
0.022547715674315683,2.944
0.022027005554737997,2.945
0.019606297478163167,2.946
0.015217886716393004,2.947
0.0089671399533724,2.948
0.0011547689395783201,2.949
-0.007816207535987425,2.95
-0.017308271815600892,2.951
-0.026234512095673016,2.952
-0.033018247282144725,2.953
-0.03586459876017408,2.954
-0.03340242823310546,2.955
-0.02540497486029911,2.956
-0.01305266457630709,2.957
0.0014657163882524065,2.958
0.015717288068723887,2.959
0.027713033213142776,2.96
0.03621907062616371,2.961
0.040645346293654,2.962
0.04078291664054701,2.963
0.0367554410795854,2.964
0.029230899346427225,2.965
0.019549205769614338,2.966
0.00943441810009236,2.967
0.0004035431096996897,2.968
-0.00670878242991506,2.969
-0.011907929006233936,2.97
-0.01593381516007971,2.971
-0.019900787402044894,2.972
-0.024720023146419343,2.973
-0.030525414645856855,2.974
-0.036338597770624564,2.975
-0.04010924321327051,2.976
-0.03932961800377597,2.977
-0.03231520350614675,2.978
-0.019510428319829236,2.979
-0.0037141788033283767,2.98
0.011038924721167024,2.981
0.021110186460412822,2.982
0.02448372234968925,2.983
0.02115676444957366,2.984
0.012770629214092631,2.985
0.0019316998195007427,2.986
-0.00840074386831912,2.987
-0.015485801387344612,2.988
-0.0174378016492025,2.989
-0.013693920386947183,2.99
-0.0050510637670005964,2.991
0.006641045476736413,2.992
0.018938326405336364,2.993
0.029332354908101023,2.994
0.035793398767546954,2.995
0.03724576001994437,2.996
0.03390085211895345,2.997
0.027258989023946478,2.998
0.019534612814196668,2.999
0.012700200978674076,3.0
0.007805128599053588,3.001
0.004945585458803658,3.002
0.0036452279224675733,3.003
0.003220317806750485,3.004
