VaMe,time
-0.4628,0.001
-0.2843,0.002
-0.0488,0.003
0.06,0.004
0.1275,0.005
0.1822,0.006
0.2745,0.007
0.3277,0.008
0.2377,0.009
0.063,0.01
-0.1508,0.011
-0.2123,0.012
-0.1523,0.013
-0.2011,0.014
-0.2348,0.015
-0.1073,0.016
-0.0128,0.017
0.0307,0.018
0.0862,0.019
0.0675,0.02
0.0157,0.021
-0.0181,0.022
-0.0098,0.023
0.0045,0.024
0.0652,0.025
0.0952,0.026
0.0615,0.027
0.0652,0.028
0.039,0.029
0.0397,0.03
0.0397,0.031
0.018,0.032
0.0015,0.033
0.0052,0.034
0.0675,0.035
0.1005,0.036
0.0472,0.037
-0.0735,0.038
-0.1711,0.039
-0.198,0.04
-0.0743,0.041
0.0967,0.042
0.159,0.043
0.2025,0.044
0.2152,0.045
0.174,0.046
0.0787,0.047
-0.0218,0.048
-0.0608,0.049
-0.1411,0.05
-0.24,0.051
-0.312,0.052
-0.3915,0.053
-0.2895,0.054
-0.1028,0.055
-0.057,0.056
0.033,0.057
0.1275,0.058
0.213,0.059
0.2947,0.06
0.2587,0.061
0.2595,0.062
0.2227,0.063
0.1537,0.064
0.042,0.065
-0.2063,0.066
-0.3668,0.067
-0.3008,0.068
-0.195,0.069
-0.1125,0.07
-0.0203,0.071
-0.0585,0.072
-0.003,0.073
0.0742,0.074
0.021,0.075
-0.0195,0.076
-0.0908,0.077
-0.0465,0.078
0.0487,0.079
0.0937,0.08
0.1717,0.081
0.2182,0.082
0.255,0.083
0.2692,0.084
0.2565,0.085
0.2347,0.086
0.1425,0.087
-0.042,0.088
-0.2625,0.089
-0.4073,0.09
-0.393,0.091
-0.1358,0.092
0.1117,0.093
0.1875,0.094
0.2505,0.095
0.2235,0.096
0.1327,0.097
-0.0143,0.098
-0.2723,0.099
-0.5048,0.1
-0.4373,0.101
-0.2213,0.102
-0.1815,0.103
-0.093,0.104
0.0052,0.105
0.0435,0.106
0.132,0.107
0.2145,0.108
0.3112,0.109
0.366,0.11
0.3427,0.111
0.2797,0.112
0.1822,0.113
0.0457,0.114
-0.0863,0.115
-0.2558,0.116
-0.447,0.117
-0.4838,0.118
-0.3855,0.119
-0.225,0.12
-0.0706,0.121
0.0165,0.122
0.0517,0.123
0.0727,0.124
0.0982,0.125
0.1275,0.126
0.1875,0.127
0.231,0.128
0.246,0.129
0.231,0.13
0.2047,0.131
0.1762,0.132
0.0885,0.133
-0.0578,0.134
-0.1973,0.135
-0.156,0.136
-0.0555,0.137
-0.0818,0.138
-0.1313,0.139
-0.1778,0.14
-0.0968,0.141
0.0255,0.142
0.0292,0.143
0.0127,0.144
-0.0285,0.145
-0.0893,0.146
-0.1021,0.147
-0.0465,0.148
0.0255,0.149
0.048,0.15
0.0465,0.151
0.0382,0.152
0.0225,0.153
0.0382,0.154
0.0705,0.155
0.0847,0.156
0.1177,0.157
0.1717,0.158
0.21,0.159
0.2085,0.16
0.1755,0.161
0.1132,0.162
0.018,0.163
-0.0856,0.164
-0.2153,0.165
-0.3308,0.166
-0.3503,0.167
-0.2768,0.168
-0.1748,0.169
-0.0953,0.17
-0.0233,0.171
0.0352,0.172
0.0742,0.173
0.1162,0.174
0.144,0.175
0.1702,0.176
0.1822,0.177
0.1762,0.178
0.1387,0.179
0.0502,0.18
-0.0091,0.181
-0.0256,0.182
-0.0915,0.183
-0.1613,0.184
-0.1103,0.185
-0.0503,0.186
-0.066,0.187
-0.099,0.188
-0.1711,0.189
-0.1958,0.19
-0.1238,0.191
-0.0233,0.192
0.0427,0.193
0.0982,0.194
0.1897,0.195
0.2865,0.196
0.3975,0.197
0.4207,0.198
0.3555,0.199
0.2265,0.2
0.063,0.201
-0.093,0.202
-0.3525,0.203
-0.5363,0.204
-0.4898,0.205
-0.3953,0.206
-0.318,0.207
-0.2423,0.208
-0.1808,0.209
-0.0983,0.21
-0.0068,0.211
0.0307,0.212
0.0682,0.213
0.0967,0.214
0.1102,0.215
0.1432,0.216
0.1612,0.217
0.2002,0.218
0.252,0.219
0.2767,0.22
0.2482,0.221
0.2317,0.222
0.2025,0.223
0.0502,0.224
-0.1553,0.225
-0.3615,0.226
-0.4185,0.227
-0.2213,0.228
-0.0428,0.229
0.0502,0.23
0.111,0.231
0.0915,0.232
0.042,0.233
-0.0105,0.234
-0.0615,0.235
-0.0915,0.236
-0.0533,0.237
0.009,0.238
0.048,0.239
0.06,0.24
0.09,0.241
0.1552,0.242
0.1882,0.243
0.201,0.244
0.177,0.245
0.117,0.246
0.0382,0.247
-0.0915,0.248
-0.2385,0.249
-0.318,0.25
-0.27,0.251
-0.1058,0.252
-0.003,0.253
-0.0046,0.254
-0.0091,0.255
-0.0315,0.256
-0.0608,0.257
-0.033,0.258
0.0367,0.259
0.0975,0.26
0.1725,0.261
0.2167,0.262
0.252,0.263
0.276,0.264
0.222,0.265
0.081,0.266
-0.1553,0.267
-0.3218,0.268
-0.3406,0.269
-0.2175,0.27
-0.0691,0.271
0.0157,0.272
0.0217,0.273
-0.0353,0.274
-0.084,0.275
-0.0893,0.276
0.0067,0.277
0.0945,0.278
0.1402,0.279
0.1485,0.28
0.1155,0.281
-0.0008,0.282
-0.1163,0.283
-0.0585,0.284
-0.0165,0.285
-0.0825,0.286
-0.1635,0.287
-0.2235,0.288
-0.2011,0.289
-0.0668,0.29
0.0465,0.291
0.0937,0.292
0.1717,0.293
0.2475,0.294
0.3247,0.295
0.3405,0.296
0.2925,0.297
0.1987,0.298
0.0532,0.299
-0.0405,0.3
-0.1763,0.301
-0.3555,0.302
-0.3893,0.303
-0.3128,0.304
-0.3218,0.305
-0.2385,0.306
-0.0578,0.307
-0.0495,0.308
-0.0218,0.309
0.0052,0.31
0.0165,0.311
0.0945,0.312
0.1665,0.313
0.2685,0.314
0.321,0.315
0.3427,0.316
0.3652,0.317
0.3307,0.318
0.1927,0.319
-0.0518,0.32
-0.2678,0.321
-0.3083,0.322
-0.2745,0.323
-0.4051,0.324
-0.4283,0.325
-0.2655,0.326
-0.1088,0.327
-0.006,0.328
0.0337,0.329
0.081,0.33
0.078,0.331
0.0892,0.332
0.099,0.333
0.105,0.334
0.129,0.335
0.1567,0.336
0.1927,0.337
0.1732,0.338
0.1432,0.339
0.0825,0.34
0.009,0.341
-0.0315,0.342
-0.0511,0.343
-0.0285,0.344
-0.0353,0.345
-0.0923,0.346
-0.1088,0.347
-0.078,0.348
-0.021,0.349
-0.0135,0.35
-0.0008,0.351
0.048,0.352
0.0307,0.353
-0.0293,0.354
-0.1065,0.355
-0.0915,0.356
-0.0015,0.357
0.0592,0.358
0.1275,0.359
0.1927,0.36
0.219,0.361
0.2152,0.362
0.1695,0.363
0.111,0.364
0.0255,0.365
-0.1583,0.366
-0.2955,0.367
-0.2813,0.368
-0.2078,0.369
-0.2258,0.37
-0.2723,0.371
-0.2183,0.372
-0.1185,0.373
0.0315,0.374
0.1612,0.375
0.2887,0.376
0.3637,0.377
0.3592,0.378
0.324,0.379
0.1717,0.38
-0.0915,0.381
-0.393,0.382
-0.5333,0.383
-0.4081,0.384
-0.21,0.385
-0.0938,0.386
-0.0285,0.387
0.0037,0.388
0.0465,0.389
0.138,0.39
0.1852,0.391
0.2017,0.392
0.2872,0.393
0.3435,0.394
0.261,0.395
0.0772,0.396
-0.075,0.397
-0.1245,0.398
-0.2063,0.399
-0.336,0.4
-0.3293,0.401
-0.1553,0.402
-0.063,0.403
-0.0248,0.404
0.027,0.405
0.0285,0.406
0.0607,0.407
0.0652,0.408
0.0637,0.409
0.0862,0.41
0.1327,0.411
0.1912,0.412
0.2167,0.413
0.2407,0.414
0.2992,0.415
0.303,0.416
0.15,0.417
-0.0758,0.418
-0.255,0.419
-0.2881,0.42
-0.246,0.421
-0.2768,0.422
-0.3173,0.423
-0.2348,0.424
-0.123,0.425
-0.06,0.426
-0.0181,0.427
0.0315,0.428
0.1177,0.429
0.1672,0.43
0.2047,0.431
0.2542,0.432
0.2685,0.433
0.303,0.434
0.2932,0.435
0.162,0.436
0.0322,0.437
-0.0413,0.438
-0.1426,0.439
-0.3128,0.44
-0.4568,0.441
-0.5265,0.442
-0.465,0.443
-0.2445,0.444
-0.114,0.445
-0.0465,0.446
0.033,0.447
0.0457,0.448
0.084,0.449
0.0885,0.45
0.0967,0.451
0.1222,0.452
0.1552,0.453
0.1905,0.454
0.1822,0.455
0.1875,0.456
0.1905,0.457
0.1702,0.458
0.063,0.459
-0.0608,0.46
-0.054,0.461
-0.0143,0.462
-0.0308,0.463
-0.078,0.464
-0.1021,0.465
-0.0511,0.466
0.006,0.467
0.0202,0.468
0.024,0.469
0.0337,0.47
0.0442,0.471
0.024,0.472
-0.0256,0.473
-0.1118,0.474
-0.1215,0.475
-0.075,0.476
-0.033,0.477
0.0682,0.478
0.0967,0.479
0.1005,0.48
0.1035,0.481
0.096,0.482
0.0802,0.483
0.0547,0.484
0.1027,0.485
0.0577,0.486
-0.0053,0.487
-0.108,0.488
-0.3038,0.489
-0.393,0.49
-0.3548,0.491
-0.1688,0.492
-0.0203,0.493
0.0315,0.494
0.054,0.495
0.051,0.496
0.0427,0.497
0.0405,0.498
0.0787,0.499
0.1027,0.5
0.135,0.501
0.1582,0.502
0.156,0.503
0.1537,0.504
0.1627,0.505
0.1447,0.506
0.0555,0.507
-0.0263,0.508
-0.1313,0.509
-0.2145,0.51
-0.2423,0.511
-0.1853,0.512
-0.0803,0.513
-0.0346,0.514
0.0105,0.515
0.0217,0.516
0.0532,0.517
0.1072,0.518
0.1635,0.519
0.225,0.52
0.2437,0.521
0.2655,0.522
0.2407,0.523
0.117,0.524
-0.153,0.525
-0.3945,0.526
-0.4245,0.527
-0.3945,0.528
-0.2858,0.529
-0.1238,0.53
-0.0533,0.531
0.012,0.532
0.0397,0.533
0.054,0.534
0.0825,0.535
0.0975,0.536
0.1237,0.537
0.1192,0.538
0.111,0.539
0.0922,0.54
0.0532,0.541
0.0,0.542
-0.0518,0.543
-0.0735,0.544
-0.0923,0.545
-0.0803,0.546
-0.0008,0.547
0.0375,0.548
0.036,0.549
0.0352,0.55
0.0157,0.551
0.0322,0.552
0.0622,0.553
0.093,0.554
0.123,0.555
0.165,0.556
0.2085,0.557
0.1987,0.558
0.1312,0.559
0.0082,0.56
-0.1515,0.561
-0.2881,0.562
-0.3653,0.563
-0.3765,0.564
-0.255,0.565
-0.0728,0.566
-0.0008,0.567
0.024,0.568
0.0607,0.569
0.0825,0.57
0.1252,0.571
0.177,0.572
0.2602,0.573
0.3172,0.574
0.3442,0.575
0.3052,0.576
0.051,0.577
-0.2483,0.578
-0.5063,0.579
-0.645,0.58
-0.4605,0.581
-0.1763,0.582
-0.0825,0.583
-0.039,0.584
0.0232,0.585
0.045,0.586
0.0772,0.587
0.0795,0.588
0.084,0.589
0.0847,0.59
0.0742,0.591
0.0847,0.592
0.1222,0.593
0.1942,0.594
0.2302,0.595
0.27,0.596
0.3847,0.597
0.4777,0.598
0.3892,0.599
0.1785,0.6
-0.0735,0.601
-0.3188,0.602
-0.4515,0.603
-0.5985,0.604
-0.651,0.605
-0.432,0.606
-0.2408,0.607
-0.1335,0.608
-0.0405,0.609
0.0097,0.61
0.0705,0.611
0.078,0.612
0.0907,0.613
0.114,0.614
0.1665,0.615
0.2302,0.616
0.2445,0.617
0.2865,0.618
0.348,0.619
0.3495,0.62
0.2062,0.621
-0.0323,0.622
-0.2723,0.623
-0.3173,0.624
-0.2438,0.625
-0.2655,0.626
-0.231,0.627
-0.2063,0.628
-0.1313,0.629
-0.0383,0.63
-0.0188,0.631
0.0517,0.632
0.0487,0.633
0.0615,0.634
0.0712,0.635
0.0592,0.636
0.069,0.637
0.0495,0.638
0.0502,0.639
0.042,0.64
0.0532,0.641
0.054,0.642
0.0472,0.643
0.0487,0.644
0.045,0.645
0.0562,0.646
0.0592,0.647
0.045,0.648
0.0502,0.649
0.0975,0.65
0.084,0.651
0.042,0.652
0.021,0.653
-0.0188,0.654
-0.0413,0.655
-0.0608,0.656
-0.1268,0.657
-0.159,0.658
-0.0968,0.659
-0.045,0.66
-0.0158,0.661
0.036,0.662
0.087,0.663
0.1477,0.664
0.168,0.665
0.1597,0.666
0.1335,0.667
0.1297,0.668
0.1102,0.669
-0.0256,0.67
-0.1763,0.671
-0.3278,0.672
-0.42,0.673
-0.3406,0.674
-0.2378,0.675
-0.2093,0.676
-0.0878,0.677
-0.0518,0.678
-0.0473,0.679
0.0825,0.68
0.072,0.681
0.078,0.682
0.0622,0.683
0.0052,0.684
0.0307,0.685
0.0682,0.686
0.1312,0.687
0.1477,0.688
0.153,0.689
0.1725,0.69
0.225,0.691
0.2415,0.692
0.1702,0.693
0.0442,0.694
-0.1065,0.695
-0.1665,0.696
-0.2085,0.697
-0.2806,0.698
-0.2648,0.699
-0.1396,0.7
-0.0248,0.701
0.0187,0.702
0.0465,0.703
0.0502,0.704
0.0547,0.705
0.057,0.706
0.0502,0.707
0.0712,0.708
0.093,0.709
0.1237,0.71
0.1552,0.711
0.1665,0.712
0.141,0.713
0.1372,0.714
0.123,0.715
0.0367,0.716
-0.1006,0.717
-0.2325,0.718
-0.2513,0.719
-0.222,0.72
-0.1411,0.721
-0.0563,0.722
-0.0495,0.723
-0.0743,0.724
-0.114,0.725
-0.084,0.726
-0.0181,0.727
0.0232,0.728
0.0615,0.729
0.1072,0.73
0.1552,0.731
0.165,0.732
0.1575,0.733
0.1522,0.734
0.1177,0.735
0.0555,0.736
-0.0608,0.737
-0.1935,0.738
-0.222,0.739
-0.1215,0.74
-0.0428,0.741
-0.0488,0.742
-0.045,0.743
-0.0278,0.744
-0.0098,0.745
-0.0008,0.746
-0.0173,0.747
-0.015,0.748
0.0082,0.749
0.0232,0.75
0.0412,0.751
0.0622,0.752
0.066,0.753
0.0727,0.754
0.0712,0.755
0.0375,0.756
0.0262,0.757
0.0195,0.758
0.0007,0.759
0.0052,0.76
-0.0075,0.761
-0.0308,0.762
-0.0135,0.763
0.0427,0.764
0.1125,0.765
0.15,0.766
0.1777,0.767
0.2295,0.768
0.2587,0.769
0.276,0.77
0.2047,0.771
0.0202,0.772
-0.1305,0.773
-0.261,0.774
-0.327,0.775
-0.3683,0.776
-0.582,0.777
-0.7005,0.778
-0.48,0.779
-0.2475,0.78
-0.1223,0.781
0.0232,0.782
0.081,0.783
0.108,0.784
0.1365,0.785
0.1365,0.786
0.1417,0.787
0.1357,0.788
0.1695,0.789
0.2332,0.79
0.3157,0.791
0.384,0.792
0.408,0.793
0.399,0.794
0.3,0.795
0.0735,0.796
-0.1913,0.797
-0.399,0.798
-0.4043,0.799
-0.3008,0.8
-0.2858,0.801
-0.2011,0.802
-0.1605,0.803
-0.1065,0.804
-0.0128,0.805
0.003,0.806
0.0555,0.807
0.0555,0.808
0.0727,0.809
0.075,0.81
0.0645,0.811
0.072,0.812
0.0585,0.813
0.0652,0.814
0.0532,0.815
0.0525,0.816
0.0427,0.817
0.0382,0.818
0.0322,0.819
0.0255,0.82
0.0277,0.821
0.0172,0.822
0.0142,0.823
0.0082,0.824
0.0067,0.825
0.003,0.826
0.0007,0.827
-0.0015,0.828
-0.0046,0.829
0.0052,0.83
0.0277,0.831
0.0607,0.832
0.0862,0.833
0.108,0.834
0.1252,0.835
0.1612,0.836
0.1672,0.837
0.0952,0.838
0.009,0.839
-0.0353,0.84
-0.0113,0.841
-0.0518,0.842
-0.2048,0.843
-0.2843,0.844
-0.3173,0.845
-0.369,0.846
-0.3458,0.847
-0.2123,0.848
-0.1478,0.849
-0.0863,0.85
0.0255,0.851
0.0465,0.852
0.075,0.853
0.078,0.854
0.0802,0.855
0.1095,0.856
0.1335,0.857
0.171,0.858
0.1755,0.859
0.1665,0.86
0.1402,0.861
0.0952,0.862
0.0217,0.863
-0.042,0.864
-0.0893,0.865
-0.123,0.866
-0.0856,0.867
-0.042,0.868
-0.0105,0.869
0.0135,0.87
0.0157,0.871
0.0217,0.872
0.0217,0.873
0.0232,0.874
0.024,0.875
0.0195,0.876
0.0292,0.877
0.0517,0.878
0.0667,0.879
0.0622,0.88
0.0652,0.881
0.0765,0.882
0.051,0.883
-0.0046,0.884
-0.0825,0.885
-0.15,0.886
-0.126,0.887
-0.0728,0.888
-0.0458,0.889
-0.0105,0.89
0.0022,0.891
0.0,0.892
0.012,0.893
0.0382,0.894
0.0735,0.895
0.0877,0.896
0.0877,0.897
0.093,0.898
0.114,0.899
0.0952,0.9
-0.0105,0.901
-0.1118,0.902
-0.1711,0.903
-0.165,0.904
-0.1493,0.905
-0.165,0.906
-0.1006,0.907
-0.0338,0.908
-0.012,0.909
-0.0015,0.91
0.0127,0.911
0.0292,0.912
0.027,0.913
0.0337,0.914
0.0435,0.915
0.0667,0.916
0.072,0.917
0.0615,0.918
0.0802,0.919
0.1215,0.92
0.1282,0.921
0.0915,0.922
0.0532,0.923
0.0067,0.924
-0.0083,0.925
-0.0443,0.926
-0.1673,0.927
-0.2475,0.928
-0.2011,0.929
-0.0871,0.93
-0.0323,0.931
-0.0046,0.932
0.021,0.933
0.0127,0.934
0.0337,0.935
0.0472,0.936
0.0592,0.937
0.0862,0.938
0.09,0.939
0.087,0.94
0.1042,0.941
0.1207,0.942
0.1005,0.943
0.057,0.944
0.018,0.945
-0.0436,0.946
-0.153,0.947
-0.2821,0.948
-0.2918,0.949
-0.135,0.95
-0.0256,0.951
0.0097,0.952
0.0577,0.953
0.0712,0.954
0.0862,0.955
0.0892,0.956
0.0712,0.957
0.0472,0.958
0.0247,0.959
0.024,0.96
-0.015,0.961
-0.033,0.962
-0.0315,0.963
-0.0315,0.964
-0.0015,0.965
-0.0091,0.966
-0.0248,0.967
-0.0555,0.968
-0.0675,0.969
-0.0083,0.97
0.042,0.971
0.072,0.972
0.0855,0.973
0.0825,0.974
0.0765,0.975
0.0855,0.976
0.117,0.977
0.12,0.978
0.0877,0.979
0.063,0.98
0.03,0.981
-0.015,0.982
-0.0893,0.983
-0.1628,0.984
-0.135,0.985
-0.0885,0.986
-0.0968,0.987
-0.1215,0.988
-0.1665,0.989
-0.1411,0.99
-0.0436,0.991
0.0127,0.992
0.0307,0.993
0.0382,0.994
0.0577,0.995
0.0892,0.996
0.1237,0.997
0.1447,0.998
0.15,0.999
0.1275,1.0
0.0922,1.001
0.0412,1.002
-0.0608,1.003
-0.1545,1.004
-0.2183,1.005
-0.2145,1.006
-0.1441,1.007
-0.0533,1.008
-0.0083,1.009
0.003,1.01
0.0262,1.011
0.0255,1.012
0.0375,1.013
0.0397,1.014
0.0442,1.015
0.0802,1.016
0.1485,1.017
0.2122,1.018
0.2077,1.019
0.1965,1.02
0.1717,1.021
0.099,1.022
-0.0563,1.023
-0.3015,1.024
-0.444,1.025
-0.378,1.026
-0.2363,1.027
-0.0945,1.028
-0.012,1.029
0.0157,1.03
0.0405,1.031
0.0442,1.032
0.0502,1.033
0.0495,1.034
0.0442,1.035
0.048,1.036
0.0525,1.037
0.0577,1.038
0.0577,1.039
0.0825,1.04
0.1245,1.041
0.15,1.042
0.141,1.043
0.1237,1.044
0.1012,1.045
0.0615,1.046
0.0007,1.047
-0.1215,1.048
-0.2288,1.049
-0.2145,1.05
-0.1335,1.051
-0.0653,1.052
-0.0256,1.053
-0.0068,1.054
0.0082,1.055
0.0097,1.056
0.0127,1.057
0.018,1.058
0.0157,1.059
0.0157,1.06
0.015,1.061
0.027,1.062
0.0217,1.063
0.0142,1.064
0.0495,1.065
0.0727,1.066
0.0555,1.067
0.03,1.068
0.003,1.069
-0.0158,1.07
-0.045,1.071
-0.0525,1.072
-0.0256,1.073
-0.0315,1.074
-0.0195,1.075
0.009,1.076
0.027,1.077
0.0442,1.078
0.0345,1.079
0.024,1.08
0.0157,1.081
0.0015,1.082
-0.054,1.083
-0.1163,1.084
-0.1006,1.085
-0.0443,1.086
-0.0218,1.087
0.0075,1.088
0.063,1.089
0.0937,1.09
0.1275,1.091
0.1672,1.092
0.1845,1.093
0.1477,1.094
0.0667,1.095
-0.0585,1.096
-0.2295,1.097
-0.3525,1.098
-0.36,1.099
-0.2258,1.1
-0.0743,1.101
-0.0181,1.102
0.0217,1.103
0.0375,1.104
0.036,1.105
0.048,1.106
0.0412,1.107
0.0427,1.108
0.0382,1.109
0.0367,1.11
0.0457,1.111
0.057,1.112
0.0847,1.113
0.1027,1.114
0.1102,1.115
0.1185,1.116
0.1447,1.117
0.1657,1.118
0.1372,1.119
0.0937,1.12
0.0277,1.121
-0.0623,1.122
-0.1178,1.123
-0.1965,1.124
-0.3068,1.125
-0.267,1.126
-0.1185,1.127
-0.075,1.128
-0.0368,1.129
0.0067,1.13
0.0082,1.131
0.0382,1.132
0.054,1.133
0.0952,1.134
0.1155,1.135
0.1207,1.136
0.1305,1.137
0.1275,1.138
0.0937,1.139
0.0007,1.14
-0.1088,1.141
-0.1838,1.142
-0.1673,1.143
-0.1305,1.144
-0.06,1.145
0.0075,1.146
0.0225,1.147
0.0487,1.148
0.0442,1.149
0.0427,1.15
0.0367,1.151
0.0262,1.152
0.0345,1.153
0.0427,1.154
0.0502,1.155
0.045,1.156
0.0442,1.157
0.0277,1.158
0.0217,1.159
0.0202,1.16
-0.0143,1.161
-0.063,1.162
-0.084,1.163
-0.024,1.164
0.036,1.165
0.0082,1.166
-0.048,1.167
-0.0765,1.168
-0.054,1.169
0.003,1.17
0.0247,1.171
0.024,1.172
0.0345,1.173
0.0307,1.174
0.0022,1.175
-0.0173,1.176
-0.0315,1.177
-0.057,1.178
-0.0548,1.179
-0.0165,1.18
-0.0008,1.181
-0.0008,1.182
0.0427,1.183
0.114,1.184
0.1642,1.185
0.1815,1.186
0.2047,1.187
0.2227,1.188
0.1875,1.189
0.0592,1.19
-0.1598,1.191
-0.354,1.192
-0.4043,1.193
-0.3653,1.194
-0.2933,1.195
-0.1358,1.196
-0.0203,1.197
0.0135,1.198
0.0352,1.199
0.0382,1.2
0.0487,1.201
0.0517,1.202
0.0615,1.203
0.069,1.204
0.0727,1.205
0.0757,1.206
0.0742,1.207
0.0735,1.208
0.0577,1.209
0.0337,1.21
0.003,1.211
-0.0203,1.212
-0.0248,1.213
0.0007,1.214
0.003,1.215
-0.0256,1.216
-0.0248,1.217
-0.0053,1.218
0.0232,1.219
0.0405,1.22
0.0465,1.221
0.045,1.222
0.0337,1.223
0.0285,1.224
0.024,1.225
0.0255,1.226
0.0232,1.227
0.0217,1.228
0.0255,1.229
0.0142,1.23
0.0127,1.231
0.051,1.232
0.093,1.233
0.084,1.234
0.0277,1.235
-0.0368,1.236
-0.093,1.237
-0.114,1.238
-0.1485,1.239
-0.21,1.24
-0.1823,1.241
-0.0803,1.242
-0.0203,1.243
0.0007,1.244
0.027,1.245
0.0322,1.246
0.039,1.247
0.042,1.248
0.036,1.249
0.03,1.25
0.0217,1.251
0.0465,1.252
0.093,1.253
0.1245,1.254
0.129,1.255
0.1515,1.256
0.1605,1.257
0.084,1.258
-0.0338,1.259
-0.1763,1.26
-0.3053,1.261
-0.3015,1.262
-0.1935,1.263
-0.1088,1.264
-0.0518,1.265
-0.012,1.266
0.012,1.267
0.0292,1.268
0.0495,1.269
0.0817,1.27
0.0945,1.271
0.1027,1.272
0.1095,1.273
0.1005,1.274
0.0802,1.275
0.051,1.276
0.0232,1.277
0.0307,1.278
0.0577,1.279
0.024,1.28
-0.0263,1.281
-0.0728,1.282
-0.1373,1.283
-0.1396,1.284
-0.1006,1.285
-0.0503,1.286
-0.0143,1.287
-0.0015,1.288
0.0277,1.289
0.0652,1.29
0.0915,1.291
0.0705,1.292
0.0367,1.293
-0.003,1.294
-0.0578,1.295
-0.0713,1.296
-0.0593,1.297
-0.0158,1.298
0.0195,1.299
0.018,1.3
0.0202,1.301
0.0195,1.302
0.0315,1.303
0.042,1.304
0.0442,1.305
0.0442,1.306
0.018,1.307
0.0007,1.308
-0.0015,1.309
0.009,1.31
0.036,1.311
0.0195,1.312
-0.039,1.313
-0.0863,1.314
-0.0743,1.315
-0.0503,1.316
-0.0675,1.317
-0.0743,1.318
-0.0593,1.319
-0.0105,1.32
0.009,1.321
0.0127,1.322
0.0442,1.323
0.084,1.324
0.1342,1.325
0.1545,1.326
0.1702,1.327
0.153,1.328
0.1057,1.329
0.0255,1.33
-0.114,1.331
-0.1868,1.332
-0.1711,1.333
-0.186,1.334
-0.1583,1.335
-0.084,1.336
-0.0983,1.337
-0.0788,1.338
-0.0128,1.339
0.0232,1.34
0.0442,1.341
0.051,1.342
0.0562,1.343
0.0517,1.344
0.0495,1.345
0.039,1.346
0.0285,1.347
0.0225,1.348
0.0375,1.349
0.057,1.35
0.0562,1.351
0.0735,1.352
0.0952,1.353
0.1072,1.354
0.072,1.355
-0.0068,1.356
-0.078,1.357
-0.123,1.358
-0.1073,1.359
-0.0608,1.36
-0.0233,1.361
-0.0158,1.362
-0.0308,1.363
-0.0361,1.364
-0.0143,1.365
0.0195,1.366
0.042,1.367
0.0607,1.368
0.063,1.369
0.0712,1.37
0.084,1.371
0.0652,1.372
0.0082,1.373
-0.0818,1.374
-0.1238,1.375
-0.0968,1.376
-0.0638,1.377
-0.0436,1.378
-0.0068,1.379
0.018,1.38
-0.0165,1.381
-0.0361,1.382
-0.0405,1.383
-0.0225,1.384
0.0157,1.385
0.0052,1.386
0.0015,1.387
-0.0008,1.388
-0.0008,1.389
0.0112,1.39
0.0105,1.391
0.0142,1.392
0.0202,1.393
0.027,1.394
0.036,1.395
0.0382,1.396
0.0315,1.397
0.0202,1.398
0.0097,1.399
0.0292,1.4
0.0652,1.401
0.0877,1.402
0.0937,1.403
0.0952,1.404
0.1042,1.405
0.075,1.406
-0.0053,1.407
-0.1178,1.408
-0.1988,1.409
-0.1838,1.41
-0.1335,1.411
-0.105,1.412
-0.09,1.413
-0.0645,1.414
-0.0428,1.415
-0.0098,1.416
0.024,1.417
0.042,1.418
0.066,1.419
0.0517,1.42
0.0397,1.421
0.0457,1.422
0.0165,1.423
-0.0203,1.424
-0.024,1.425
-0.03,1.426
-0.039,1.427
0.0007,1.428
0.024,1.429
0.0292,1.43
0.0315,1.431
0.0262,1.432
0.0397,1.433
0.0427,1.434
0.039,1.435
0.039,1.436
0.0435,1.437
0.0675,1.438
0.0667,1.439
0.012,1.44
-0.0623,1.441
-0.0938,1.442
-0.0623,1.443
-0.033,1.444
-0.0105,1.445
0.0045,1.446
-0.012,1.447
-0.0158,1.448
-0.0353,1.449
-0.057,1.45
-0.0518,1.451
-0.0256,1.452
0.0127,1.453
0.0292,1.454
0.0547,1.455
0.0652,1.456
0.0532,1.457
0.0382,1.458
0.0217,1.459
0.0135,1.46
-0.0113,1.461
-0.0353,1.462
-0.0458,1.463
-0.0706,1.464
-0.0765,1.465
-0.0346,1.466
0.0015,1.467
0.0105,1.468
0.0202,1.469
0.018,1.47
0.018,1.471
0.018,1.472
0.0127,1.473
0.0292,1.474
0.0667,1.475
0.0915,1.476
0.099,1.477
0.1087,1.478
0.0997,1.479
0.0667,1.48
-0.012,1.481
-0.1313,1.482
-0.2033,1.483
-0.1711,1.484
-0.1088,1.485
-0.0743,1.486
-0.0503,1.487
-0.0443,1.488
-0.015,1.489
0.018,1.49
0.0315,1.491
0.0352,1.492
0.036,1.493
0.0442,1.494
0.0517,1.495
0.0547,1.496
0.0442,1.497
0.0307,1.498
0.0112,1.499
-0.0046,1.5
-0.0053,1.501
-0.0165,1.502
-0.0278,1.503
0.0082,1.504
0.0517,1.505
0.0495,1.506
0.012,1.507
-0.0428,1.508
-0.0683,1.509
-0.0721,1.51
-0.0691,1.511
-0.0346,1.512
0.0052,1.513
0.0255,1.514
0.0435,1.515
0.0532,1.516
0.048,1.517
0.0465,1.518
0.048,1.519
0.0352,1.52
0.0067,1.521
-0.0105,1.522
-0.027,1.523
-0.0533,1.524
-0.0765,1.525
-0.0645,1.526
-0.0353,1.527
-0.0075,1.528
0.024,1.529
0.024,1.53
0.0007,1.531
-0.0038,1.532
0.0577,1.533
0.0915,1.534
0.0427,1.535
0.012,1.536
-0.033,1.537
-0.063,1.538
-0.0368,1.539
-0.0173,1.54
0.003,1.541
0.0052,1.542
-0.0008,1.543
0.0007,1.544
0.0,1.545
0.0375,1.546
0.0892,1.547
0.1282,1.548
0.1507,1.549
0.1657,1.55
0.177,1.551
0.1215,1.552
-0.039,1.553
-0.24,1.554
-0.3833,1.555
-0.3705,1.556
-0.2355,1.557
-0.12,1.558
-0.045,1.559
-0.0046,1.56
0.0045,1.561
0.0262,1.562
0.0367,1.563
0.0427,1.564
0.057,1.565
0.0607,1.566
0.0645,1.567
0.0592,1.568
0.054,1.569
0.0517,1.57
0.0472,1.571
0.0337,1.572
0.012,1.573
0.0022,1.574
0.0022,1.575
0.0217,1.576
0.0277,1.577
0.0172,1.578
0.006,1.579
-0.0158,1.58
-0.0225,1.581
-0.0068,1.582
0.039,1.583
0.081,1.584
0.0877,1.585
0.0832,1.586
0.117,1.587
0.1462,1.588
0.0937,1.589
0.0052,1.59
-0.1223,1.591
-0.2535,1.592
-0.2505,1.593
-0.1568,1.594
-0.0878,1.595
-0.033,1.596
-0.015,1.597
-0.0046,1.598
0.0067,1.599
0.0067,1.6
0.0195,1.601
0.0345,1.602
0.0562,1.603
0.0547,1.604
0.063,1.605
0.0757,1.606
0.0705,1.607
0.063,1.608
0.0157,1.609
-0.0398,1.61
-0.0758,1.611
-0.084,1.612
-0.042,1.613
-0.0083,1.614
0.0007,1.615
0.0075,1.616
0.003,1.617
0.0022,1.618
0.009,1.619
0.0247,1.62
0.0465,1.621
0.0637,1.622
0.0787,1.623
0.0742,1.624
0.084,1.625
0.0892,1.626
0.0037,1.627
-0.1163,1.628
-0.1868,1.629
-0.198,1.63
-0.1605,1.631
-0.0758,1.632
-0.0233,1.633
-0.0008,1.634
0.0232,1.635
0.0165,1.636
0.0277,1.637
0.0375,1.638
0.0592,1.639
0.069,1.64
0.0585,1.641
0.057,1.642
0.0532,1.643
0.0457,1.644
0.0037,1.645
-0.0458,1.646
-0.0863,1.647
-0.0803,1.648
-0.0308,1.649
-0.0083,1.65
0.0007,1.651
0.006,1.652
0.006,1.653
0.012,1.654
0.0195,1.655
0.0195,1.656
0.018,1.657
0.0142,1.658
0.0157,1.659
0.0217,1.66
0.0307,1.661
0.0397,1.662
0.0345,1.663
0.0315,1.664
0.0337,1.665
0.015,1.666
-0.024,1.667
-0.0503,1.668
-0.0458,1.669
-0.03,1.67
-0.0195,1.671
-0.03,1.672
-0.0525,1.673
-0.0293,1.674
0.0202,1.675
0.0525,1.676
0.0712,1.677
0.084,1.678
0.1057,1.679
0.1125,1.68
0.072,1.681
-0.0256,1.682
-0.1575,1.683
-0.2168,1.684
-0.15,1.685
-0.0765,1.686
-0.0518,1.687
-0.0405,1.688
-0.0233,1.689
0.0015,1.69
0.0097,1.691
0.0195,1.692
0.0225,1.693
0.0232,1.694
0.0262,1.695
0.027,1.696
0.0345,1.697
0.0472,1.698
0.0705,1.699
0.0727,1.7
0.0735,1.701
0.0817,1.702
0.078,1.703
0.057,1.704
-0.006,1.705
-0.0848,1.706
-0.1403,1.707
-0.1253,1.708
-0.057,1.709
-0.0308,1.71
-0.0158,1.711
0.003,1.712
0.0082,1.713
0.0142,1.714
0.0037,1.715
0.0015,1.716
0.003,1.717
0.018,1.718
0.039,1.719
0.0465,1.72
0.0532,1.721
0.0615,1.722
0.09,1.723
0.1087,1.724
0.0832,1.725
0.0337,1.726
0.0142,1.727
0.0127,1.728
-0.0503,1.729
-0.1508,1.73
-0.2213,1.731
-0.2011,1.732
-0.108,1.733
-0.0503,1.734
-0.0218,1.735
0.009,1.736
0.018,1.737
0.0217,1.738
0.021,1.739
0.024,1.74
0.0367,1.741
0.0457,1.742
0.0472,1.743
0.045,1.744
0.033,1.745
0.0217,1.746
0.0217,1.747
0.0045,1.748
-0.0218,1.749
-0.0293,1.75
-0.006,1.751
0.024,1.752
0.0345,1.753
0.0427,1.754
0.0427,1.755
0.0292,1.756
0.012,1.757
0.0,1.758
-0.0053,1.759
-0.0046,1.76
-0.024,1.761
-0.0788,1.762
-0.1095,1.763
-0.0675,1.764
-0.0143,1.765
0.0052,1.766
0.0277,1.767
0.0345,1.768
0.0352,1.769
0.0337,1.77
0.024,1.771
0.024,1.772
0.0292,1.773
0.0525,1.774
0.0645,1.775
0.057,1.776
0.069,1.777
0.1012,1.778
0.108,1.779
0.0247,1.78
-0.1043,1.781
-0.2175,1.782
-0.225,1.783
-0.1455,1.784
-0.1013,1.785
-0.0503,1.786
-0.0091,1.787
0.0105,1.788
0.0232,1.789
0.0142,1.79
0.024,1.791
0.0292,1.792
0.0307,1.793
0.0285,1.794
0.027,1.795
0.033,1.796
0.0352,1.797
0.0375,1.798
0.0382,1.799
0.042,1.8
0.0465,1.801
0.0382,1.802
0.0075,1.803
-0.0383,1.804
-0.0675,1.805
-0.0465,1.806
-0.0128,1.807
-0.0083,1.808
-0.0091,1.809
-0.0128,1.81
-0.0158,1.811
-0.0023,1.812
0.0037,1.813
0.0052,1.814
0.021,1.815
0.0397,1.816
0.0562,1.817
0.0675,1.818
0.0862,1.819
0.0742,1.82
0.0247,1.821
-0.0128,1.822
-0.0428,1.823
-0.0675,1.824
-0.063,1.825
-0.0638,1.826
-0.0998,1.827
-0.0818,1.828
-0.045,1.829
-0.033,1.83
-0.0008,1.831
0.0277,1.832
0.051,1.833
0.0315,1.834
0.0067,1.835
0.0217,1.836
0.0337,1.837
0.039,1.838
0.0247,1.839
0.003,1.84
-0.0165,1.841
-0.0158,1.842
0.0142,1.843
0.048,1.844
0.0915,1.845
0.135,1.846
0.1552,1.847
0.1567,1.848
0.1702,1.849
0.1365,1.85
0.0067,1.851
-0.1545,1.852
-0.3503,1.853
-0.432,1.854
-0.3225,1.855
-0.2123,1.856
-0.126,1.857
-0.0413,1.858
0.0105,1.859
0.0195,1.86
0.0277,1.861
0.057,1.862
0.0615,1.863
0.0712,1.864
0.0705,1.865
0.0652,1.866
0.0615,1.867
0.054,1.868
0.0502,1.869
0.0427,1.87
0.042,1.871
0.036,1.872
0.033,1.873
0.0307,1.874
0.0247,1.875
0.0172,1.876
0.0127,1.877
0.0105,1.878
0.0067,1.879
0.0037,1.88
-0.0008,1.881
-0.0053,1.882
-0.0083,1.883
-0.0068,1.884
-0.0046,1.885
-0.006,1.886
-0.0046,1.887
-0.0046,1.888
0.003,1.889
0.0165,1.89
0.024,1.891
0.0202,1.892
0.0097,1.893
-0.0023,1.894
-0.0075,1.895
-0.0113,1.896
-0.015,1.897
-0.012,1.898
-0.0158,1.899
-0.0046,1.9
0.0232,1.901
0.0292,1.902
0.0285,1.903
0.0157,1.904
0.0075,1.905
0.0157,1.906
0.0,1.907
-0.0353,1.908
-0.0668,1.909
-0.063,1.91
-0.0173,1.911
0.0262,1.912
0.0345,1.913
0.0405,1.914
0.0367,1.915
0.0112,1.916
-0.015,1.917
-0.063,1.918
-0.099,1.919
-0.0833,1.92
-0.0398,1.921
-0.0225,1.922
-0.0038,1.923
0.0135,1.924
0.0105,1.925
0.0135,1.926
0.0105,1.927
0.0202,1.928
0.0345,1.929
0.0495,1.93
0.0555,1.931
0.0652,1.932
0.0862,1.933
0.0975,1.934
0.0772,1.935
0.0277,1.936
-0.0436,1.937
-0.123,1.938
-0.1598,1.939
-0.1463,1.94
-0.0818,1.941
-0.0256,1.942
-0.0105,1.943
-0.0248,1.944
-0.0443,1.945
-0.0143,1.946
0.018,1.947
0.0232,1.948
0.0292,1.949
0.03,1.95
0.0382,1.951
0.0562,1.952
0.063,1.953
0.0577,1.954
0.054,1.955
0.0765,1.956
0.0952,1.957
0.0517,1.958
-0.0203,1.959
-0.0915,1.96
-0.1515,1.961
-0.1178,1.962
-0.0548,1.963
-0.0263,1.964
0.0067,1.965
0.018,1.966
0.0232,1.967
0.0217,1.968
0.0202,1.969
0.0277,1.97
0.0232,1.971
0.0247,1.972
0.0255,1.973
0.0277,1.974
0.0285,1.975
0.0277,1.976
0.0165,1.977
-0.0008,1.978
-0.0128,1.979
-0.0428,1.98
-0.0593,1.981
-0.0346,1.982
-0.0083,1.983
-0.0008,1.984
0.0015,1.985
0.0022,1.986
0.0037,1.987
0.0045,1.988
0.0067,1.989
0.012,1.99
0.021,1.991
0.0247,1.992
0.0247,1.993
0.024,1.994
0.0112,1.995
-0.0046,1.996
-0.0046,1.997
-0.0068,1.998
-0.021,1.999
-0.039,2.0
-0.0465,2.001
-0.0361,2.002
-0.0113,2.003
0.0007,2.004
-0.0008,2.005
0.009,2.006
0.0112,2.007
0.0127,2.008
0.009,2.009
0.003,2.01
0.003,2.011
-0.0046,2.012
-0.0083,2.013
-0.0046,2.014
0.0082,2.015
0.0202,2.016
0.024,2.017
0.0225,2.018
0.0225,2.019
0.018,2.02
0.009,2.021
0.0007,2.022
-0.0135,2.023
-0.0308,2.024
-0.0465,2.025
-0.0548,2.026
-0.0465,2.027
-0.0143,2.028
0.0172,2.029
0.0322,2.03
0.0375,2.031
0.048,2.032
0.069,2.033
0.0765,2.034
0.0622,2.035
0.0202,2.036
-0.0405,2.037
-0.0691,2.038
-0.0443,2.039
-0.021,2.04
-0.039,2.041
-0.0706,2.042
-0.0856,2.043
-0.0765,2.044
-0.0495,2.045
-0.012,2.046
0.0127,2.047
0.0217,2.048
0.0307,2.049
0.0277,2.05
0.027,2.051
0.0195,2.052
0.0075,2.053
0.003,2.054
0.003,2.055
0.0067,2.056
0.012,2.057
0.0262,2.058
0.0502,2.059
0.0607,2.06
0.0427,2.061
0.0195,2.062
0.0097,2.063
0.0067,2.064
-0.0008,2.065
-0.0165,2.066
-0.0428,2.067
-0.0278,2.068
0.027,2.069
0.0412,2.07
0.039,2.071
0.0165,2.072
-0.0315,2.073
-0.084,2.074
-0.0878,2.075
-0.0338,2.076
-0.0315,2.077
-0.0315,2.078
-0.0128,2.079
-0.0075,2.08
0.0082,2.081
0.0112,2.082
0.018,2.083
0.0127,2.084
0.015,2.085
0.0202,2.086
0.0127,2.087
0.0112,2.088
-0.0068,2.089
-0.0203,2.09
-0.0346,2.091
-0.024,2.092
0.0082,2.093
0.0217,2.094
0.033,2.095
0.0352,2.096
0.027,2.097
0.0172,2.098
0.0097,2.099
0.0112,2.1
0.0165,2.101
0.009,2.102
0.0007,2.103
0.003,2.104
-0.0008,2.105
0.0015,2.106
0.0052,2.107
0.0067,2.108
0.0112,2.109
0.009,2.11
0.0165,2.111
0.0277,2.112
0.0307,2.113
0.033,2.114
0.0142,2.115
-0.0293,2.116
-0.0863,2.117
-0.099,2.118
-0.0608,2.119
-0.033,2.12
-0.012,2.121
0.003,2.122
0.0,2.123
0.0007,2.124
-0.0008,2.125
0.0015,2.126
0.0015,2.127
0.0097,2.128
0.0465,2.129
0.0862,2.13
0.0907,2.131
0.084,2.132
0.1065,2.133
0.1327,2.134
0.1102,2.135
0.012,2.136
-0.1088,2.137
-0.2198,2.138
-0.2798,2.139
-0.2198,2.14
-0.1365,2.141
-0.0893,2.142
-0.024,2.143
0.012,2.144
0.0217,2.145
0.0375,2.146
0.0352,2.147
0.0412,2.148
0.0427,2.149
0.0397,2.15
0.0375,2.151
0.033,2.152
0.0307,2.153
0.0255,2.154
0.0247,2.155
0.0217,2.156
0.0202,2.157
0.0157,2.158
0.012,2.159
0.0105,2.16
0.0082,2.161
0.0082,2.162
0.0075,2.163
0.0082,2.164
0.0067,2.165
0.0045,2.166
0.0045,2.167
0.003,2.168
0.0015,2.169
0.0015,2.17
0.0007,2.171
0.0022,2.172
0.0052,2.173
0.0082,2.174
0.0112,2.175
0.012,2.176
0.009,2.177
0.0067,2.178
0.009,2.179
0.009,2.18
0.003,2.181
-0.0008,2.182
-0.0053,2.183
-0.0091,2.184
-0.0038,2.185
-0.0015,2.186
-0.0083,2.187
-0.0128,2.188
-0.0158,2.189
-0.0083,2.19
0.0157,2.191
0.03,2.192
0.0285,2.193
0.0307,2.194
0.03,2.195
0.0045,2.196
-0.0458,2.197
-0.0885,2.198
-0.0878,2.199
-0.0405,2.2
-0.0098,2.201
-0.0105,2.202
-0.0158,2.203
-0.0165,2.204
0.0045,2.205
0.0262,2.206
0.048,2.207
0.0562,2.208
0.0442,2.209
0.0277,2.21
0.009,2.211
-0.0038,2.212
-0.0405,2.213
-0.075,2.214
-0.0533,2.215
-0.0195,2.216
-0.006,2.217
0.0112,2.218
0.0277,2.219
0.0292,2.22
0.0262,2.221
0.0067,2.222
-0.0338,2.223
-0.0428,2.224
0.0165,2.225
0.0442,2.226
0.0255,2.227
0.0202,2.228
0.0015,2.229
-0.0015,2.23
0.0007,2.231
0.0255,2.232
0.0645,2.233
0.069,2.234
0.0472,2.235
0.0135,2.236
0.0105,2.237
0.0045,2.238
-0.0218,2.239
-0.0503,2.24
-0.0675,2.241
-0.0308,2.242
-0.0323,2.243
-0.0795,2.244
-0.1088,2.245
-0.0938,2.246
-0.0361,2.247
-0.0083,2.248
0.0067,2.249
0.0232,2.25
0.0232,2.251
0.0277,2.252
0.0255,2.253
0.0255,2.254
0.024,2.255
0.0232,2.256
0.0217,2.257
0.0195,2.258
0.0195,2.259
0.0157,2.26
0.0142,2.261
0.0127,2.262
0.0112,2.263
0.0067,2.264
0.0045,2.265
0.0007,2.266
-0.0008,2.267
0.0015,2.268
0.0015,2.269
0.0022,2.27
0.003,2.271
0.0037,2.272
0.0052,2.273
0.006,2.274
0.006,2.275
0.0052,2.276
0.0022,2.277
0.0007,2.278
0.0,2.279
0.0,2.28
0.0015,2.281
-0.0015,2.282
-0.0053,2.283
-0.0068,2.284
-0.0053,2.285
-0.0023,2.286
-0.0015,2.287
0.0007,2.288
-0.0008,2.289
-0.0008,2.29
0.0,2.291
-0.0015,2.292
-0.0105,2.293
-0.0218,2.294
-0.027,2.295
-0.0195,2.296
-0.0143,2.297
-0.0158,2.298
-0.0128,2.299
0.0007,2.3
0.0142,2.301
0.0202,2.302
0.024,2.303
0.0285,2.304
0.0382,2.305
0.0442,2.306
0.0495,2.307
0.0487,2.308
0.036,2.309
0.0232,2.31
0.0067,2.311
-0.0188,2.312
-0.0518,2.313
-0.0803,2.314
-0.09,2.315
-0.0915,2.316
-0.078,2.317
-0.0308,2.318
-0.0053,2.319
0.0,2.32
0.0097,2.321
0.0075,2.322
0.0157,2.323
0.0165,2.324
0.0187,2.325
0.0195,2.326
0.0142,2.327
0.0157,2.328
0.0135,2.329
0.0127,2.33
0.0082,2.331
0.0052,2.332
0.0045,2.333
0.0045,2.334
0.0045,2.335
0.003,2.336
0.012,2.337
0.015,2.338
0.0105,2.339
0.0037,2.34
-0.0008,2.341
-0.003,2.342
-0.006,2.343
-0.012,2.344
-0.0195,2.345
-0.015,2.346
0.0045,2.347
0.018,2.348
0.0165,2.349
0.0135,2.35
0.0217,2.351
0.03,2.352
0.0277,2.353
0.027,2.354
0.0337,2.355
0.0285,2.356
-0.0008,2.357
-0.033,2.358
-0.0713,2.359
-0.0833,2.36
-0.0443,2.361
-0.0158,2.362
-0.003,2.363
0.0142,2.364
0.027,2.365
0.0367,2.366
0.0337,2.367
0.0247,2.368
0.0172,2.369
0.0015,2.37
-0.0248,2.371
-0.0495,2.372
-0.0511,2.373
-0.0525,2.374
-0.0465,2.375
-0.0135,2.376
-0.0008,2.377
0.0015,2.378
0.006,2.379
0.0075,2.38
0.0112,2.381
0.009,2.382
0.0045,2.383
0.0067,2.384
0.0127,2.385
0.0187,2.386
0.0217,2.387
0.0202,2.388
0.0165,2.389
0.0142,2.39
0.0112,2.391
0.0082,2.392
0.0037,2.393
0.0007,2.394
0.0007,2.395
0.0,2.396
0.0007,2.397
0.0007,2.398
-0.0015,2.399
-0.0015,2.4
-0.0008,2.401
0.0022,2.402
0.0022,2.403
-0.003,2.404
-0.0083,2.405
-0.0113,2.406
-0.0068,2.407
-0.0015,2.408
0.0022,2.409
-0.003,2.41
-0.0218,2.411
-0.0256,2.412
-0.0008,2.413
0.0217,2.414
0.018,2.415
-0.0038,2.416
-0.0278,2.417
-0.033,2.418
-0.0165,2.419
0.0022,2.42
0.0127,2.421
0.0082,2.422
-0.0008,2.423
-0.006,2.424
-0.0098,2.425
-0.0143,2.426
-0.0083,2.427
0.0105,2.428
0.0292,2.429
0.0405,2.43
0.0382,2.431
0.018,2.432
-0.0158,2.433
-0.033,2.434
-0.024,2.435
-0.0128,2.436
-0.0053,2.437
-0.0015,2.438
-0.0038,2.439
