VaMe,time
0.006112185136460759,0.001
0.02968211776616366,0.002
0.05043900482006254,0.003
0.06636850748159785,0.004
0.0767483851133494,0.005
0.08245278127755673,0.006
0.08544035631220523,0.007
0.0877333946448407,0.008
0.09042186309163476,0.009
0.09302407767323267,0.01
0.09335432206286574,0.011
0.08804519493526818,0.012
0.07378033015798481,0.013
0.04879981033542597,0.014
0.013911750684628282,0.015
-0.027306873590880108,0.016
-0.06897634848520409,0.017
-0.10414102375928513,0.018
-0.12685444805608379,0.019
-0.13415064188702983,0.02
-0.12629402916261026,0.021
-0.1052411502575611,0.022
-0.073108744904123,0.023
-0.03200610802579294,0.024
0.015036555671169132,0.025
0.0631440110115622,0.026
0.10571203922709532,0.027
0.13579427396919425,0.028
0.14786494375312356,0.029
0.13886832743729483,0.03
0.10854974274099208,0.031
0.059868745757165415,0.032
-0.00034755352376578087,0.033
-0.06155426380254866,0.034
-0.1118325405550898,0.035
-0.14224681954559026,0.036
-0.1503443407799904,0.037
-0.1398391163265715,0.038
-0.11710323327200665,0.039
-0.08776084370428648,0.04
-0.05546307661599912,0.041
-0.022371767237940293,0.042
0.009977161744544685,0.043
0.040018778637730144,0.044
0.0657511969189555,0.045
0.08476106162278416,0.046
0.09473552958200178,0.047
0.09416952792184916,0.048
0.08303310941223373,0.049
0.06331495301501731,0.05
0.039317467480950004,0.051
0.01725602207537552,0.052
0.003490559807118016,0.053
0.0016624580101586481,0.054
0.010568440641008836,0.055
0.024413301760741253,0.056
0.03515757533182836,0.057
0.03563614229100401,0.058
0.02229710725915041,0.059
-0.0035546678575395793,0.06
-0.03660596352575029,0.061
-0.06979905900830262,0.062
-0.09665985526154457,0.063
-0.11261328217383597,0.064
-0.11519629921960081,0.065
-0.10409442140449271,0.066
-0.08142118705467945,0.067
-0.05144039184094461,0.068
-0.01924524070807102,0.069
0.010854404809982347,0.07
0.03616466724696502,0.071
0.055388219206630375,0.072
0.06795915373433505,0.073
0.07364067154151543,0.074
0.07261502764281477,0.075
0.06582164004605129,0.076
0.05517033719948704,0.077
0.043355726571883246,0.078
0.03314801553866105,0.079
0.02643012394926357,0.08
0.023574580931889445,0.081
0.023361899916157232,0.082
0.02308140353505408,0.083
0.018856075445857986,0.084
0.0069326321465250345,0.085
-0.014032110684320639,0.086
-0.04119971274043654,0.087
-0.06798961379992842,0.088
-0.08681264379911444,0.089
-0.09243525478649484,0.09
-0.08399646900844959,0.091
-0.06473871033605316,0.092
-0.04002042200139607,0.093
-0.015129581756167585,0.094
0.006016194074511451,0.095
0.021225314983574172,0.096
0.029818303641961932,0.097
0.032241523595892975,0.098
0.02980798002891054,0.099
0.024578242688206485,0.1
0.019207258639905963,0.101
0.01665854266461941,0.102
0.01971856430234782,0.103
0.030160339617846244,0.104
0.04768191900927538,0.105
0.06937339930933166,0.106
0.09033631223598883,0.107
0.104926584848303,0.108
0.1077220855881408,0.109
0.09436002603928194,0.11
0.06278948206370315,0.111
0.014601824386216615,0.112
-0.04450797227622896,0.113
-0.10587846187737715,0.114
-0.1602552614939021,0.115
-0.19981866650066513,0.116
-0.21903503109520778,0.117
-0.21526646050164963,0.118
-0.18968070540424115,0.119
-0.14736757094923605,0.12
-0.09565803575681055,0.121
-0.04128170191992539,0.122
0.011875198607124753,0.123
0.0632198074251957,0.124
0.11420293180595839,0.125
0.1659504869825658,0.126
0.2166443064770689,0.127
0.260069629901112,0.128
0.28640580955347905,0.129
0.2849262221143379,0.13
0.247313534271294,0.131
0.17065497822098863,0.132
0.05986390306280647,0.133
-0.071061437413848,0.134
-0.20048661755234734,0.135
-0.30420393956432784,0.136
-0.36260360393108926,0.137
-0.36677179479959254,0.138
-0.3204982256430687,0.139
-0.23703089680650782,0.14
-0.13259077739779232,0.141
-0.020826513654508855,0.142
0.08901376202008368,0.143
0.19070407367124803,0.144
0.2784640670042232,0.145
0.3448024312034962,0.146
0.37989254582275916,0.147
0.3733021854923169,0.148
0.3178631418921501,0.149
0.2138919299973731,0.15
0.07172548338901558,0.151
-0.08848303600432526,0.152
-0.2398374706903986,0.153
-0.35430639913081785,0.154
-0.41035885443011005,0.155
-0.40051535812287575,0.156
-0.33429929328102853,0.157
-0.23377125847570895,0.158
-0.1245351645551106,0.159
-0.027773631894430325,0.16
0.043793401761459946,0.161
0.08634589160768567,0.162
0.10314255808436615,0.163
0.10172038528167675,0.164
0.09107839361073733,0.165
0.07938482016164286,0.166
0.07247887631053378,0.167
0.07329057954978807,0.168
0.08203547488410498,0.169
0.09681136150907102,0.17
0.11426983069362094,0.171
0.13023496079263366,0.172
0.14027525718819747,0.173
0.14023323605685337,0.174
0.1266728091248397,0.175
0.09727773686127675,0.176
0.05149494954529814,0.177
-0.008189588885816378,0.178
-0.0748115514833989,0.179
-0.13711785346836933,0.18
-0.18257798992658875,0.181
-0.20171017682508882,0.182
-0.1910169620923984,0.183
-0.15340221293744954,0.184
-0.09667501960505506,0.185
-0.031313836265805216,0.186
0.031601275625163995,0.187
0.08207834761845938,0.188
0.11261850963817606,0.189
0.11923472956096443,0.19
0.10197670328074296,0.191
0.06501694788310176,0.192
0.01621313752960993,0.193
-0.03417214685926068,0.194
-0.07575981221157395,0.195
-0.10090400795090121,0.196
-0.10685180516010946,0.197
-0.09586467135343484,0.198
-0.07329142071004403,0.199
-0.04511756638324317,0.2
-0.01633268597450799,0.201
0.009748280770663696,0.202
0.03152848892973602,0.203
0.048795912697430256,0.204
0.06227969924201313,0.205
0.07325072579920987,0.206
0.08317520250339488,0.207
0.09337591238995203,0.208
0.10443315297191347,0.209
0.11505206145781051,0.21
0.12108119999929928,0.211
0.11606383369890778,0.212
0.0936077780741419,0.213
0.050315208803313104,0.214
-0.01208546956834284,0.215
-0.0859877138681951,0.216
-0.1587236556962359,0.217
-0.21525858817497304,0.218
-0.2428390078450692,0.219
-0.23588660837088718,0.22
-0.19774250463745674,0.221
-0.13782312210726977,0.222
-0.06684867192710983,0.223
0.0063701851502996655,0.224
0.07566985256230235,0.225
0.1366317897858144,0.226
0.18510778359858568,0.227
0.21615334255971425,0.228
0.22405458006779416,0.229
0.2038097382336854,0.23
0.1538276596354816,0.231
0.07857647365042024,0.232
-0.010565586495146896,0.233
-0.09716298885895379,0.234
-0.16367145327460686,0.235
-0.19597791605322387,0.236
-0.18720514460593932,0.237
-0.1398831776079173,0.238
-0.06572167918493285,0.239
0.017279181549507715,0.24
0.08960418932345114,0.241
0.135275655672067,0.242
0.14548042225000493,0.243
0.11990736737982077,0.244
0.06604052323834991,0.245
-0.003033152396782886,0.246
-0.07197756640276146,0.247
-0.1272614583816501,0.248
-0.16048568141977995,0.249
-0.16905222738605954,0.25
-0.15421522649622527,0.251
-0.11865780144835866,0.252
-0.06521819718762599,0.253
0.0027040916894622447,0.254
0.07934470118214902,0.255
0.154973465995879,0.256
0.21641361022719677,0.257
0.2500262225551346,0.258
0.24571512207740548,0.259
0.20027545007495365,0.26
0.11915331656195177,0.261
0.016088469669018418,0.262
-0.08966379000291996,0.263
-0.1783283929137941,0.264
-0.23526767094450357,0.265
-0.25423916674560115,0.266
-0.23674562923123293,0.267
-0.1895424691087161,0.268
-0.12235710224953791,0.269
-0.0456631302197251,0.27
0.031314557504826604,0.271
0.10147264597449372,0.272
0.15953495484333474,0.273
0.2011886825993558,0.274
0.22247241059626183,0.275
0.22005854810202619,0.276
0.19223842579164083,0.277
0.13995353218578843,0.278
0.06760720695874885,0.279
-0.016391757991149822,0.28
-0.09971775643213564,0.281
-0.167489596838778,0.282
-0.2056767158462742,0.283
-0.2061276097155428,0.284
-0.170192496196667,0.285
-0.10807092418188259,0.286
-0.034926064289857964,0.287
0.03318000969604924,0.288
0.08227184471867584,0.289
0.1027533115159153,0.29
0.091348454505696,0.291
0.052421814994221015,0.292
-0.002271241199049907,0.293
-0.05656637592608544,0.294
-0.09552363096393335,0.295
-0.11103588454917053,0.296
-0.10371159388913415,0.297
-0.08026307611344424,0.298
-0.04914917840617329,0.299
-0.017144153448977736,0.3
0.012385474846039394,0.301
0.03953464257128359,0.302
0.06647953257183757,0.303
0.09521990268080606,0.304
0.125296170076859,0.305
0.15248091583893061,0.306
0.16930563816367253,0.307
0.16754285075209008,0.308
0.14146422761873212,0.309
0.09021433025032134,0.31
0.018743083656153257,0.311
-0.06238992834585822,0.312
-0.13856535364114,0.313
-0.19469958047568145,0.314
-0.22024734606652246,0.315
-0.21276392736876307,0.316
-0.177555432161721,0.317
-0.12417683181208033,0.318
-0.06245500990788111,0.319
8.998487466238363e-05,0.32
0.05896217852128242,0.321
0.11207277607373083,0.322
0.15862722684918867,0.323
0.19794786910482526,0.324
0.22840371801805645,0.325
0.2466565375548381,0.326
0.24733558323283406,0.327
0.22358776259788235,0.328
0.16942979493787425,0.329
0.08369404153835527,0.33
-0.02665822510446838,0.331
-0.14631052610014383,0.332
-0.2552794761337349,0.333
-0.33491368812062566,0.334
-0.3727662289899898,0.335
-0.36443248168174014,0.336
-0.31353617882885126,0.337
-0.23101064776908276,0.338
-0.1329952999018583,0.339
-0.036795973229588275,0.34
0.04371869458914852,0.341
0.10086279466349564,0.342
0.13307528985326667,0.343
0.14325257987492743,0.344
0.13698293712481324,0.345
0.12120474514905782,0.346
0.10298217682395312,0.347
0.0880845913037935,0.348
0.07975158579530178,0.349
0.07829127368847755,0.35
0.08160933674878634,0.351
0.08626328897500474,0.352
0.08848835395873965,0.353
0.08482562569695963,0.354
0.07248078202678038,0.355
0.04984689213480307,0.356
0.017373567791723204,0.357
-0.02176911327035998,0.358
-0.062237710865171735,0.359
-0.0983896574371572,0.36
-0.12616397802114662,0.361
-0.14357632893734137,0.362
-0.14972586612079858,0.363
-0.14340994059120643,0.364
-0.12255144053697489,0.365
-0.08469839533352591,0.366
-0.02808671058900658,0.367
0.04690579317905011,0.368
0.13576662259737415,0.369
0.22802901206582935,0.37
0.30725841809044474,0.371
0.3538885729825063,0.372
0.35014824516987236,0.373
0.285284569758575,0.374
0.16008319974937324,0.375
-0.00975748551984077,0.376
-0.19360184472133327,0.377
-0.35269070619224174,0.378
-0.45350006162448286,0.379
-0.4805093313919057,0.38
-0.4396957699088577,0.381
-0.3513300082167743,0.382
-0.23881200705607794,0.383
-0.12072379770976735,0.384
-0.008248596874383589,0.385
0.093697749945854,0.386
0.1836958146277266,0.387
0.26044158076036267,0.388
0.3198075764193245,0.389
0.3539710937049722,0.39
0.3534209275419697,0.391
0.31094741032976114,0.392
0.22587469689172282,0.393
0.1069717221569466,0.394
-0.027257574818945085,0.395
-0.1518919427145595,0.396
-0.24272663435308736,0.397
-0.2849597435003938,0.398
-0.27808442062659966,0.399
-0.2336238521855794,0.4
-0.16845427014270278,0.401
-0.09852720867027173,0.402
-0.035273761105496876,0.403
0.015418391865064144,0.404
0.05266163283955771,0.405
0.07912515984097157,0.406
0.09899792369801101,0.407
0.11591657855689404,0.408
0.1313828782864872,0.409
0.14402591385570496,0.41
0.15006894743668112,0.411
0.1449511091876594,0.412
0.1252513178662523,0.413
0.08996106378162914,0.414
0.041114853189595936,0.415
-0.01576329372847379,0.416
-0.07194630529272913,0.417
-0.11757029017523378,0.418
-0.14488112741964654,0.419
-0.15063981209861882,0.42
-0.1366628111042929,0.421
-0.10882786895070984,0.422
-0.07494950486761597,0.423
-0.04218439292026371,0.424
-0.015237481074337398,0.425
0.00397094720449617,0.426
0.015691971786949668,0.427
0.02149088398245472,0.428
0.023463606805584798,0.429
0.023622809401782945,0.43
0.023498780599870463,0.431
0.023981638059677464,0.432
0.025375226099031416,0.433
0.027601530736065055,0.434
0.030471059237678927,0.435
0.03391726430761143,0.436
0.038095388690486016,0.437
0.04319658485492219,0.438
0.04882086340846284,0.439
0.05313732536627106,0.44
0.05275614442057725,0.441
0.044062134239346795,0.442
0.025263547870752648,0.443
-0.0024381342335770143,0.444
-0.035189070559391515,0.445
-0.06775468721371182,0.446
-0.09476383343765125,0.447
-0.11153191234738075,0.448
-0.11493259098384911,0.449
-0.10425854795469801,0.45
-0.0811871566452264,0.451
-0.04881018571249367,0.452
-0.010532751806113185,0.453
0.030592601311333647,0.454
0.07185897850024363,0.455
0.11033850987395376,0.456
0.14225907860010814,0.457
0.16289650702265046,0.458
0.16729913263355053,0.459
0.15152725099554104,0.46
0.11367946892874485,0.461
0.05469713279370657,0.462
-0.020505894828843896,0.463
-0.1021752785946546,0.464
-0.17676813767198046,0.465
-0.2304597273757487,0.466
-0.25333521835833095,0.467
-0.2417820210169262,0.468
-0.19833010784299246,0.469
-0.13007415316273918,0.47
-0.04690080081353414,0.471
0.04025038310129317,0.472
0.12107963416305262,0.473
0.18690838884138816,0.474
0.2306426932792726,0.475
0.2464470086490471,0.476
0.23005091378539008,0.477
0.18034626865395964,0.478
0.10193030975220371,0.479
0.006646209051886285,0.48
-0.08775495102283079,0.481
-0.1618058465015339,0.482
-0.1998630668310981,0.483
-0.19494174897438366,0.484
-0.15086361507012416,0.485
-0.08082152844180977,0.486
-0.0030322464303687725,0.487
0.06455707866774914,0.488
0.108356837862215,0.489
0.12129054034736415,0.49
0.10358297663969998,0.491
0.06253515899199281,0.492
0.010867359943136772,0.493
-0.03673720396613283,0.494
-0.06797133881360579,0.495
-0.07614420830659183,0.496
-0.06114522919333289,0.497
-0.028597939641429246,0.498
0.012029783995801414,0.499
0.050081715506307155,0.5
0.07643096751372983,0.501
0.08527785354780423,0.502
0.07493753545597437,0.503
0.04788452734521782,0.504
0.009857657020866996,0.505
-0.03179417322743335,0.506
-0.06975104270100706,0.507
-0.09797810969937142,0.508
-0.11257974457199425,0.509
-0.11210452853004821,0.51
-0.09743077570290017,0.511
-0.07150408708694658,0.512
-0.038845861198665003,0.513
-0.004844875035371267,0.514
0.02497990762702413,0.515
0.04584638108632822,0.516
0.05470575592209962,0.517
0.05095905464654702,0.518
0.036645838869623644,0.519
0.016159717766635703,0.52
-0.004500110992177867,0.521
-0.018824515120055983,0.522
-0.020895626097303083,0.523
-0.00633039761954087,0.524
0.02678233896397343,0.525
0.07684651331470334,0.526
0.13777241416748395,0.527
0.19845722671676408,0.528
0.24362033872326966,0.529
0.25710526726912014,0.53
0.22740134205621668,0.531
0.1526005797543668,0.532
0.041713561589572325,0.533
-0.08764935815542327,0.534
-0.2129263073340288,0.535
-0.3106694043266124,0.536
-0.36218571750865786,0.537
-0.3600693628157168,0.538
-0.311004472108076,0.539
-0.2317734525739966,0.54
-0.14183140077287573,0.541
-0.057524380098581365,0.542
0.010677054722894399,0.543
0.058683234704527125,0.544
0.08768135815753857,0.545
0.10217197996537955,0.546
0.1078996591940314,0.547
0.11013757451836197,0.548
0.11255431625339654,0.549
0.11669746148160427,0.55
0.12199775370993682,0.551
0.12614610281441443,0.552
0.12570831747759625,0.553
0.1169722486609382,0.554
0.0970776190312219,0.555
0.06520534414607856,0.556
0.023338878511659302,0.557
-0.023797793616576947,0.558
-0.06975118359212075,0.559
-0.10795335876988293,0.56
-0.1332476864322906,0.561
-0.14292050074020735,0.562
-0.13705502361582655,0.563
-0.11812035726437772,0.564
-0.09018540337365426,0.565
-0.05796356937386329,0.566
-0.025470035236847433,0.567
0.005233228503477784,0.568
0.034316598401303404,0.569
0.06333104757660624,0.57
0.09372190830359295,0.571
0.12541765326138846,0.572
0.1561104180726162,0.573
0.18131819773089505,0.574
0.19492976503075854,0.575
0.19025106889607432,0.576
0.1618742725875525,0.577
0.10814291749651218,0.578
0.033058357784364244,0.579
-0.05378793187090776,0.58
-0.139546273567869,0.581
-0.21135272212373968,0.582
-0.25903734127484757,0.583
-0.2769443097226136,0.584
-0.26478351078897994,0.585
-0.2272768104844643,0.586
-0.17273147599778005,0.587
-0.1108512517706259,0.588
-0.05020126657929231,0.589
0.0036954231504840026,0.59
0.0487556402147819,0.591
0.08535131774399658,0.592
0.1146947440971701,0.593
0.13743210846860687,0.594
0.15299678620524096,0.595
0.15970747727754048,0.596
0.1553367696971806,0.597
0.1379619845764001,0.598
0.10698359508823212,0.599
0.0641036220588397,0.6
0.013861713902918465,0.601
-0.03669186019788427,0.602
-0.07935567840679833,0.603
-0.10676437186172458,0.604
-0.11402188313490368,0.605
-0.09948096549695308,0.606
-0.06504828213594281,0.607
-0.01602729993508707,0.608
0.03975380150186062,0.609
0.09304020323478494,0.61
0.1341299536782092,0.611
0.15412334936706906,0.612
0.1466225509334865,0.613
0.10956740142312107,0.614
0.046751453431164325,0.615
-0.03163884099355721,0.616
-0.11043838907384029,0.617
-0.17340358487248533,0.618
-0.2084312487814094,0.619
-0.21136639557137382,0.62
-0.18616292615074417,0.621
-0.1416152596556068,0.622
-0.08697675370456133,0.623
-0.02888632932456021,0.624
0.02935063142435919,0.625
0.0865101194049232,0.626
0.14118378619268357,0.627
0.18959496503050918,0.628
0.22462905679784814,0.629
0.23680616773126423,0.63
0.2171202654180487,0.631
0.16083688506602223,0.632
0.07101535686866672,0.633
-0.039529031212444506,0.634
-0.14950500262178584,0.635
-0.23486180089061767,0.636
-0.27747115419666535,0.637
-0.2721920469074715,0.638
-0.2277761409957632,0.639
-0.16143856546394453,0.64
-0.0913074759716586,0.641
-0.030905884553110587,0.642
0.013035265095133025,0.643
0.04023035018401845,0.644
0.05525069669567174,0.645
0.06547534189322093,0.646
0.07882556686541414,0.647
0.10148296824034873,0.648
0.13596262087742025,0.649
0.1800579219825357,0.65
0.2270045602908704,0.651
0.2665843883957202,0.652
0.2866240001275628,0.653
0.275144852377049,0.654
0.22389787077072215,0.655
0.13248589983472953,0.656
0.010424963913388452,0.657
-0.12459015738068542,0.658
-0.2509958193762226,0.659
-0.3479357690072863,0.66
-0.3994845025991116,0.661
-0.3986826786052588,0.662
-0.3497574609157007,0.663
-0.2663916823530291,0.664
-0.16670914715473945,0.665
-0.06791498850563689,0.666
0.017227099926131886,0.667
0.0817000852012298,0.668
0.12379937742873538,0.669
0.14560337203552284,0.67
0.15112720769585788,0.671
0.14477203647467754,0.672
0.13032368566731736,0.673
0.11060354141999296,0.674
0.08771896896871488,0.675
0.06359255385406017,0.676
0.04037797874434586,0.677
0.020587971699362537,0.678
0.0069260248473470495,0.679
0.001780800302283031,0.68
0.006276461605580352,0.681
0.01905859918695763,0.682
0.035727052442207904,0.683
0.049883780919503865,0.684
0.05543232904997775,0.685
0.048677974304231875,0.686
0.02929578131332866,0.687
0.00022683667565339598,0.688
-0.03311229721610637,0.689
-0.06410153903405603,0.69
-0.08661174470317827,0.691
-0.09674787769443619,0.692
-0.0937979862158106,0.693
-0.07985322893544013,0.694
-0.05864387344760779,0.695
-0.03449683278972118,0.696
-0.011620648943314854,0.697
0.006474770081197457,0.698
0.01747465877455054,0.699
0.0205423314477149,0.7
0.016276920673808985,0.701
0.0065106688858784815,0.702
-0.0059492545462357625,0.703
-0.017773615752715022,0.704
-0.025759254369632136,0.705
-0.02755896417234464,0.706
-0.022337447688798556,0.707
-0.010991702261594108,0.708
0.004282695676826956,0.709
0.020759117340245676,0.71
0.03588621128693098,0.711
0.04788912228829575,0.712
0.056216943118697016,0.713
0.06166535327068059,0.714
0.06615974830443955,0.715
0.07216576512589992,0.716
0.08155087353565615,0.717
0.09407807931501902,0.718
0.10626248403720294,0.719
0.11140293377251968,0.72
0.10117512624505338,0.721
0.06849341422833866,0.722
0.01082962732401077,0.723
-0.06712252360714185,0.724
-0.15283284892484167,0.725
-0.22849416491640331,0.726
-0.2763646224182678,0.727
-0.2846053192795569,0.728
-0.25079258119497705,0.729
-0.1815791707108747,0.73
-0.08943332657093632,0.731
0.010855661789047878,0.732
0.1042848055819396,0.733
0.17704506696749855,0.734
0.21824534309899993,0.735
0.22185079327571974,0.736
0.1882071632509761,0.737
0.12464129227499149,0.738
0.0447375432013084,0.739
-0.03403875262245382,0.74
-0.09450680523856554,0.741
-0.12502035501071657,0.742
-0.1233680458598069,0.743
-0.09656197123881671,0.744
-0.056653624682264446,0.745
-0.01561707850366367,0.746
0.01803827110800961,0.747
0.04025016347040939,0.748
0.05065028660280168,0.749
0.051206398792956444,0.75
0.04503890719362178,0.751
0.03546412645099697,0.752
0.025102979019051074,0.753
0.0153167961387341,0.754
0.006298197539929191,0.755
-0.0023753208735725596,0.756
-0.011051349276341497,0.757
-0.019259907509072256,0.758
-0.025101799413618595,0.759
-0.025179378934199553,0.76
-0.015372051559554728,0.761
0.0075564193088785165,0.762
0.043976159381794604,0.763
0.089971664959181,0.764
0.137344919978627,0.765
0.17511000585490075,0.766
0.19175620222642006,0.767
0.17765546690399595,0.768
0.12775035809680615,0.769
0.044426376084602,0.77
-0.06086967098984018,0.771
-0.16902832248778116,0.772
-0.25807304383974167,0.773
-0.3098074899858292,0.774
-0.3154387331384353,0.775
-0.2776795488647292,0.776
-0.20878206915939773,0.777
-0.12577899619243532,0.778
-0.04508325647946385,0.779
0.02149184143384473,0.78
0.0683159713300857,0.781
0.09540750319018643,0.782
0.10665227070156706,0.783
0.10765218455134667,0.784
0.10382404158748387,0.785
0.09911058038718285,0.786
0.09543613340722938,0.787
0.0928084930933632,0.788
0.08984486126007682,0.789
0.08450212957910432,0.79
0.07486668739529248,0.791
0.059898870890515474,0.792
0.03999119927893296,0.793
0.01713017714651262,0.794
-0.005611854584882964,0.795
-0.025240295809850807,0.796
-0.039950636226256775,0.797
-0.04942428216551364,0.798
-0.05443697839032898,0.799
-0.05623751901644881,0.8
-0.05573504332010914,0.801
-0.05282916108114735,0.802
-0.046522442764866966,0.803
-0.03573206615684267,0.804
-0.02016302876729223,0.805
-0.0007751833426678194,0.806
0.02025415290055804,0.807
0.039908049835056705,0.808
0.05487638869412918,0.809
0.06214884033447785,0.81
0.05960308142713534,0.811
0.04656936889612659,0.812
0.02423449532133003,0.813
-0.004295474600146464,0.814
-0.03444243246477981,0.815
-0.061128077963720134,0.816
-0.07992926849364919,0.817
-0.08801901541492133,0.818
-0.08470511102769018,0.819
-0.07144890045673691,0.82
-0.05130813066569585,0.821
-0.027921261807456216,0.822
-0.0044222987547067475,0.823
0.01715176007094181,0.824
0.0357588687386616,0.825
0.05090150754708428,0.826
0.06219902983096973,0.827
0.06909970884199891,0.828
0.07078108844481981,0.829
0.06631468899160219,0.83
0.055100150373499746,0.831
0.037406088448036355,0.832
0.014868744632701282,0.833
-0.009084160456996043,0.834
-0.029248829776493502,0.835
-0.03980302920024117,0.836
-0.03662936291316529,0.837
-0.019610335728481962,0.838
0.006587355333988312,0.839
0.03376448463232931,0.84
0.05283067265167858,0.841
0.056695305086808354,0.842
0.04251819486111605,0.843
0.012877312124555033,0.844
-0.024578062971899454,0.845
-0.0593961738247539,0.846
-0.0820473760089123,0.847
-0.08751652582228316,0.848
-0.0769568064781155,0.849
-0.05656993355084273,0.85
-0.034471612006692326,0.851
-0.01729235278480224,0.852
-0.00794709426265928,0.853
-0.005145874864407045,0.854
-0.004592952137190142,0.855
-0.001306031091802429,0.856
0.007943918593708129,0.857
0.02313809423157295,0.858
0.04105097673623504,0.859
0.056619015039328036,0.86
0.06486790573712775,0.861
0.06250744489215274,0.862
0.048688463028567545,0.863
0.025124628668800216,0.864
-0.004062589317127554,0.865
-0.03291621878817742,0.866
-0.05497859879074102,0.867
-0.06523224821020451,0.868
-0.06173529767107024,0.869
-0.04596995971097418,0.87
-0.021914754167863874,0.871
0.005287709474864354,0.872
0.030452041200924318,0.873
0.04920010997428292,0.874
0.05853910991794306,0.875
0.05710617906141156,0.876
0.04513557744826715,0.877
0.02444079184743595,0.878
-0.0012796744926977127,0.879
-0.026171503149282845,0.88
-0.04297376466223723,0.881
-0.04520308096358279,0.882
-0.029881466551210323,0.883
0.0007297627251224113,0.884
0.03937712020929708,0.885
0.0758021986936715,0.886
0.09933728217517548,0.887
0.10128379881762718,0.888
0.07720218000648726,0.889
0.029217113817932797,0.89
-0.0329141450466971,0.891
-0.0940056784348897,0.892
-0.13912276775358348,0.893
-0.15957706548349843,0.894
-0.1550864223593051,0.895
-0.13125237198723763,0.896
-0.09550065296379925,0.897
-0.05460593381798076,0.898
-0.014009133598740797,0.899
0.022378343934980616,0.9
0.05244659434958186,0.901
0.07581256010414794,0.902
0.09305295637160385,0.903
0.10461686408757934,0.904
0.11015534312124915,0.905
0.10868177620905328,0.906
0.09923435321684655,0.907
0.08136565450593737,0.908
0.05539253090730026,0.909
0.02296167744219037,0.91
-0.01210688710528502,0.911
-0.04395993734982833,0.912
-0.06677959587504713,0.913
-0.07756497003861627,0.914
-0.07733185567975227,0.915
-0.06989915089497467,0.916
-0.05943832025265377,0.917
-0.04861102862043952,0.918
-0.03821679062822383,0.919
-0.027878761309250884,0.92
-0.01691209299499,0.921
-0.0050605579105419745,0.922
0.0071179454078511405,0.923
0.01853720108099933,0.924
0.02823810410311872,0.925
0.03575286466172778,0.926
0.04104929176728877,0.927
0.044274936558405156,0.928
0.04539425540642833,0.929
0.04381791054273785,0.93
0.03836152189835204,0.931
0.02795251183331245,0.932
0.01284840331379066,0.933
-0.004804825487760307,0.934
-0.021828202985293744,0.935
-0.0354679898786208,0.936
-0.044198843778309765,0.937
-0.047646921396651366,0.938
-0.04615694650125393,0.939
-0.040467642193189865,0.94
-0.03159270064341488,0.941
-0.020615614860835747,0.942
-0.008336031333344988,0.943
0.004798795372474174,0.944
0.01830162153650239,0.945
0.031093588548334626,0.946
0.04122628786686114,0.947
0.046282429787470984,0.948
0.04435280282433671,0.949
0.034801271691603464,0.95
0.0183067834726226,0.951
-0.003337885567445387,0.952
-0.02705957385894263,0.953
-0.04837090704834348,0.954
-0.06224588690355848,0.955
-0.06502355863223853,0.956
-0.05596100826510549,0.957
-0.03715080498359856,0.958
-0.01210407576226473,0.959
0.015696744344720622,0.96
0.04350945850539354,0.961
0.06930816800573757,0.962
0.091202549032032,0.963
0.10664862403841438,0.964
0.11218786270263655,0.965
0.10428217130843494,0.966
0.08078803635334889,0.967
0.042090770064606965,0.968
-0.008390642481772003,0.969
-0.06394976842544084,0.97
-0.11468428904432552,0.971
-0.14916319578570833,0.972
-0.1585076093492861,0.973
-0.14088188817018502,0.974
-0.1026360609252525,0.975
-0.05501659142053809,0.976
-0.009233286957961696,0.977
0.026952097249406812,0.978
0.0500019978399946,0.979
0.05951081045993151,0.98
0.056948370515137785,0.981
0.04523576193767917,0.982
0.02865255331320151,0.983
0.012157800817598782,0.984
-6.226108402204126e-05,0.985
-0.006101568928908259,0.986
-0.006812157441340648,0.987
-0.004781536314542753,0.988
-0.002473922321749829,0.989
-0.0007361513705720233,0.99
0.0015139361589375515,0.991
0.0063602564782389145,0.992
0.015325494348481282,0.993
0.028117840098694485,0.994
0.042417932018151285,0.995
0.05467898422639178,0.996
0.06129217006834403,0.997
0.05948428973608694,0.998
0.04776337805728494,0.999
0.026228848200164703,1.0
-0.0029289354276454114,1.001
-0.0351342936951934,1.002
-0.06423997691661487,1.003
-0.08459945939681526,1.004
-0.09324092929099781,1.005
-0.09068714205474701,1.006
-0.07998203230188941,1.007
-0.06487125068530901,1.008
-0.04839825271368784,1.009
-0.03227989564335804,1.01
-0.016816359457633094,1.011
-0.0011251619465808401,1.012
0.016390886577007716,1.013
0.037320974654595516,1.014
0.06230278816276722,1.015
0.09013701642018496,1.016
0.11745723960973431,1.017
0.13938287560790474,1.018
0.1510586908519648,1.019
0.14923916722218045,1.02
0.13294978098849655,1.021
0.1031100773147137,1.022
0.061805927399881756,1.023
0.011866936897713797,1.024
-0.043239843180785505,1.025
-0.09960047197567339,1.026
-0.15296216540196003,1.027
-0.1982494192112835,1.028
-0.22910026174800927,1.029
-0.23893440237096783,1.03
-0.2238206725216306,1.031
-0.18506727540507628,1.032
-0.12915661449476698,1.033
-0.06517911851749003,1.034
-0.0017430110114742352,1.035
0.055203527022967554,1.036
0.10301132424694594,1.037
0.14139412581457836,1.038
0.17062609049640193,1.039
0.18990912241721353,1.04
0.19682421719418322,1.041
0.18814544559038865,1.042
0.16135323546632993,1.043
0.11606227333860872,1.044
0.05518745708994438,1.045
-0.01428390543629686,1.046
-0.08149965479379793,1.047
-0.13369703186836918,1.048
-0.1601854519122056,1.049
-0.15681364155758876,1.05
-0.12774718051129022,1.051
-0.08320112526597641,1.052
-0.03513913860610375,1.053
0.006541601686402758,1.054
0.036159900893098514,1.055
0.05247221105493332,1.056
0.05747437400086283,1.057
0.054701518216760496,1.058
0.04773596821843505,1.059
0.039247666246305796,1.06
0.030623243663631117,1.061
0.022129246922409623,1.062
0.01340112830239285,1.063
0.003922799290732315,1.064
-0.006676413995157189,1.065
-0.018400749564952922,1.066
-0.030596629552699085,1.067
-0.0417166598390846,1.068
-0.049491919171568505,1.069
-0.051587703799089855,1.07
-0.046408038923124464,1.071
-0.03375138516486647,1.072
-0.015163856207143219,1.073
0.006146303742743956,1.074
0.025890264138349856,1.075
0.039752757075254073,1.076
0.044702098999943984,1.077
0.03999925846297858,1.078
0.027353125192722656,1.079
0.010167491561333274,1.08
-0.0076179116347618436,1.081
-0.022456974384180102,1.082
-0.0316197156835307,1.083
-0.033175912253299446,1.084
-0.025823674901105168,1.085
-0.0090544914510406,1.086
0.01617065179873762,1.087
0.04673648590656813,1.088
0.07725806159543445,1.089
0.10073023921379662,1.09
0.10997415537055076,1.091
0.09973012002681783,1.092
0.06868696607937784,1.093
0.020425094775100898,1.094
-0.03724316020501593,1.095
-0.09426084086567516,1.096
-0.14070196110063884,1.097
-0.16849687359320906,1.098
-0.17251149184210948,1.099
-0.15163632504992847,1.1
-0.10954449469929604,1.101
-0.05407936053910363,1.102
0.0048488105617119194,1.103
0.05779726199503465,1.104
0.09760590719993745,1.105
0.12014609530234234,1.106
0.12431873990208003,1.107
0.11167627138948552,1.108
0.08578831438258859,1.109
0.051440529175185205,1.11
0.013975206707818436,1.111
-0.0212225997844659,1.112
-0.049527922238863195,1.113
-0.0679315060654835,1.114
-0.07515576899856016,1.115
-0.0711951438761191,1.116
-0.05709533010340363,1.117
-0.035224440160135075,1.118
-0.009689798471042288,1.119
0.01389310743052045,1.12
0.029832115418706392,1.121
0.03434240166921998,1.122
0.026833840032519974,1.123
0.009862759239000275,1.124
-0.012020528738495581,1.125
-0.033753940759439834,1.126
-0.05074085804853539,1.127
-0.05905508428639694,1.128
-0.05526830749090999,1.129
-0.036303251564249024,1.13
0.0003970760790871353,1.131
0.05590465134459294,1.132
0.12785353661746948,1.133
0.20820912533134187,1.134
0.28233525600140524,1.135
0.33087015090095795,1.136
0.33443512778103235,1.137
0.2796677527257864,1.138
0.1648314975044601,1.139
0.003312111739293638,1.14
-0.17707805034034416,1.141
-0.3403711649993936,1.142
-0.45289018428625055,1.143
-0.4936747241876631,1.144
-0.46046159836522876,1.145
-0.36878876457520976,1.146
-0.24486022720316,1.147
-0.116044560353345,1.148
-0.003613409153341905,1.149
0.0802928030055913,1.15
0.13231572000862607,1.151
0.15577046499203814,1.152
0.15793600923477144,1.153
0.14745376638512855,1.154
0.13227817278830759,1.155
0.1183335650040157,1.156
0.10880409394840189,1.157
0.10399251267907847,1.158
0.10179039477552707,1.159
0.09873408054533908,1.16
0.09137990449411564,1.161
0.0775373534614697,1.162
0.05698081497808784,1.163
0.03151401409858936,1.164
0.004394803418977836,1.165
-0.02075139000494916,1.166
-0.041127141365801034,1.167
-0.055488453855901905,1.168
-0.06403193601530546,1.169
-0.06758351504169563,1.17
-0.06668312176652091,1.171
-0.061235476571507894,1.172
-0.05094549613526982,1.173
-0.03612262105225711,1.174
-0.01821292284276397,1.175
0.00029265016302999823,1.176
0.016454025756597032,1.177
0.0276248302841529,1.178
0.0320540600452633,1.179
0.02917719801173813,1.18
0.019596392036429027,1.181
0.0049482173782272754,1.182
-0.012162876343054024,1.183
-0.028260976411081107,1.184
-0.039516630764318716,1.185
-0.04295410304956784,1.186
-0.03781341651112153,1.187
-0.025927254563111214,1.188
-0.010743828273421612,1.189
0.004097612265454226,1.19
0.01572103544740231,1.191
0.022371952522584743,1.192
0.02335386002741634,1.193
0.018808569449990785,1.194
0.009727343338816924,1.195
-0.0018502484008186587,1.196
-0.012968436916374494,1.197
-0.020410426439809903,1.198
-0.021628154615100773,1.199
-0.015668730422075564,1.2
-0.003640266694230501,1.201
0.011692449593576482,1.202
0.02682779731761169,1.203
0.03829641203650029,1.204
0.043183383740968,1.205
0.03956802388923563,1.206
0.026948266138983448,1.207
0.006747535914212533,1.208
-0.017321162431230837,1.209
-0.0396418878119119,1.21
-0.05409948018783515,1.211
-0.05609100746580152,1.212
-0.04423170311118381,1.213
-0.020692006443272,1.214
0.010014924455128619,1.215
0.042615088500752206,1.216
0.07190079484787085,1.217
0.09291743888117948,1.218
0.10123952625680142,1.219
0.09368392789069521,1.22
0.06924659575531095,1.221
0.02992986068136275,1.222
-0.01874548220588772,1.223
-0.06801269500926863,1.224
-0.10772544094067008,1.225
-0.1296717055067055,1.226
-0.1304426779384903,1.227
-0.11205808015853803,1.228
-0.08045216222270515,1.229
-0.043060859996881265,1.23
-0.00664885856351757,1.231
0.02394289516665735,1.232
0.046033193322342375,1.233
0.05861300075931602,1.234
0.061619323977067736,1.235
0.055553543169227323,1.236
0.041712483373246886,1.237
0.0226830126704586,1.238
0.0024352286828700754,1.239
-0.014370847072010189,1.24
-0.02374006958263511,1.241
-0.023755636319170333,1.242
-0.015207028848985175,1.243
-0.0011000045489419122,1.244
0.0144783955826924,1.245
0.02754889287349735,1.246
0.035099347573641256,1.247
0.03542084730431688,1.248
0.02824798984206407,1.249
0.01502280227967503,1.25
-0.0011803933645827386,1.251
-0.0165325827295994,1.252
-0.027752145444665585,1.253
-0.03305374400064392,1.254
-0.032248757768080324,1.255
-0.02614172960178059,1.256
-0.015825511473310502,1.257
-0.0022749477551765283,1.258
0.013752311715654624,1.259
0.03155909023937603,1.26
0.050087933069260626,1.261
0.06733060980676045,1.262
0.0799679750730895,1.263
0.08382451875897512,1.264
0.07522588819532414,1.265
0.052468915546736695,1.266
0.016595957828157513,1.267
-0.02843934247758551,1.268
-0.07581816312379686,1.269
-0.1164883930245751,1.27
-0.14134443871131194,1.271
-0.1448446716812567,1.272
-0.12768143982850655,1.273
-0.09597846331411795,1.274
-0.0578264796478562,1.275
-0.02026953131193194,1.276
0.011816948905045001,1.277
0.035708605021346665,1.278
0.05057072004679626,1.279
0.05719772385905975,1.28
0.05765128156624919,1.281
0.054692103893134156,1.282
0.051021014105266334,1.283
0.04850311591740064,1.284
0.047692308963966985,1.285
0.04786309914333621,1.286
0.04746897034028128,1.287
0.04471849152303708,1.288
0.03795691979022018,1.289
0.025902408766431177,1.29
0.008090479112876447,1.291
-0.01446053239320536,1.292
-0.038870939816184086,1.293
-0.06077827994432688,1.294
-0.07560043804348013,1.295
-0.08031448547062744,1.296
-0.0746434302315666,1.297
-0.06066297587337825,1.298
-0.04130274469350485,1.299
-0.01910752665791302,1.3
0.004110496312563348,1.301
0.027001934847813373,1.302
0.04821221574613708,1.303
0.06601195316640915,1.304
0.07826214348009376,1.305
0.08280809264843078,1.306
0.07809238401894444,1.307
0.06368500410445944,1.308
0.04067320455813497,1.309
0.011933513080623242,1.31
-0.01790201946435715,1.311
-0.04320646367063801,1.312
-0.059096689594634495,1.313
-0.06344120417030723,1.314
-0.05767838654814761,1.315
-0.045740347998948876,1.316
-0.031913763677004776,1.317
-0.019192489923133545,1.318
-0.00900112315179831,1.319
-0.0018728844395191967,1.32
0.0019502787842181255,1.321
0.002623881471547608,1.322
0.0011981861916815295,1.323
-0.0004563845413707127,1.324
-0.0006794373838453772,1.325
0.0008776625829405585,1.326
0.0032170453145887808,1.327
0.005003432646039201,1.328
0.005507055765081363,1.329
0.004697696280554853,1.33
0.0027842905795890495,1.331
-6.77730389204975e-05,1.332
-0.0035127906833319618,1.333
-0.006633541909556325,1.334
-0.007983913809784325,1.335
-0.006210298334581025,1.336
-0.0007533881110842128,1.337
0.007907190740529185,1.338
0.018422324640868695,1.339
0.028745611386757658,1.34
0.0362283093270793,1.341
0.03806955242631289,1.342
0.032392237293937774,1.343
0.019368838690763942,1.344
0.0014919255019338368,1.345
-0.017217092970679953,1.346
-0.03256301621994236,1.347
-0.04147785094395098,1.348
-0.04276996571459734,1.349
-0.03709134244291016,1.35
-0.026329173206694416,1.351
-0.012821971877907649,1.352
0.0013395621964464909,1.353
0.01472475853369134,1.354
0.026538686420527327,1.355
0.036292965932985796,1.356
0.043486587901743624,1.357
0.04747104821364251,1.358
0.04739897287110903,1.359
0.042116920121871,1.36
0.03026982431888903,1.361
0.011094332393951146,1.362
-0.014261097649569529,1.363
-0.04190503929685073,1.364
-0.06589250638848952,1.365
-0.08043344611178833,1.366
-0.08242099431064352,1.367
-0.07273996429515665,1.368
-0.05553474883363736,1.369
-0.03604034016379623,1.37
-0.018455746644323125,1.371
-0.004781061578893761,1.372
0.005306709317980627,1.373
0.013769752461435157,1.374
0.023082864271603682,1.375
0.0350719181332205,1.376
0.050084653337038675,1.377
0.06673475165110752,1.378
0.08216803722136914,1.379
0.09259921338796458,1.38
0.09404105976828923,1.381
0.08339245418764556,1.382
0.05984805849245713,1.383
0.02599238499410146,1.384
-0.012455668968028188,1.385
-0.04858379657808921,1.386
-0.07668842782119539,1.387
-0.09353841565561727,1.388
-0.09830090161864397,1.389
-0.0920009474656484,1.39
-0.07710000157718509,1.391
-0.05709771534329622,1.392
-0.035773919445603264,1.393
-0.016153054413907564,1.394
0.00013073497944863323,1.395
0.012735458203254954,1.396
0.02210988789853274,1.397
0.028966731316285747,1.398
0.03389565598657556,1.399
0.0371763132602928,1.4
0.0387661858847423,1.401
0.03835621281083759,1.402
0.03541159893407971,1.403
0.029232988996535047,1.404
0.019198623856558655,1.405
0.00533015390223136,1.406
-0.011020830113502616,1.407
-0.026937904759661294,1.408
-0.03860246107466569,1.409
-0.04276931801866467,1.41
-0.03836218518504065,1.411
-0.027086498554415965,1.412
-0.012501440082803962,1.413
0.0016408012495201826,1.414
0.012605189196343191,1.415
0.019189743650207838,1.416
0.02181509833310018,1.417
0.022218806177470216,1.418
0.022777586120663346,1.419
0.025690212704310454,1.42
0.0322198415835319,1.421
0.04211290261210724,1.422
0.05340082858000971,1.423
0.062730705063466,1.424
0.06610862657306299,1.425
0.05986992201678401,1.426
0.04177650394822817,1.427
0.012073538206064388,1.428
-0.025850627138981373,1.429
-0.0657318801105375,1.43
-0.10000255071216603,1.431
-0.12218884579851401,1.432
-0.1287881992852284,1.433
-0.11969028825202435,1.434
-0.09752663329789903,1.435
-0.06676244655624972,1.436
-0.03274105416570699,1.437
-0.0006762019435165964,1.438
0.025205391125365764,1.439
0.042192484777127046,1.44
0.049262092020522605,1.441
0.04700887330223807,1.442
0.037466158539278024,1.443
0.0238085225324991,1.444
0.009845733135443612,1.445
-0.0006319748450879281,1.446
-0.004415067841444006,1.447
0.0007900081480879589,1.448
0.016071043445704616,1.449
0.04081650101180777,1.45
0.07210188760494726,1.451
0.1044542197085773,1.452
0.13046797998413193,1.453
0.14214423821687244,1.454
0.13254366493524056,1.455
0.09784262307629715,1.456
0.03974986909927929,1.457
-0.03299978195485319,1.458
-0.10583738439964466,1.459
-0.1626873382660062,1.46
-0.191730955346821,1.461
-0.18950011551901677,1.462
-0.16103565217371066,1.463
-0.11654997404459733,1.464
-0.06707508839470307,1.465
-0.021464045201521318,1.466
0.014619881665709456,1.467
0.03863414075351837,1.468
0.05073210869117089,1.469
0.05299785116787514,1.47
0.048485103329657865,1.471
0.04037703086395086,1.472
0.031397307834102405,1.473
0.023470455732247722,1.474
0.017626617758462932,1.475
0.014139954379874321,1.476
0.012823317424028704,1.477
0.013367357650477378,1.478
0.015627511826833463,1.479
0.019733284160491416,1.48
0.02590555337293393,1.481
0.03405286278201914,1.482
0.04336366829487773,1.483
0.05205381098977541,1.484
0.05736297251791717,1.485
0.05600050364080147,1.486
0.045298597138741604,1.487
0.024808751319536138,1.488
-0.00278609270924853,1.489
-0.0324609504816754,1.49
-0.05888477588467197,1.491
-0.0781273774485102,1.492
-0.08811833480559252,1.493
-0.08831898965740086,1.494
-0.07942085875250458,1.495
-0.06328920713188814,1.496
-0.04286769992849229,1.497
-0.021676692065817023,1.498
-0.002915310858768604,1.499
0.011323595048328585,1.5
0.02030039865395841,1.501
0.02438510855704601,1.502
0.024610512376727435,1.503
0.02226001638567058,1.504
0.018590928782653802,1.505
0.014685473513048783,1.506
0.011378458847050545,1.507
0.009234382159545076,1.508
0.008580819109093118,1.509
0.009583116795023128,1.51
0.012281736015263077,1.511
0.01652458472261718,1.512
0.021836228229811728,1.513
0.027346848973569912,1.514
0.0318761327961057,1.515
0.03412013927613335,1.516
0.032805517266205717,1.517
0.02683882228298115,1.518
0.015643162383066768,1.519
-0.0002865015827821629,1.52
-0.018953754546583466,1.521
-0.037053456824882494,1.522
-0.05093135693639032,1.523
-0.05786663096960363,1.524
-0.056968222199457505,1.525
-0.04923441840053164,1.526
-0.0368388099224989,1.527
-0.022125332066651376,1.528
-0.006871244127800958,1.529
0.00789493457630189,1.53
0.021570214628740474,1.531
0.03342874515549273,1.532
0.04222616389510354,1.533
0.04623438976424957,1.534
0.04370615755640878,1.535
0.03353454379274007,1.536
0.015927116807338056,1.537
-0.006964129120632226,1.538
-0.030703193096623803,1.539
-0.049039222288219775,1.54
-0.05551295906946146,1.541
-0.04584973972247644,1.542
-0.020103288531796826,1.543
0.01666136008018255,1.544
0.05556795524784242,1.545
0.08634437771806804,1.546
0.1002178610863646,1.547
0.09272013291373421,1.548
0.06520211392729962,1.549
0.024015891199393867,1.55
-0.021996120485642322,1.551
-0.06394808164075558,1.552
-0.09444552016465982,1.553
-0.1088478826592448,1.554
-0.10657432879358283,1.555
-0.09127789515552837,1.556
-0.06904118673102576,1.557
-0.045735615398462166,1.558
-0.025308848938007868,1.559
-0.009514633893201577,1.56
0.0015798544004194909,1.561
0.009051616787816297,1.562
0.014659948673320308,1.563
0.020246432635567076,1.564
0.027040268281047986,1.565
0.035182133635161233,1.566
0.04378462823253255,1.567
0.05156905462484911,1.568
0.05766702340754116,1.569
0.06205951596608291,1.57
0.06549104331217234,1.571
0.06900164187445303,1.572
0.07315430663398083,1.573
0.07705013261039563,1.574
0.07770857037822707,1.575
0.07060849056850976,1.576
0.0513633299384841,1.577
0.0177335973085063,1.578
-0.028583315510333503,1.579
-0.08093712446839038,1.58
-0.1285651476938886,1.581
-0.15992537974825866,1.582
-0.16741849244256063,1.583
-0.15065761788985205,1.584
-0.11596207892535769,1.585
-0.07290312364630637,1.586
-0.030651290163860055,1.587
0.004287094123426328,1.588
0.02880463126927832,1.589
0.04276844848289816,1.59
0.04804585969692304,1.591
0.04748058643317452,1.592
0.044033525496639546,1.593
0.040155193044517166,1.594
0.037435351759770426,1.595
0.036547646887969215,1.596
0.03739855729533215,1.597
0.03934527131787284,1.598
0.04141012642772624,1.599
0.042455095712852636,1.6
0.04126827819091602,1.601
0.03664306394458274,1.602
0.027670991070728224,1.603
0.014267416712853373,1.604
-0.002392816480944196,1.605
-0.019937525547220666,1.606
-0.035478013440784925,1.607
-0.046554043047005875,1.608
-0.05178675684975087,1.609
-0.05095788855821002,1.61
-0.04470516941619215,1.611
-0.034204992017414095,1.612
-0.020960671165291808,1.613
-0.006629349137121601,1.614
0.00710293379681076,1.615
0.018606728917248478,1.616
0.026445753373817008,1.617
0.029584925546019162,1.618
0.027592785687984612,1.619
0.02075592883306607,1.62
0.010067631717526494,1.621
-0.002850228260073352,1.622
-0.015760844037671293,1.623
-0.025842068676678716,1.624
-0.03010706084021734,1.625
-0.02634503490410396,1.626
-0.014093078741592446,1.627
0.004971961996785565,1.628
0.02724589622189963,1.629
0.0476937017885795,1.63
0.06077602881962261,1.631
0.06204683896753262,1.632
0.0498710145157313,1.633
0.02630749844142357,1.634
-0.00339473034378985,1.635
-0.03253003800427163,1.636
-0.05512095362436952,1.637
-0.06768573675123747,1.638
-0.06992189167762518,1.639
-0.06403519552559343,1.64
-0.05325278995126623,1.641
-0.040430909949729706,1.642
-0.027324262288749394,1.643
-0.014728320680335971,1.644
-0.003125861842398194,1.645
0.007000011959147599,1.646
0.015443342872559282,1.647
0.022609606661791484,1.648
0.02944199185940123,1.649
0.036936684715822295,1.65
0.045530536475376936,1.651
0.054741239532818634,1.652
0.06323519595605774,1.653
0.0691138280336809,1.654
0.07019422970230504,1.655
0.06436504570922112,1.656
0.050158953302307,1.657
0.02747649278544637,1.658
-0.0018549186690801577,1.659
-0.03412242138633722,1.66
-0.06440488353827026,1.661
-0.0875160799542484,1.662
-0.09922867329503804,1.663
-0.09774570983852568,1.664
-0.08444079421490257,1.665
-0.06315261238923799,1.666
-0.03866428113043967,1.667
-0.015286101480708386,1.668
0.004046703348085736,1.669
0.018042568842655392,1.67
0.026775481906091917,1.671
0.031109196782236226,1.672
0.03210784322064537,1.673
0.03065792475968856,1.674
0.027377844126265913,1.675
0.022743442192990307,1.676
0.017301357506316003,1.677
0.011831796701194476,1.678
0.007316885934437631,1.679
0.004667704703102008,1.68
0.0043620440744106415,1.681
0.006198985351991975,1.682
0.009244014631679091,1.683
0.011976336298856156,1.684
0.012661819296587646,1.685
0.009885352464712636,1.686
0.003084063182245372,1.687
-0.007029534422134055,1.688
-0.018310559022403725,1.689
-0.02762628926865472,1.69
-0.031950727265491294,1.691
-0.029445273794389288,1.692
-0.019820634231754498,1.693
-0.004063969531202419,1.694
0.015970243514008633,1.695
0.037903404827249805,1.696
0.05910678781529909,1.697
0.07683908767815215,1.698
0.08827487430896776,1.699
0.09064814296371938,1.7
0.08166182505626819,1.701
0.06008602090742064,1.702
0.026434837988252004,1.703
-0.01647295019817843,1.704
-0.0634228941376538,1.705
-0.10729971906332936,1.706
-0.14018718325380208,1.707
-0.1553250529644922,1.708
-0.14949927795599055,1.709
-0.12445123798694914,1.71
-0.08634504588485395,1.711
-0.04358731249659453,1.712
-0.004095303815022246,1.713
0.02671867954279723,1.714
0.046577745320712155,1.715
0.05586255003958685,1.716
0.05667340965997288,1.717
0.05187935918665086,1.718
0.04435076598932367,1.719
0.036433442033912807,1.72
0.029684509065004923,1.721
0.02486051523637908,1.722
0.022076105631433713,1.723
0.021014840227391234,1.724
0.021112217744227606,1.725
0.02170836201844278,1.726
0.02219351461291953,1.727
0.022113146087377928,1.728
0.021186604341944953,1.729
0.019281031163630346,1.73
0.016396630328893408,1.731
0.012646334350018761,1.732
0.008230755127343108,1.733
0.0034315956922458166,1.734
-0.0014148700712982914,1.735
-0.0059844468833419205,1.736
-0.01003664904247738,1.737
-0.013478467024023553,1.738
-0.01639084786873316,1.739
-0.018980616912879736,1.74
-0.02149376485914705,1.741
-0.024112462243422516,1.742
-0.026792946284632253,1.743
-0.029115560624658008,1.744
-0.030385148255181627,1.745
-0.030038155414908452,1.746
-0.02797929148364441,1.747
-0.02446647968199539,1.748
-0.019700779241114297,1.749
-0.013566257302633526,1.75
-0.0057121119737631515,1.751
0.004102898672567105,1.752
0.015580043601320677,1.753
0.02761328689024714,1.754
0.038417562458190176,1.755
0.04603767819610152,1.756
0.0489194269740609,1.757
0.0462406864951392,1.758
0.038009135524589954,1.759
0.02510217299112956,1.76
0.00926332918186912,1.761
-0.007144799505705287,1.762
-0.021763740709296427,1.763
-0.03296925769507947,1.764
-0.040118418988593266,1.765
-0.04314345887955109,1.766
-0.042088522989718914,1.767
-0.03711406533515572,1.768
-0.028782717480890927,1.769
-0.01816809142214057,1.77
-0.006636137364057378,1.771
0.004490535295684299,1.772
0.01416362916811614,1.773
0.021711896108640872,1.774
0.02685038157041317,1.775
0.029603799935803695,1.776
0.030170353562619254,1.777
0.028779280476873614,1.778
0.02559932954480921,1.779
0.020721074569083314,1.78
0.014202531253127032,1.781
0.0061819382399702265,1.782
-0.00294169496892787,1.783
-0.012334294243039326,1.784
-0.020712631205176496,1.785
-0.02662360460309645,1.786
-0.028961217623299642,1.787
-0.027431369714449243,1.788
-0.022645976289735165,1.789
-0.015798362137696524,1.79
-0.008210514087699789,1.791
-0.0010542403081000152,1.792
0.004743483030575946,1.793
0.008578561429111651,1.794
0.010291813648185145,1.795
0.010211383743956045,1.796
0.008993615085433768,1.797
0.007311611519091297,1.798
0.005589561837702449,1.799
0.0039606228996234465,1.8
0.002423044100335487,1.801
0.0010078818944966907,1.802
-0.00016562884568590956,1.803
-0.0009210889035052402,1.804
-0.0010861844432540175,1.805
-0.0005707539086304396,1.806
0.0005617964606097593,1.807
0.002077527097491001,1.808
0.003624040657676771,1.809
0.004795924153104299,1.81
0.005171285135159989,1.811
0.004377509842321556,1.812
0.0022405178013669,1.813
-0.0010476296883651917,1.814
-0.004857364437665151,1.815
-0.008211297307581142,1.816
-0.010040866389272093,1.817
-0.009565341079351131,1.818
-0.006660061270663011,1.819
-0.0019878388632969556,1.82
0.003228512489423875,1.821
0.007657207623929418,1.822
0.010313123070056966,1.823
0.010856904946524065,1.824
0.00960293773300083,1.825
0.007220234320090016,1.826
0.0043286098231422425,1.827
0.0012621381526153929,1.828
