VaMe,time
-0.002820808570828354,0.001
0.15694436164062991,0.002
0.30104249941870986,0.003
0.41581523086499256,0.004
0.49106893023503784,0.005
0.5205974242356839,0.006
0.5020537342123813,0.007
0.4377123307915643,0.008
0.3362684697660121,0.009
0.21354325402159702,0.01
0.0898653589760278,0.011
-0.01546737356968969,0.012
-0.08938708772277733,0.013
-0.12694702621213808,0.014
-0.13054340919978155,0.015
-0.10864421883856645,0.016
-0.07375896106548586,0.017
-0.03882148274008925,0.018
-0.013417200321595196,0.019
-0.001586548171164927,0.02
-0.0017395980968702438,0.021
-0.008637573751224188,0.022
-0.01649140596423957,0.023
-0.0214984249164458,0.024
-0.022735311429370523,0.025
-0.02136113699900691,0.026
-0.01898680755670345,0.027
-0.016550745092061763,0.028
-0.014261456500322341,0.029
-0.01210729437943259,0.03
-0.010355714532855931,0.031
-0.009796005403673876,0.032
-0.011797014762810164,0.033
-0.018255862111699973,0.034
-0.030993059573306763,0.035
-0.0500434013208331,0.036
-0.071459605899972,0.037
-0.08669833845914977,0.038
-0.08524856250074288,0.039
-0.05975515310661802,0.04
-0.010716625562946433,0.041
0.05236116244094275,0.042
0.11418704231497227,0.043
0.15894190921832213,0.044
0.174659755184104,0.045
0.15577720552292307,0.046
0.10394942195770514,0.047
0.02712928790472209,0.048
-0.062513716789065,0.049
-0.15061446497127504,0.05
-0.22219866483856363,0.051
-0.2636568511916241,0.052
-0.2655936095721409,0.053
-0.22576642312845568,0.054
-0.1501824096989384,0.055
-0.0511001300379828,0.056
0.056392459214998844,0.057
0.15682785580697287,0.058
0.23587553801327488,0.059
0.2819846776072361,0.06
0.2881670864253408,0.061
0.2531849735769969,0.062
0.1818857427314755,0.063
0.0851214798863512,0.064
-0.02084691209312264,0.065
-0.11656609609700104,0.066
-0.1842362541986033,0.067
-0.21385297333724534,0.068
-0.2065905464087658,0.069
-0.1729557474185829,0.07
-0.1275569576188309,0.071
-0.08384138850615042,0.072
-0.050867040451379714,0.073
-0.03207840954751294,0.074
-0.024937636416748038,0.075
-0.021669650100958667,0.076
-0.012202684080350155,0.077
0.011424541844250048,0.078
0.051529869700126484,0.079
0.1038629916549454,0.08
0.15897133132922436,0.081
0.20457097716407419,0.082
0.22828660787560404,0.083
0.22051610092222515,0.084
0.1771065101758013,0.085
0.10153075804302912,0.086
0.006083466775190259,0.087
-0.08893780458090017,0.088
-0.15941636246189264,0.089
-0.1850510384297547,0.09
-0.15789573527088757,0.091
-0.08732089535437004,0.092
0.0022911695134996994,0.093
0.08046673521884695,0.094
0.12110960776452769,0.095
0.10999393859049274,0.096
0.04814064770951302,0.097
-0.04870940225346667,0.098
-0.154469434148568,0.099
-0.240642872868166,0.1
-0.2857369991061038,0.101
-0.2812686622824266,0.102
-0.23091310757123268,0.103
-0.14545313103075025,0.104
-0.03834884968422923,0.105
0.0766047240375875,0.106
0.1860912248472044,0.107
0.2772391138084752,0.108
0.3378939504919032,0.109
0.35803102896927713,0.11
0.33198671826923687,0.111
0.2604139392720179,0.112
0.1510822457764456,0.113
0.018377097027576252,0.114
-0.11837373766416011,0.115
-0.23770287259342823,0.116
-0.3200341163572893,0.117
-0.35265851319159436,0.118
-0.33373040496202167,0.119
-0.272543367759309,0.12
-0.18548400444242638,0.121
-0.08994972314894824,0.122
0.000617100710272908,0.123
0.0786456555341654,0.124
0.14141957432797156,0.125
0.18861160686425088,0.126
0.21997902685499202,0.127
0.23429778967005432,0.128
0.22976853518558743,0.129
0.2052604964971356,0.13
0.1615740809346621,0.131
0.10237177825329719,0.132
0.034649365797666885,0.133
-0.031850302718391225,0.134
-0.0870695146456514,0.135
-0.12422705614516832,0.136
-0.14182871832138366,0.137
-0.14231882081026162,0.138
-0.12936828044300386,0.139
-0.1069039812822107,0.14
-0.07996226307798895,0.141
-0.05486613833212828,0.142
-0.03722862794662562,0.143
-0.029316139196577815,0.144
-0.02918576282352595,0.145
-0.032091523820902586,0.146
-0.03313850176760195,0.147
-0.029700604940803194,0.148
-0.022072734921554604,0.149
-0.012025142563326499,0.15
-0.0006769339735390324,0.151
0.01262793788838397,0.152
0.029936859242321808,0.153
0.053299066575358794,0.154
0.08321747153259446,0.155
0.1176382633585584,0.156
0.15163689379653655,0.157
0.17780897114585925,0.158
0.1876482571701741,0.159
0.17385338009240744,0.16
0.132763354377226,0.161
0.06603864280274528,0.162
-0.01885426812672317,0.163
-0.10949556658904885,0.164
-0.19070120813527705,0.165
-0.24789220405683884,0.166
-0.2709967410658659,0.167
-0.25732436607750453,0.168
-0.21178335430367096,0.169
-0.14443658317688496,0.17
-0.06707807742335987,0.171
0.009494747039839189,0.172
0.0769053166679694,0.173
0.12947699196880486,0.174
0.16384824109912427,0.175
0.1784832166453242,0.176
0.17345007786101316,0.177
0.1505433848599707,0.178
0.11351779412085188,0.179
0.06791153401549761,0.18
0.02001551186475263,0.181
-0.024640680127373974,0.182
-0.06233127817259713,0.183
-0.09156777053639752,0.184
-0.11327713818696629,0.185
-0.1299708383793146,0.186
-0.1432965573339698,0.187
-0.15153250103741994,0.188
-0.14919502108430072,0.189
-0.12923267653658058,0.19
-0.08647631717458736,0.191
-0.020239900351584218,0.192
0.06504977830202185,0.193
0.1604109824100326,0.194
0.2529715404972076,0.195
0.327011622897893,0.196
0.3663443192988287,0.197
0.35819040124125295,0.198
0.2973260439185264,0.199
0.18861829432969177,0.2
0.0468550363785526,0.201
-0.10585106402995396,0.202
-0.24438118433231665,0.203
-0.34639635756223053,0.204
-0.3984021369318736,0.205
-0.3988798524056468,0.206
-0.3565155320623769,0.207
-0.2854661715758024,0.208
-0.20078776469398538,0.209
-0.11539303818746365,0.21
-0.03837382184497705,0.211
0.0257683931516475,0.212
0.07693657078047662,0.213
0.11812879078081456,0.214
0.15339270292973065,0.215
0.18568409033642855,0.216
0.21517793814722108,0.217
0.23849092347053555,0.218
0.2491639767302426,0.219
0.23956591912132882,0.22
0.20375321451528577,0.221
0.1402495656030325,0.222
0.05410355227606278,0.223
-0.04216599758186229,0.224
-0.1300163172883189,0.225
-0.18995968337122893,0.226
-0.20912975347186843,0.227
-0.18732503003914752,0.228
-0.13721287124028184,0.229
-0.07832152615220572,0.23
-0.028995253386269577,0.231
-0.0005163614529122935,0.232
0.005114214256934457,0.233
-0.005999291384220999,0.234
-0.023069436618304424,0.235
-0.03480185580053109,0.236
-0.033014655037277255,0.237
-0.01459672238965366,0.238
0.018592633868172923,0.239
0.06101401835931407,0.24
0.1046894299904684,0.241
0.14021832212579277,0.242
0.15828611621566446,0.243
0.15186281143125713,0.244
0.11838103741295702,0.245
0.06108259466114795,0.246
-0.010939186772576617,0.247
-0.0842357035162927,0.248
-0.14416294632312288,0.249
-0.17935603114008944,0.25
-0.18586934493140128,0.251
-0.1683493621251134,0.252
-0.13684588185832536,0.253
-0.10114018725033502,0.254
-0.06643418193393646,0.255
-0.03253646478316796,0.256
0.004053749006709928,0.257
0.04669954313994664,0.258
0.09545595236436281,0.259
0.14562126018820842,0.26
0.18839086235861302,0.261
0.21305407166904064,0.262
0.210027484203058,0.263
0.17413980877148155,0.264
0.10755112715330119,0.265
0.021161787855303593,0.266
-0.06710613902063821,0.267
-0.1377909726459127,0.268
-0.17715495667340841,0.269
-0.18214344616885503,0.27
-0.1599631550042259,0.271
-0.12286103707358732,0.272
-0.08172349512501689,0.273
-0.04224297217293067,0.274
-0.00517816741630212,0.275
0.030379218877522516,0.276
0.06341306089612651,0.277
0.08963423995450472,0.278
0.10303273389850169,0.279
0.09881862539610534,0.28
0.07582669440266103,0.281
0.03728626476459666,0.282
-0.010495369170261379,0.283
-0.06071652161900925,0.284
-0.10745750480482663,0.285
-0.14464639014587066,0.286
-0.16486493157060525,0.287
-0.1605398287555784,0.288
-0.12711274815818815,0.289
-0.06580047057141312,0.29
0.01604989198523353,0.291
0.10687375636981747,0.292
0.1931809708617872,0.293
0.2611968552564446,0.294
0.2985333631015573,0.295
0.2964774739744332,0.296
0.252314192645023,0.297
0.17057089479802037,0.298
0.0625023337396965,0.299
-0.056007571758577596,0.3
-0.16729810250254726,0.301
-0.2550594179208812,0.302
-0.30780767010114146,0.303
-0.3215612056650922,0.304
-0.2998647307890522,0.305
-0.25152706403959435,0.306
-0.18752262980066026,0.307
-0.11741579314418044,0.308
-0.04653957544472022,0.309
0.024127679562771086,0.31
0.09559816134133543,0.311
0.16773036421450482,0.312
0.23681091854491843,0.313
0.2949300279147841,0.314
0.33137808798588814,0.315
0.3353842645497304,0.316
0.2992955175467894,0.317
0.2216813970627081,0.318
0.10971227820215565,0.319
-0.02075012897345965,0.32
-0.14867746475695012,0.321
-0.25385961978376076,0.322
-0.32175715254547316,0.323
-0.3450733668513512,0.324
-0.3238756793479516,0.325
-0.2659696567819409,0.326
-0.18564711907467604,0.327
-0.09941856301881939,0.328
-0.021015577806103067,0.329
0.04152014103456347,0.33
0.08609923622823426,0.331
0.11502155414341643,0.332
0.13256320256592233,0.333
0.14264686713718452,0.334
0.1472779545061958,0.335
0.14608851031078726,0.336
0.13711552187232487,0.337
0.11848649787131248,0.338
0.09009733294003851,0.339
0.054368783398760424,0.34
0.015772560524868032,0.341
-0.02058398586248851,0.342
-0.05054926597648919,0.343
-0.07177737524948063,0.344
-0.08347332969591394,0.345
-0.08569721845481676,0.346
-0.07934383985605566,0.347
-0.06684063614978834,0.348
-0.05230401680260036,0.349
-0.040392489927264304,0.35
-0.03457598151580669,0.351
-0.03574554398155397,0.352
-0.04129566975584088,0.353
-0.04504458152071966,0.354
-0.038981810945778954,0.355
-0.016796514335841024,0.356
0.022746240346734746,0.357
0.07468355272542532,0.358
0.12916818221999568,0.359
0.17399966723420152,0.36
0.1974987827105334,0.361
0.19124585732869825,0.362
0.15211455289611056,0.363
0.08323949158964326,0.364
-0.0060792252283419996,0.365
-0.10166152043735176,0.366
-0.1874023998783181,0.367
-0.2493105064448545,0.368
-0.2781748715086751,0.369
-0.2693826002282636,0.37
-0.22183076199601176,0.371
-0.13851466157665604,0.372
-0.02834175969776989,0.373
0.093181579419112,0.374
0.205616258535725,0.375
0.2872369815554683,0.376
0.31973682352665733,0.377
0.2929467724800273,0.378
0.20841582635625527,0.379
0.08084173124113576,0.38
-0.06367015470551803,0.381
-0.19354187993752328,0.382
-0.2811342256118407,0.383
-0.31161090086873805,0.384
-0.2860408996959013,0.385
-0.21729824891298052,0.386
-0.12270688421153993,0.387
-0.01842747035950132,0.388
0.08255542284123116,0.389
0.16996753703368356,0.39
0.23528205366172306,0.391
0.2713082216891514,0.392
0.2724315259875021,0.393
0.2359771825277857,0.394
0.16477226432321287,0.395
0.06886995951116882,0.396
-0.0359088940608825,0.397
-0.1320646190288049,0.398
-0.20442176738626655,0.399
-0.2428264536847852,0.4
-0.2443358210028607,0.401
-0.21434345521027912,0.402
-0.16450770831113407,0.403
-0.10789094428571389,0.404
-0.05452670974365963,0.405
-0.009390675943614597,0.406
0.027472805629812365,0.407
0.05944538902577388,0.408
0.09107984211243,0.409
0.12557599884681722,0.41
0.16265117371446597,0.411
0.19768836613422328,0.412
0.22252579187715193,0.413
0.22745196694904113,0.414
0.2039363674652042,0.415
0.14803711999634023,0.416
0.06362756164777984,0.417
-0.03694983079827994,0.418
-0.13640226047942294,0.419
-0.21841697886767958,0.42
-0.27210294798218654,0.421
-0.2928019707851983,0.422
-0.28077759328429314,0.423
-0.24015832970249523,0.424
-0.178035148493515,0.425
-0.1025986315328351,0.426
-0.021066226740554948,0.427
0.06104560802243884,0.428
0.1392614803607602,0.429
0.2092107619705777,0.43
0.26603903374635757,0.431
0.30413270992534464,0.432
0.31733122262498775,0.433
0.2999767171805009,0.434
0.24885050332788286,0.435
0.1653632724551275,0.436
0.056578086452250535,0.437
-0.0655875829353778,0.438
-0.18589478475518809,0.439
-0.28738224604216833,0.44
-0.35404719911728094,0.441
-0.3750862297083789,0.442
-0.3489806995827696,0.443
-0.2846584839289906,0.444
-0.19823787666560033,0.445
-0.10706837213579508,0.446
-0.02468512254202594,0.447
0.04143729344319821,0.448
0.0897038590146111,0.449
0.12268871425920895,0.45
0.14474554105181592,0.451
0.15968743936841187,0.452
0.16922379838999008,0.453
0.17266925905252892,0.454
0.1678035370464022,0.455
0.15220873348780034,0.456
0.12460181821534234,0.457
0.08610874322603397,0.458
0.04105218920205686,0.459
-0.0038211424242866315,0.46
-0.04182697853144503,0.461
-0.06861610545117681,0.462
-0.0824094497107163,0.463
-0.08302981940577013,0.464
-0.07167444079320937,0.465
-0.05158411018792418,0.466
-0.028143665553408345,0.467
-0.007608846855660798,0.468
0.004711876603945478,0.469
0.00574344195997821,0.47
-0.004676764927147872,0.471
-0.023420931184003457,0.472
-0.0442444492990027,0.473
-0.059150983259398535,0.474
-0.06104296611318504,0.475
-0.0464777747063527,0.476
-0.016896436608349483,0.477
0.022172288509241692,0.478
0.06325101231965485,0.479
0.09919475309467533,0.48
0.12444128801129013,0.481
0.1350725779246009,0.482
0.12842703218334858,0.483
0.10285238579523774,0.484
0.05803322206601674,0.485
-0.00369639849025638,0.486
-0.0756446046133824,0.487
-0.14626233715551962,0.488
-0.20108222308015689,0.489
-0.22725269455947658,0.49
-0.21899532661658297,0.491
-0.18049365916415838,0.492
-0.12379279928249487,0.493
-0.063051016290773,0.494
-0.009036987271600176,0.495
0.03337300544620889,0.496
0.0646631944946662,0.497
0.0883681248548759,0.498
0.10831991482949112,0.499
0.1266044452376481,0.5
0.14275095912371533,0.501
0.15397478845659285,0.502
0.15607932843962655,0.503
0.14464973691702288,0.504
0.11637547752408063,0.505
0.07059506717934091,0.506
0.010725736265945425,0.507
-0.05542070517390572,0.508
-0.11702540222260349,0.509
-0.16296005211110204,0.51
-0.18490187934163124,0.511
-0.17964894006936968,0.512
-0.1493813675297872,0.513
-0.09973567454588615,0.514
-0.03723231013905114,0.515
0.03211848955312971,0.516
0.10252101115039022,0.517
0.16720775076538374,0.518
0.2176408618671973,0.519
0.24402713740613505,0.52
0.23726926739457255,0.521
0.19186072112270247,0.522
0.1090340484608143,0.523
-0.0008218924371977696,0.524
-0.11829544533168349,0.525
-0.2194268193785047,0.526
-0.28354208444970586,0.527
-0.3001346736654129,0.528
-0.2711231903195455,0.529
-0.20833844538163793,0.53
-0.1282438003255045,0.531
-0.04650966785573028,0.532
0.025384017019377012,0.533
0.0810011744431717,0.534
0.11803020745828964,0.535
0.13670058671841542,0.536
0.13847796244845034,0.537
0.125445322232925,0.538
0.10025280274713672,0.539
0.06631321062063086,0.54
0.02797524870606447,0.541
-0.009600140076819409,0.542
-0.041127007171009373,0.543
-0.06234191862421028,0.544
-0.07109478141361489,0.545
-0.06790918216762422,0.546
-0.05567581620540711,0.547
-0.03821131846084853,0.548
-0.01824389308419613,0.549
0.003737565581086061,0.55
0.0289744656150388,0.551
0.058727488465290655,0.552
0.09237937861602664,0.553
0.12628143112176912,0.554
0.1537317099788331,0.555
0.16604162950081688,0.556
0.1546836900733948,0.557
0.11433620811071063,0.558
0.045880091550546356,0.559
-0.04211837601549363,0.56
-0.1344798727979534,0.561
-0.2130448327029484,0.562
-0.2617382486017572,0.563
-0.27121608546326664,0.564
-0.24128813016488468,0.565
-0.17987853843385557,0.566
-0.09883430477435744,0.567
-0.00928539679415983,0.568
0.08045007413480536,0.569
0.16403862262138028,0.57
0.2350171950094886,0.571
0.28504625428176467,0.572
0.30376868447734456,0.573
0.2810070599686023,0.574
0.21101200051967522,0.575
0.097354843599323,0.576
-0.043909170037452004,0.577
-0.18572436707624906,0.578
-0.29738793719125717,0.579
-0.35522885655653774,0.58
-0.35142727488646114,0.581
-0.2958758351267504,0.582
-0.2099014965916762,0.583
-0.11673468624576902,0.584
-0.034698740560397165,0.585
0.025511168589739536,0.586
0.061046142618316326,0.587
0.0757693014816357,0.588
0.07827442440164262,0.589
0.07942435656390412,0.59
0.08968283694901728,0.591
0.11644200176164543,0.592
0.16168632827298365,0.593
0.22065787764041295,0.594
0.28205663124456426,0.595
0.3296433864482663,0.596
0.3450817481897219,0.597
0.31258478217755753,0.598
0.225084384344313,0.599
0.08903020411866151,0.6
-0.07551047335742228,0.601
-0.23986369697416998,0.602
-0.37444926271822987,0.603
-0.4562276774556647,0.604
-0.4742315716359153,0.605
-0.43214753625998503,0.606
-0.34619256445549973,0.607
-0.23836885235450345,0.608
-0.12890189218384177,0.609
-0.031494413984045115,0.61
0.04802659563216887,0.611
0.11059060511388326,0.612
0.16113066336539736,0.613
0.20499159548068527,0.614
0.24465997909438772,0.615
0.2780377663137132,0.616
0.2987185244693924,0.617
0.29780747742589003,0.618
0.26685186271069944,0.619
0.20180990590176834,0.62
0.10692879725395653,0.621
-0.004135629714446189,0.622
-0.11187567970434695,0.623
-0.19780375248085896,0.624
-0.25032648217306264,0.625
-0.26629755979653813,0.626
-0.24919430490009997,0.627
-0.2067624170323927,0.628
-0.1491582712713279,0.629
-0.08713294290868051,0.63
-0.030089776851325186,0.631
0.015421350984488918,0.632
0.04628644465875816,0.633
0.0625503482818584,0.634
0.06652630118227461,0.635
0.06169901866384276,0.636
0.05180198424590616,0.637
0.04017202188895877,0.638
0.02936249774670221,0.639
0.020963323573751184,0.64
0.01564456812678922,0.641
0.01345695166244519,0.642
0.014232130717539308,0.643
0.017799037833970594,0.644
0.02390789649486685,0.645
0.0320051291440371,0.646
0.041048602370228136,0.647
0.04940412190745021,0.648
0.05474014795577285,0.649
0.054161463676600234,0.65
0.045061477606001606,0.651
0.02636285839686801,0.652
-0.0008279214126268924,0.653
-0.03336065641495765,0.654
-0.0664921514988004,0.655
-0.09439690328081855,0.656
-0.11087566760483662,0.657
-0.11066078116075098,0.658
-0.09116175528831005,0.659
-0.05345316281162058,0.66
-0.0018774878607053513,0.661
0.05689457563747318,0.662
0.11463208185474344,0.663
0.16239310649154298,0.664
0.19174732079935533,0.665
0.19611637822181402,0.666
0.1717912669146032,0.667
0.11864508883434546,0.668
0.041030822664569436,0.669
-0.05127026749852418,0.67
-0.14347698598882863,0.671
-0.218816036388715,0.672
-0.26340926637302275,0.673
-0.2707637770940092,0.674
-0.2433344949166789,0.675
-0.19049164057696663,0.676
-0.1248373077058563,0.677
-0.05880830533203032,0.678
-0.0022690616807189493,0.679
0.03864997246713494,0.68
0.06207687792953883,0.681
0.07067614268649369,0.682
0.07088122415817083,0.683
0.0707709497271589,0.684
0.07723337395137496,0.685
0.0935059031636324,0.686
0.11826324630765495,0.687
0.1463916348362108,0.688
0.17046964776589085,0.689
0.18213204580980655,0.69
0.17352954112421348,0.691
0.13956041535508293,0.692
0.08052895878264729,0.693
0.003566260457920507,0.694
-0.07861730400981085,0.695
-0.15130732390089535,0.696
-0.2017802337873712,0.697
-0.22217107588155693,0.698
-0.2111928198797611,0.699
-0.1746023708887513,0.7
-0.12332120589505748,0.701
-0.06936656373414148,0.702
-0.0218690962117832,0.703
0.014867308072285198,0.704
0.0411496801543694,0.705
0.06035407769550805,0.706
0.07684693099149578,0.707
0.09394711514309576,0.708
0.11245697978524671,0.709
0.13018968224235178,0.71
0.1425709560389356,0.711
0.14407448245278692,0.712
0.12999244939991036,0.713
0.09797605127839874,0.714
0.04922491594004293,0.715
-0.010677959505111322,0.716
-0.07209172606788627,0.717
-0.12378688111898452,0.718
-0.15696023372699072,0.719
-0.16847451502964367,0.72
-0.16130538535917974,0.721
-0.14208443612773908,0.722
-0.11727645058079852,0.723
-0.09024625034009372,0.724
-0.06086961269402824,0.725
-0.027464843695492014,0.726
0.010773159517990988,0.727
0.05248959820509994,0.728
0.09416729798939985,0.729
0.130669646038547,0.73
0.1560895390776731,0.731
0.16502571205952976,0.732
0.1539980378834106,0.733
0.1225448266314614,0.734
0.07391243197188772,0.735
0.015261523026785382,0.736
-0.04313693605200479,0.737
-0.0903252413166117,0.738
-0.11839309878449476,0.739
-0.12551226656982073,0.74
-0.11585980655380046,0.741
-0.09654352625871818,0.742
-0.0742689817579016,0.743
-0.0537137501167622,0.744
-0.03724698396308087,0.745
-0.025091093675545132,0.746
-0.015789970314266315,0.747
-0.007159792916504471,0.748
0.002526035516119109,0.749
0.013742043599439924,0.75
0.02559232989192154,0.751
0.0361733394912867,0.752
0.04319394485108425,0.753
0.0446755979349034,0.754
0.03957006315058677,0.755
0.02816979892811797,0.756
0.012143015076103759,0.757
-0.005746367143473494,0.758
-0.021916352869191507,0.759
-0.03218700343822967,0.76
-0.03214005346725684,0.761
-0.01784659206533701,0.762
0.012864261206688616,0.763
0.05899866956958639,0.764
0.11576355531934332,0.765
0.1750625308929652,0.766
0.2265763078565045,0.767
0.2589538744855018,0.768
0.26142796620444236,0.769
0.22625856283486995,0.77
0.15156911875837054,0.771
0.043185485908562166,0.772
-0.08596136905335648,0.773
-0.21869333233300242,0.774
-0.3368824787996582,0.775
-0.4236958442320821,0.776
-0.46521452181684814,0.777
-0.45345922672911765,0.778
-0.3907291913937913,0.779
-0.2908861722227787,0.78
-0.1747780344551283,0.781
-0.0629625273468782,0.782
0.029961338698274026,0.783
0.0979629365331648,0.784
0.143243952316816,0.785
0.17372793050812624,0.786
0.19949335234127616,0.787
0.22896279123148153,0.788
0.2655398490120976,0.789
0.30561829114066397,0.79
0.3388684138994228,0.791
0.35105708938126495,0.792
0.3286770663170534,0.793
0.2640258130724019,0.794
0.1592717173152202,0.795
0.02794823180047368,0.796
-0.10763064727421395,0.797
-0.22305012909005692,0.798
-0.29981390301936583,0.799
-0.3303744398334491,0.8
-0.3178852294567993,0.801
-0.27248489768353756,0.802
-0.20723063282171353,0.803
-0.1350658388623298,0.804
-0.06687649103277134,0.805
-0.010321011624718133,0.806
0.030675984997308208,0.807
0.05563153887751338,0.808
0.06660281195709158,0.809
0.06707064153125147,0.81
0.060905290994212526,0.811
0.05157120536986837,0.812
0.04164526466466294,0.813
0.03268407029113564,0.814
0.02536217475842958,0.815
0.019739960108109873,0.816
0.015528990707725222,0.817
0.012279482613175744,0.818
0.009487487565917649,0.819
0.006650022421667092,0.82
0.0033162868836909467,0.821
-0.0008177823551680309,0.822
-0.005793847164521206,0.823
-0.011312605464211718,0.824
-0.016681953642969902,0.825
-0.020772270354076524,0.826
-0.022032437941736857,0.827
-0.018651412913093895,0.828
-0.008927619058440146,0.829
0.00816707551309195,0.83
0.03239697976413745,0.831
0.06192826603856711,0.832
0.09341312304585467,0.833
0.12239318525410059,0.834
0.1438381247109307,0.835
0.15284488839170515,0.836
0.14568530388477535,0.837
0.12093525569745772,0.838
0.07976307091167195,0.839
0.025017021121283126,0.84
-0.039693437957789325,0.841
-0.10951561159221708,0.842
-0.17714538613555367,0.843
-0.23313023967741686,0.844
-0.26821474403032575,0.845
-0.2760585721743002,0.846
-0.2551670183423857,0.847
-0.20960680594889733,0.848
-0.14779535006582978,0.849
-0.07979458520815137,0.85
-0.014701186349106252,0.851
0.04117328065738967,0.852
0.08518605140400459,0.853
0.11789822568644777,0.854
0.14146131124932187,0.855
0.15771861614659566,0.856
0.16690631932196978,0.857
0.1675098988621382,0.858
0.15722020546505083,0.859
0.13441276513360356,0.86
0.0994615412831763,0.861
0.055449391076618976,0.862
0.008044976795406663,0.863
-0.03560163629097967,0.864
-0.06872332062313967,0.865
-0.08690534617440786,0.866
-0.08941056016903076,0.867
-0.07919721005205548,0.868
-0.061501967728854655,0.869
-0.041790343692801775,0.87
-0.024117624319340617,0.871
-0.01039785172637081,0.872
-0.0005301685484821589,0.873
0.006938953010379311,0.874
0.013936898616380363,0.875
0.02196811905063628,0.876
0.031348844834836846,0.877
0.04081149722275665,0.878
0.04774256394138237,0.879
0.04898719495219072,0.88
0.04182353733835102,0.881
0.02490565466834947,0.882
-0.0007969619241012048,0.883
-0.0314309494989976,0.884
-0.06079702940137938,0.885
-0.08225781036174463,0.886
-0.09123107271164589,0.887
-0.08669981941663132,0.888
-0.07077372538361,0.889
-0.047003781877485475,0.89
-0.018802612157187534,0.891
0.011296317167584585,0.892
0.041418172597003436,0.893
0.0695594353600046,0.894
0.09299189074453548,0.895
0.10832733606853186,0.896
0.11209260349371618,0.897
0.10146250420745102,0.898
0.07515983110024238,0.899
0.03468929910151219,0.9
-0.014674767972261242,0.901
-0.06444356386532633,0.902
-0.10539188725187586,0.903
-0.13054802301671725,0.904
-0.13692005197698243,0.905
-0.12557687833714054,0.906
-0.10087692181948214,0.907
-0.06919105383483716,0.908
-0.03699172732612052,0.909
-0.009015832524099546,0.91
0.01252243534424221,0.911
0.02770778160949696,0.912
0.03825848284987701,0.913
0.04666784174080017,0.914
0.055251631885254344,0.915
0.06537830619303275,0.916
0.07711044072880274,0.917
0.08912302086289504,0.918
0.0986630640404285,0.919
0.10181995775548705,0.92
0.09460924752817007,0.921
0.07456249950743421,0.922
0.041817736005613,0.923
-0.000762489861920748,0.924
-0.04804290734394017,0.925
-0.09310302993833523,0.926
-0.12797882194739418,0.927
-0.14560221157185052,0.928
-0.14275993206391008,0.929
-0.12178247917350095,0.93
-0.08917449174429636,0.931
-0.05235336545960008,0.932
-0.016955361926113646,0.933
0.014187011083790717,0.934
0.040653504745147534,0.935
0.06329978396445096,0.936
0.08305635144253218,0.937
0.10004217444771575,0.938
0.11312361238960675,0.939
0.11989802878183262,0.94
0.11700590447387353,0.941
0.10095079935642869,0.942
0.06957613590898747,0.943
0.02366574626464129,0.944
-0.03212962839294769,0.945
-0.08934399292758702,0.946
-0.13685658766786252,0.947
-0.16361008728538312,0.948
-0.16271813162620544,0.949
-0.13482048191234883,0.95
-0.08787903274023774,0.951
-0.03347271902427296,0.952
0.017367600168430693,0.953
0.056598369144924096,0.954
0.0799551013585502,0.955
0.08677490780708175,0.956
0.07928362704152218,0.957
0.06157278843631118,0.958
0.03840647026919195,0.959
0.014174458847393177,0.96
-0.007705805217694092,0.961
-0.02506787299456129,0.962
-0.03716803878199357,0.963
-0.044550068859369046,0.964
-0.048385582778497756,0.965
-0.04947301702982679,0.966
-0.047450880505156307,0.967
-0.04087555711912672,0.968
-0.028300874180031126,0.969
-0.009641738655221072,0.97
0.013320122331561279,0.971
0.03770076887298953,0.972
0.060725246892756754,0.973
0.08039099433527884,0.974
0.0953237172637754,0.975
0.10417118313437712,0.976
0.10520125336482446,0.977
0.09665314635864407,0.978
0.07764233568007585,0.979
0.04885721828339532,0.98
0.012699045658126441,0.981
-0.026929286854030492,0.982
-0.06516691815062561,0.983
-0.09734429812865729,0.984
-0.12046924949222572,0.985
-0.13381723976873824,0.986
-0.13786745689096253,0.987
-0.13273080113296348,0.988
-0.11780102968276905,0.989
-0.09290091635717475,0.99
-0.05957191971430849,0.991
-0.02099465773615659,0.992
0.019313916760311616,0.993
0.05846206313171903,0.994
0.09396496713753882,0.995
0.1229576344264111,0.996
0.14180833977994498,0.997
0.1465746724231658,0.998
0.13413645818328687,0.999
0.10352614458862214,1.0
0.056961027700840154,1.001
0.00024357578961836874,1.002
-0.057729257891903835,1.003
-0.10667581891414386,1.004
-0.1377649900506375,1.005
-0.14652376557149377,1.006
-0.13428883302091285,1.007
-0.10723286355530902,1.008
-0.07336973370972173,1.009
-0.039272396281574855,1.01
-0.00819542333813902,1.011
0.02001615772730911,1.012
0.04776455772183918,1.013
0.07785122044660425,1.014
0.11141837480967039,1.015
0.1462144435376223,1.016
0.1759391111091127,1.017
0.19140193865477628,1.018
0.1833443173067419,1.019
0.1457147847530985,1.02
0.07830059773443483,1.021
-0.011621642131566676,1.022
-0.10914323150294196,1.023
-0.1943576921060775,1.024
-0.24837742087037515,1.025
-0.2605311704114672,1.026
-0.23232241382483676,1.027
-0.17565291757155668,1.028
-0.10708926218041631,1.029
-0.041897793178243,1.03
0.009621622785439047,1.031
0.04312830022459614,1.032
0.059451418672888376,1.033
0.06297378700781646,1.034
0.059804233316525186,1.035
0.05608706776597895,1.036
0.05665756218213528,1.037
0.0641560289088963,1.038
0.07854626903196256,1.039
0.096972477981709,1.04
0.11416689746243569,1.041
0.12369819981784255,1.042
0.11981566339088176,1.043
0.09913448295010177,1.044
0.061680094536843734,1.045
0.011339130606884507,1.046
-0.0442690715428762,1.047
-0.09491539920572997,1.048
-0.13039426594152378,1.049
-0.144161130911478,1.05
-0.1358647671180017,1.051
-0.11091047906098152,1.052
-0.0775984892491963,1.053
-0.043954515300000545,1.054
-0.01571869944399451,1.055
0.004317299210122289,1.056
0.01601574418648932,1.057
0.021088434311610397,1.058
0.02216888567510906,1.059
0.021976567219699556,1.06
0.02262993185610247,1.061
0.025184864371032345,1.062
0.029482972056871063,1.063
0.034218324311626115,1.064
0.03715319812315288,1.065
0.03577703322843916,1.066
0.02849047255767776,1.067
0.015589362230802775,1.068
-0.000658747025379553,1.069
-0.016727376015252232,1.07
-0.028856721222516684,1.071
-0.034118193115420095,1.072
-0.03124908498522817,1.073
-0.02091499708574311,1.074
-0.005482205663200637,1.075
0.011376723026297691,1.076
0.02531437050573649,1.077
0.032293334645411606,1.078
0.029646890381575825,1.079
0.016833646069621223,1.08
-0.004259817053387579,1.081
-0.029355769270640156,1.082
-0.05219538815808432,1.083
-0.06576256338004764,1.084
-0.06440115693692985,1.085
-0.04574623957187226,1.086
-0.011292542368930916,1.087
0.03413852045112934,1.088
0.08313134554317864,1.089
0.1265170526727594,1.09
0.1545977968119327,1.091
0.1587764917118961,1.092
0.13363054740152103,1.093
0.07919089980178164,1.094
0.0024829669306529988,1.095
-0.08276753041635973,1.096
-0.15884579926667353,1.097
-0.20898088868456147,1.098
-0.22302782908205268,1.099
-0.20112163620032675,1.1
-0.1529460312505174,1.101
-0.09303661913285059,1.102
-0.0352580916674889,1.103
0.010726870243755817,1.104
0.04050661360110281,1.105
0.05431302959668141,1.106
0.05564965252919004,1.107
0.04978349332125204,1.108
0.042383156067364945,1.109
0.038397877148136784,1.11
0.04122337364834206,1.111
0.05219391612044286,1.112
0.0704494455867925,1.113
0.09317679671327049,1.114
0.11608709122874082,1.115
0.1339094444587727,1.116
0.1409400478625836,1.117
0.1320257373574411,1.118
0.10408001306906083,1.119
0.0575120864599874,1.12
-0.0031725558984943836,1.121
-0.06984760901604654,1.122
-0.13218637804051536,1.123
-0.17966746163195813,1.124
-0.2039563340727178,1.125
-0.20151575983628664,1.126
-0.17502516630410378,1.127
-0.13185369465006588,1.128
-0.08058190294500364,1.129
-0.028287055299771022,1.13
0.020371730344884674,1.131
0.06274692801675294,1.132
0.09710694489417375,1.133
0.12159753194616647,1.134
0.13387663070589223,1.135
0.1315210443419244,1.136
0.11292129373385651,1.137
0.07842577028159747,1.138
0.03152111115880808,1.139
-0.020611315027799736,1.14
-0.06810360584349977,1.141
-0.10120542542992109,1.142
-0.1136931728440454,1.143
-0.10495916028212984,1.144
-0.07974727103323949,1.145
-0.045970566784486265,1.146
-0.011812952272404274,1.147
0.01659537428462444,1.148
0.0362083395387062,1.149
0.04690739102818873,1.15
0.0505877675129573,1.151
0.04992295983516815,1.152
0.04721831186248094,1.153
0.0437084046045844,1.154
0.039493427476182924,1.155
0.033965450187269146,1.156
0.02637551919324555,1.157
0.016303360355138304,1.158
0.003943707264157957,1.159
-0.009754998601264945,1.16
-0.023064574226153003,1.161
-0.03383073470608505,1.162
-0.04046813050800862,1.163
-0.04298672308250952,1.164
-0.042786175906804676,1.165
-0.04103891884641035,1.166
-0.0373584767004243,1.167
-0.030334149285097256,1.168
-0.01937002589309937,1.169
-0.005966696872192854,1.17
0.0066132891289054745,1.171
0.014748552919195874,1.172
0.01577777485730129,1.173
0.008798683914751249,1.174
-0.0049414964369816575,1.175
-0.022152561383942886,1.176
-0.03814690949668706,1.177
-0.0477783588944762,1.178
-0.04650403618301489,1.179
-0.03137296438307174,1.18
-0.0015959878414135438,1.181
0.04117720581053683,1.182
0.09240680165416286,1.183
0.1443451426546777,1.184
0.18674365655628822,1.185
0.20870161653102215,1.186
0.20098102073190677,1.187
0.15844225207391346,1.188
0.08257979262783648,1.189
-0.016641411731251974,1.19
-0.1213933543221045,1.191
-0.21025342644119766,1.192
-0.26499672213667497,1.193
-0.276512526760685,1.194
-0.24695662810700372,1.195
-0.1878287381159175,1.196
-0.11528435162620969,1.197
-0.04462870665959894,1.198
0.01363769970605615,1.199
0.0549418115280213,1.2
0.07956457957362607,1.201
0.09067330679420768,1.202
0.09238299554818054,1.203
0.08833508953025573,1.204
0.08096920341553684,1.205
0.07142281271529621,1.206
0.05987452728931256,1.207
0.046145335302426455,1.208
0.030361497883200302,1.209
0.013414501143138014,1.21
-0.003033953578841041,1.211
-0.017037112749410475,1.212
-0.027064644366477392,1.213
-0.032437717561999486,1.214
-0.03316137099529308,1.215
-0.029474454385799927,1.216
-0.02183018049503274,1.217
-0.011339505909255906,1.218
4.587016925859276e-05,1.219
0.010009354006109122,1.22
0.016679049498904076,1.221
0.01925467581904781,1.222
0.018183873331628946,1.223
0.014903738971581069,1.224
0.011340005246503377,1.225
0.009400792773897795,1.226
0.010588563973984954,1.227
0.015697407059288494,1.228
0.024533698728830624,1.229
0.03566460424803982,1.23
0.046223195474232544,1.231
0.051990031043918465,1.232
0.048298413357253496,1.233
0.03191433835760497,1.234
0.0029170936518398147,1.235
-0.0347362144618605,1.236
-0.07427344772376859,1.237
-0.1080014594665149,1.238
-0.12909121494568826,1.239
-0.13305562812670252,1.24
-0.11917007769265668,1.241
-0.09118914675950426,1.242
-0.05614280771428665,1.243
-0.021582105286393323,1.244
0.006887648679372626,1.245
0.026746362531522006,1.246
0.03857377694750163,1.247
0.04534895847217466,1.248
0.05130973517126746,1.249
0.06055399365320273,1.25
0.07551993502384581,1.251
0.09565484788062813,1.252
0.11686737842004424,1.253
0.1322764943600397,1.254
0.13407116627670246,1.255
0.1157852014283621,1.256
0.07461341493101767,1.257
0.013475975761690243,1.258
-0.05824560233925511,1.259
-0.12648086472826667,1.26
-0.1766708563171711,1.261
-0.19882719636523252,1.262
-0.19087876785094904,1.263
-0.15832121661474083,1.264
-0.11082109402240035,1.265
-0.0583495187481414,1.266
-0.008689239523333805,1.267
0.03339627391977593,1.268
0.06579013835155229,1.269
0.08813143849285339,1.27
0.10103101129368701,1.271
0.10560144144387738,1.272
0.10317962179795427,1.273
0.09516458528469615,1.274
0.08290950424614607,1.275
0.06751258004532687,1.276
0.049468213943986,1.277
0.028454912831134216,1.278
0.003795082502888086,1.279
-0.024253584375021172,1.28
-0.0532617784852288,1.281
-0.07859799048760124,1.282
-0.09478276808979358,1.283
-0.0975789316230286,1.284
-0.0858001636265417,1.285
-0.061815373631088306,1.286
-0.030606791104671918,1.287
0.0017459030784382104,1.288
0.029286663849768513,1.289
0.04703449865407192,1.29
0.051892379596009994,1.291
0.043618398327019886,1.292
0.025211080247835718,1.293
0.00221033626683504,1.294
-0.01891721154925945,1.295
-0.03277262020322447,1.296
-0.03667192898133345,1.297
-0.03116713305115027,1.298
-0.019187100599828356,1.299
-0.004410317861872426,1.3
0.01007555227137166,1.301
0.022240354061512122,1.302
0.03095505689510129,1.303
0.03573879146245561,1.304
0.03666101701245937,1.305
0.03432608059796386,1.306
0.02973078844721288,1.307
0.02383102645782465,1.308
0.016932589752254385,1.309
0.008386583999935245,1.31
-0.0029647879063674147,1.311
-0.017674163533558482,1.312
-0.03470296888599471,1.313
-0.05153090372653444,1.314
-0.06529919699350344,1.315
-0.07377218882916478,1.316
-0.07535382726470373,1.317
-0.0687896198204062,1.318
-0.053349185943369924,1.319
-0.02925082556295264,1.32
0.002259155421362929,1.321
0.039021800503920914,1.322
0.07774834143387731,1.323
0.11364015505423454,1.324
0.14058838587190362,1.325
0.15227829705403906,1.326
0.14385110190755646,1.327
0.11357440269488542,1.328
0.06404071282818546,1.329
0.0024055866118253616,1.33
-0.060826599301814624,1.331
-0.11457628362160513,1.332
-0.15044403665590297,1.333
-0.16462138752518699,1.334
-0.15788812477532937,1.335
-0.13443266711786958,1.336
-0.10012210392471353,1.337
-0.06101710059977227,1.338
-0.022751204898328638,1.339
0.00984712080192747,1.34
0.033470705794338904,1.341
0.046903426686440625,1.342
0.05099847271454775,1.343
0.04820956411517744,1.344
0.04193096648469415,1.345
0.03577692364291611,1.346
0.032837451511697494,1.347
0.03493276511270927,1.348
0.04202412708684491,1.349
0.05208758255202298,1.35
0.06157743571906394,1.351
0.06624935333967187,1.352
0.062181786635318585,1.353
0.04708194567340833,1.354
0.0216261683596031,1.355
-0.010028327479950198,1.356
-0.04132014351694417,1.357
-0.0656810848266189,1.358
-0.07896601725876853,1.359
-0.08053040928908918,1.36
-0.07245774635477796,1.361
-0.05770987403549575,1.362
-0.0386172955373616,1.363
-0.01660500721218552,1.364
0.0070741349287109,1.365
0.030537704328294866,1.366
0.05110001808954392,1.367
0.06569639234397709,1.368
0.07152257256956873,1.369
0.06665515748402731,1.37
0.05068859331613807,1.371
0.025444097600761918,1.372
-0.0046385623689496145,1.373
-0.03320655556143002,1.374
-0.05407128620577381,1.375
-0.06365067088123565,1.376
-0.0621312919793502,1.377
-0.05276251541224748,1.378
-0.04011952436237829,1.379
-0.028276394175446456,1.38
-0.01944717599719925,1.381
-0.013708565546809305,1.382
-0.009926495954031264,1.383
-0.007020297866451261,1.384
-0.004570345093987081,1.385
-0.002559442705635043,1.386
-0.0008657280534431532,1.387
0.0008427322493629217,1.388
0.0028578585870713148,1.389
0.005214553269459393,1.39
0.007687296561342405,1.391
0.009937106021355759,1.392
0.011675267540996632,1.393
0.012826842546562401,1.394
0.013730593651448905,1.395
0.015310959042201776,1.396
0.019052635868347868,1.397
0.02658706636449724,1.398
0.03885124882967665,1.399
0.05510501768982534,1.4
0.07240736674731547,1.401
0.08603866894633519,1.402
0.09071915918648167,1.403
0.08204647751461773,1.404
0.05783316196818319,1.405
0.019312802862803263,1.406
-0.02819189828164878,1.407
-0.0760210074400745,1.408
-0.11472180939365346,1.409
-0.1373260170624098,1.41
-0.14136625732692662,1.411
-0.12856124108705583,1.412
-0.10306830549254982,1.413
-0.06986962270642975,1.414
-0.03390391689140702,1.415
0.0003025461111843654,1.416
0.028869260703845007,1.417
0.04885948205545845,1.418
0.05863116433102735,1.419
0.058099393219001094,1.42
0.04871857042230421,1.421
0.03314551804080115,1.422
0.014833372036565519,1.423
-0.0024222233781208756,1.424
-0.015225564701341836,1.425
-0.02138563288183196,1.426
-0.020354021515298106,1.427
-0.01322990909306827,1.428
-0.00226774824952605,1.429
0.010064192989874082,1.43
0.021898692617627755,1.431
0.032163774517585404,1.432
0.04028026609569471,1.433
0.045783089618051,1.434
0.048113046467136614,1.435
0.046541978622476866,1.436
0.04022175984619681,1.437
0.02855436293952515,1.438
0.011993313987079337,1.439
-0.007177112862451691,1.44
-0.0250585174519567,1.441
-0.03776894872677261,1.442
-0.043457109751169044,1.443
-0.04309669594439886,1.444
-0.03958707249194174,1.445
-0.036028139444726784,1.446
-0.03423141465312335,1.447
-0.034059367772558774,1.448
-0.033681230581754644,1.449
-0.0305091551998839,1.45
-0.02249377723830217,1.451
-0.009260123883407675,1.452
0.007534634461864492,1.453
0.02475830865495329,1.454
0.03882610637431673,1.455
0.04671285448541292,1.456
0.04671924558276385,1.457
0.03879112814894963,1.458
0.02432805920483971,1.459
0.005740572912587953,1.46
-0.01396235468215309,1.461
-0.03157464662652162,1.462
-0.04421356424652213,1.463
-0.04990613885120485,1.464
-0.04813495724914527,1.465
-0.04014103167908658,1.466
-0.028514102982292282,1.467
-0.016003297747174145,1.468
-0.004312115479225126,1.469
0.006399013658208633,1.47
0.01723564188124873,1.471
0.029771814522019886,1.472
0.04500649542287445,1.473
0.06236173447941908,1.474
0.07914633972971911,1.475
0.09092565554015035,1.476
0.0927483638220763,1.477
0.0807021305215276,1.478
0.053388004398456645,1.479
0.013071627797686437,1.48
-0.033967902377764474,1.481
-0.07856947389114266,1.482
-0.11150916715639421,1.483
-0.1268682785352141,1.484
-0.12382197237566173,1.485
-0.10582201419603193,1.486
-0.07831968939641488,1.487
-0.04679653151250929,1.488
-0.015820416950877596,1.489
0.011213765687099354,1.49
0.032194728814522074,1.491
0.046317680600246366,1.492
0.05380470227786973,1.493
0.05540138092845971,1.494
0.05199863441026856,1.495
0.044594105823625406,1.496
0.034482287021973784,1.497
0.023376985836095297,1.498
0.013253934927538045,1.499
0.005907654889012192,1.5
0.002396563149660415,1.501
0.0026239133392685554,1.502
0.005147473372795843,1.503
0.007263042810776437,1.504
0.005737483919754114,1.505
-0.0016290212341704851,1.506
-0.014467797680119167,1.507
-0.02957371948937906,1.508
-0.042182890663854215,1.509
-0.04792962386959739,1.51
-0.044411386911962177,1.511
-0.031865397774791936,1.512
-0.012913031738620538,1.513
0.008440819203727294,1.514
0.028028672237350553,1.515
0.042431678196922264,1.516
0.04943645538993897,1.517
0.04811348363297273,1.518
0.03869811399648086,1.519
0.022513925785441483,1.52
0.0019291915564738239,1.521
-0.019887636485523615,1.522
-0.03943742834969986,1.523
-0.05342354182212253,1.524
-0.05936949847524136,1.525
-0.056326070848339654,1.526
-0.04527102400289108,1.527
-0.028781768307542772,1.528
-0.010105457327424298,1.529
0.00784255877365684,1.53
0.02296958296495457,1.531
0.03368307572909106,1.532
0.038300954154370896,1.533
0.03532965077014396,1.534
0.024706309417990204,1.535
0.008604787674677473,1.536
-0.009144797847997346,1.537
-0.024507895703281796,1.538
-0.03459425464635639,1.539
-0.03813010471599315,1.54
-0.034871987332147886,1.541
-0.024645315979690666,1.542
-0.006888352173071572,1.543
0.01891727739626459,1.544
0.05212044825412423,1.545
0.08965497254056472,1.546
0.1254469783590166,1.547
0.15106812484464255,1.548
0.1575528480962744,1.549
0.13780971140585585,1.55
0.0891949774158197,1.551
0.015854275464219792,1.552
-0.07026765989549728,1.553
-0.15139784164753192,1.554
-0.20933950759175915,1.555
-0.23215271139348354,1.556
-0.21833696494407343,1.557
-0.17608702787425304,1.558
-0.11867489872030572,1.559
-0.059219288083312005,1.56
-0.007307174331348609,1.561
0.032017809299077174,1.562
0.057626528411542234,1.563
0.07100485089352979,1.564
0.07490622128054798,1.565
0.07229250275888101,1.566
0.06572215947296739,1.567
0.057113494686495236,1.568
0.0477211598751314,1.569
0.03823387080009589,1.57
0.0289792732167834,1.571
0.020183871877773447,1.572
0.012109466488751514,1.573
0.004934878633679903,1.574
-0.0014602625852843162,1.575
-0.0074505714139608634,1.576
-0.013169556275911466,1.577
-0.017843358789079576,1.578
-0.019533165158966047,1.579
-0.015629474199840846,1.58
-0.003988567164502774,1.581
0.015730639143639185,1.582
0.041198179894300115,1.583
0.06757084202358761,1.584
0.08859944819390457,1.585
0.09798568539510567,1.586
0.09054857480354665,1.587
0.06360250735874479,1.588
0.018753529121829683,1.589
-0.036985760458148345,1.59
-0.09219677930949886,1.591
-0.13444008158363854,1.592
-0.15481201295368055,1.593
-0.1512097130632495,1.594
-0.12819655469423952,1.595
-0.09394537504465802,1.596
-0.05664631523933384,1.597
-0.022187156651707788,1.598
0.006508745914729651,1.599
0.02894495895174743,1.6
0.04594503441707445,1.601
0.05850694593973739,1.602
0.06705385189201488,1.603
0.07124591954536762,1.604
0.07017632619038824,1.605
0.06279606180375322,1.606
0.04859693468596446,1.607
0.028412143050158777,1.608
0.0048938672459488955,1.609
-0.017814689118659237,1.61
-0.03534899480957662,1.611
-0.04477278240978713,1.612
-0.04560662889897961,1.613
-0.0395487677621913,1.614
-0.02913273400204629,1.615
-0.01635016603443205,1.616
-0.0020606156678147115,1.617
0.013731559551391728,1.618
0.03106862754634315,1.619
0.0491604238854906,1.62
0.06587151199589819,1.621
0.07780532372660243,1.622
0.08096539725834943,1.623
0.07180294910874305,1.624
0.048427184219026594,1.625
0.01187833627139706,1.626
-0.03284936869698539,1.627
-0.07710163416483902,1.628
-0.11101468217493551,1.629
-0.1271308215982911,1.63
-0.12304016062957361,1.631
-0.10170908545944651,1.632
-0.06960943047310224,1.633
-0.03390731715282849,1.634
-0.0002714776058768862,1.635
0.027963927875256332,1.636
0.04947595106965579,1.637
0.06403642591223552,1.638
0.07166798061781575,1.639
0.07231160404882588,1.64
0.06596008678518443,1.641
0.05293178449918249,1.642
0.03413703457300009,1.643
0.011421714795296772,1.644
-0.012152312543430917,1.645
-0.03258136758895064,1.646
-0.04604357351336868,1.647
-0.05042902751603828,1.648
-0.04624658253638403,1.649
-0.03617512310537447,1.65
-0.023654895607550706,1.651
-0.01159867286461257,1.652
-0.0018028773966690772,1.653
0.005067615707160853,1.654
0.009236558645517777,1.655
0.011534953747849998,1.656
0.01311074404769631,1.657
0.01506271591744289,1.658
0.01802819646711655,1.659
0.021871853929560408,1.66
0.02563333546411417,1.661
0.027795391572907568,1.662
0.026776417657778166,1.663
0.021435802202666925,1.664
0.011470157535473664,1.665
-0.002279335461467091,1.666
-0.01776121926708003,1.667
-0.0321885103463144,1.668
-0.04290610892436756,1.669
-0.04799662760969424,1.67
-0.046243050028065384,1.671
-0.036814596885710184,1.672
-0.019382502414105704,1.673
0.0050937733330756975,1.674
0.033578482886459586,1.675
0.061066953974617276,1.676
0.08162002184570756,1.677
0.08967880628191956,1.678
0.08132402790507613,1.679
0.055587760809153015,1.68
0.015668104112980055,1.681
-0.030784999416898006,1.682
-0.07332000808708151,1.683
-0.10228932764719786,1.684
-0.11262362933618546,1.685
-0.1052097652199242,1.686
-0.08517790534265793,1.687
-0.058997270824321844,1.688
-0.032403267250994065,1.689
-0.009485383584755508,1.69
0.007615918296403175,1.691
0.01867688760771278,1.692
0.025021272124241455,1.693
0.028888134521952043,1.694
0.03267963506206534,1.695
0.03822193356110712,1.696
0.0461662555425157,1.697
0.05565899102305244,1.698
0.0644302537095523,1.699
0.06935567700105835,1.7
0.06728912992692716,1.701
0.055914350907649,1.702
0.03460024999103801,1.703
0.005204750914077111,1.704
-0.027629419699563635,1.705
-0.05731556615920119,1.706
-0.07744742452308008,1.707
-0.08434175745683134,1.708
-0.07842482193259295,1.709
-0.06352268315982439,1.71
-0.04479844978403891,1.711
-0.02684170626426267,1.712
-0.012576766761983712,1.713
-0.0028678076805771827,1.714
0.0033090116942627373,1.715
0.008192436669665643,1.716
0.01426364556238053,1.717
0.023322618525936097,1.718
0.03593273028932682,1.719
0.05131122223132556,1.72
0.0674615905677468,1.721
0.08133841167289818,1.722
0.08916216815770091,1.723
0.08720460814452252,1.724
0.07299901917763514,1.725
0.04630444349915616,1.726
0.009269655839934363,1.727
-0.033830422800946565,1.728
-0.07672224585845257,1.729
-0.11166755261395984,1.73
-0.13139672647267245,1.731
-0.13198277621358948,1.732
-0.11463591785043639,1.733
-0.0849305514946405,1.734
-0.05017340925088185,1.735
-0.01685320829017831,1.736
0.01074744804826457,1.737
0.030830674473428656,1.738
0.04356455047125591,1.739
0.05013500198619533,1.74
0.051839030947479464,1.741
0.0495994482369749,1.742
0.04398434085401216,1.743
0.035513835386814144,1.744
0.02497420575071047,1.745
0.013567748384265641,1.746
0.0028786661307696393,1.747
-0.005263779837501251,1.748
-0.009094657439700674,1.749
-0.007558998091417488,1.75
-0.0010384148238735615,1.751
0.008480071046697946,1.752
0.018040694304154295,1.753
0.024707009896432805,1.754
0.026347872929183738,1.755
0.022037123946250892,1.756
0.012073474819970145,1.757
-0.00229987398870882,1.758
-0.019236208533918286,1.759
-0.03642839660052755,1.76
-0.051059857738272145,1.761
-0.059991695376111466,1.762
-0.06070307650993391,1.763
-0.05267596712508263,1.764
-0.03796339044711292,1.765
-0.020245779167134614,1.766
-0.003171591714488827,1.767
0.010907919287127837,1.768
0.021443973605148547,1.769
0.02950645459391957,1.77
0.0370628805884014,1.771
0.04594677422189958,1.772
0.056824875695708245,1.773
0.06854690696214408,1.774
0.07817060459241518,1.775
0.08159992034726549,1.776
0.07452454860380821,1.777
0.05365295026451566,1.778
0.018477571007191163,1.779
-0.02696887223357785,1.78
-0.07395718341637392,1.781
-0.11162036927727961,1.782
-0.13126194670191285,1.783
-0.12975357861204315,1.784
-0.10997255511854204,1.785
-0.0786863773588398,1.786
-0.04374468010109674,1.787
-0.011818300801148117,1.788
0.01292107219585011,1.789
0.029075671320052548,1.79
0.03743656005247559,1.791
0.040029516717758756,1.792
0.0392757742527586,1.793
0.03740216073382487,1.794
0.03600458361404807,1.795
0.03575869277224568,1.796
0.036367771865906444,1.797
0.036763562441667584,1.798
0.035466171766319624,1.799
0.03102572766372454,1.8
0.022540549813812743,1.801
0.010201868802843427,1.802
-0.0043852237295313855,1.803
-0.018498188641271344,1.804
-0.029351012607091834,1.805
-0.03537830606834351,1.806
-0.03677219134029678,1.807
-0.03484730849862544,1.808
-0.030913070727505695,1.809
-0.025577198920010476,1.81
-0.018725660830033908,1.811
-0.009903002040702099,1.812
0.001243362463380551,1.813
0.014596691620428773,1.814
0.02924321007621413,1.815
0.0432817017375943,1.816
0.05400069081606806,1.817
0.05844972372085519,1.818
0.05426031107188032,1.819
0.040564274148719597,1.82
0.018636671154153787,1.821
-0.008264947200793626,1.822
-0.03585808340330171,1.823
-0.059973174256949764,1.824
-0.07734590660518201,1.825
-0.08588352526723846,1.826
-0.08461793032485074,1.827
-0.07384435926553347,1.828
-0.05539053679386852,1.829
-0.03242426550618043,1.83
-0.008776276976267,1.831
0.011824541880712233,1.832
0.02652104652988053,1.833
0.03397679695116983,1.834
0.03445460051457343,1.835
0.029229953099129503,1.836
0.020020481068691556,1.837
0.009038891453773547,1.838
-0.0006219451813603563,1.839
-0.004996405010418353,1.84
-3.3882857918104015e-05,1.841
0.016996166951500198,1.842
0.04607009084124089,1.843
0.08361082412736191,1.844
0.12264772144132266,1.845
0.15388786057767612,1.846
0.16751122434431676,1.847
0.15536762341757374,1.848
0.11323813018294579,1.849
0.04298653676718356,1.85
-0.04602011926026654,1.851
-0.13763712604092607,1.852
-0.21277743066317292,1.853
-0.25554220505336755,1.854
-0.25885436988857563,1.855
-0.22625386798386105,1.856
-0.16908629063680752,1.857
-0.10159280687339758,1.858
-0.036578145157673436,1.859
0.017224393292950384,1.86
0.05580138834894579,1.861
0.07892844409027723,1.862
0.08872106079383912,1.863
0.08842480640221444,1.864
0.08154340745770024,1.865
0.07124523694620266,1.866
0.06001766952101604,1.867
0.049523521552311156,1.868
0.04062503755007079,1.869
0.033522644658992774,1.87
0.02794877878436589,1.871
0.023382307309724328,1.872
0.019248932249910533,1.873
0.015072333723706841,1.874
0.01057085647214304,1.875
0.005687076874694823,1.876
0.0005292251838631243,1.877
-0.0047240953665478825,1.878
-0.009869547798400824,1.879
-0.014663209189459733,1.88
-0.018794699668273157,1.881
-0.02189681337650841,1.882
-0.02360786632170615,1.883
-0.023663073245074856,1.884
-0.021958875381801614,1.885
-0.01857418420968336,1.886
-0.013801150779684267,1.887
-0.008215534412618962,1.888
-0.002726219685379564,1.889
0.0015204410306761474,1.89
0.0034702925322189727,1.891
0.0026193518331910676,1.892
-0.0006852736221820298,1.893
-0.005303867182568568,1.894
-0.009668401484712888,1.895
-0.012237101345234015,1.896
-0.011873715829102571,1.897
-0.00811923030189797,1.898
-0.0013693077320556125,1.899
0.00705666253433376,1.9
0.015081416553303504,1.901
0.02043223801180789,1.902
0.02142576626268133,1.903
0.017517962164730852,1.904
0.009397273790381876,1.905
-0.0012007384819706017,1.906
-0.011693519472926614,1.907
-0.01897838444155484,1.908
-0.020296195335938915,1.909
-0.01456871134363577,1.91
-0.0033629413596871017,1.911
0.009408443191066936,1.912
0.019010251432572532,1.913
0.021663578010777836,1.914
0.015744579284483206,1.915
0.002237615708795566,1.916
-0.015518469668147565,1.917
-0.03278909326791835,1.918
-0.04498102456898155,1.919
-0.04929716852900222,1.92
-0.045619412080375704,1.921
-0.03602441293490017,1.922
-0.02342855522802034,1.923
-0.01031193473299179,1.924
0.0020228922066532003,1.925
0.013566990953717693,1.926
0.025128381716838278,1.927
0.03752083272626989,1.928
0.05079910534819801,1.929
0.06383985309728393,1.93
0.07435059392593586,1.931
0.0792092293248908,1.932
0.07511579368003964,1.933
0.05966846449594992,1.934
0.03271014882326697,1.935
-0.0027141393663005524,1.936
-0.04053011447708542,1.937
-0.0731945756310273,1.938
-0.09420859509910523,1.939
-0.10049124980668861,1.94
-0.09331478915466013,1.941
-0.07719394108061549,1.942
-0.05743287865128243,1.943
-0.03793118028952702,1.944
-0.020470465145399932,1.945
-0.005372459076730651,1.946
0.007599178244485068,1.947
0.018916756993233398,1.948
0.029289014258598978,1.949
0.03942792122587547,1.95
0.04957105580292315,1.951
0.0590927346421762,1.952
0.06646603395316972,1.953
0.06955568802555835,1.954
0.06601542494872822,1.955
0.05379029151428545,1.956
0.032044494040566154,1.957
0.0024359826964676927,1.958
-0.030246779931752326,1.959
-0.05907330127958914,1.96
-0.07741848113184177,1.961
-0.081630408426479,1.962
-0.07234027868899791,1.963
-0.05363969109102127,1.964
-0.0309818640964399,1.965
-0.009240597556393202,1.966
0.008402547836254673,1.967
0.02070806061541834,1.968
0.027965333393002365,1.969
0.03127911862976129,1.97
0.031909728804882236,1.971
0.030818922676084975,1.972
0.028424267959175402,1.973
0.024590596606653924,1.974
0.018874833866441742,1.975
0.01094323963699537,1.976
0.0010078018754538006,1.977
-0.00992406449113056,1.978
-0.020137623461615118,1.979
-0.02763707277294135,1.98
-0.030849292030557713,1.981
-0.029358825635974174,1.982
-0.02410651465556412,1.983
-0.016792201749132495,1.984
-0.00900709662180349,1.985
-0.001734557870711191,1.986
0.004673785785724627,1.987
0.010257450834245369,1.988
0.015127514155284707,1.989
0.01919107644226377,1.99
0.0220305619012337,1.991
0.023001681663364276,1.992
0.02148992158899571,1.993
0.017187823560754385,1.994
0.010287100628250393,1.995
0.001497253166495603,1.996
-0.00812271253066103,1.997
-0.01733752114313169,1.998
-0.024785450627913715,1.999
-0.029101153246105484,2.0
-0.02932027139242045,2.001
-0.02538817478880627,2.002
-0.01834390693978606,2.003
-0.009956038450200762,2.004
-0.0020696051909844153,2.005
0.0038833892834559854,2.006
0.007089331273366829,2.007
0.007427382033519077,2.008
0.005461013828492752,2.009
0.0022937253030640955,2.01
-0.0007017841556487791,2.011
-0.0022074162980444396,2.012
-0.0012937190760912206,2.013
0.002260312794060378,2.014
0.007793232540485784,2.015
0.013895487691487012,2.016
0.018825291067617142,2.017
0.020982189165739285,2.018
0.019248868115137263,2.019
0.013200336492994812,2.02
0.0032442081129487937,2.021
-0.009320902046634723,2.022
-0.022375520622720513,2.023
-0.03323140741948636,2.024
-0.03912875440322541,2.025
-0.037948292327623805,2.026
-0.028937938119404337,2.027
-0.013122442061249493,2.028
0.006893713291906664,2.029
0.027661412071361666,2.03
0.04568562753307073,2.031
0.05790201509009236,2.032
0.06194891668859608,2.033
0.05658731235246042,2.034
0.042274353018459394,2.035
0.021429315859246328,2.036
-0.002102792965398878,2.037
-0.02439415409709439,2.038
-0.04280438196140483,2.039
-0.0562976859932393,2.04
-0.06456870031051001,2.041
-0.06710521760241493,2.042
-0.06321819379850885,2.043
-0.052856321421336575,2.044
-0.03731427478587725,2.045
-0.019224584546071954,2.046
-0.0018314839744831978,2.047
0.0120047301212872,2.048
0.02054803518172818,2.049
0.02345925408661316,2.05
0.021688602988184192,2.051
0.01712701693541096,2.052
0.012104218076145278,2.053
0.008789283358771216,2.054
0.008613847470876956,2.055
0.011898976187387073,2.056
0.017773170125131212,2.057
0.02437144380400465,2.058
0.02934107697252536,2.059
0.03066070287378014,2.06
0.027490690392889514,2.061
0.020517625182216153,2.062
0.011568564295611868,2.063
0.002877467231638363,2.064
-0.003513758568205877,2.065
-0.00616067639215054,2.066
-0.004669720675212242,2.067
-0.00023550434915634716,2.068
0.004287897115289948,2.069
0.005409924364779307,2.07
0.0007476095808217347,2.071
-0.009662147031973368,2.072
-0.02321528113827336,2.073
-0.035819307908411334,2.074
-0.04375423656732226,2.075
-0.04521302484118441,2.076
-0.04048738078874084,2.077
-0.031109113006041623,2.078
-0.019056378153842347,2.079
-0.006366709576372529,2.08
0.005125047281049574,2.081
0.014004531820371504,2.082
0.01939783152242753,2.083
0.020979807296052276,2.084
0.018886302901253395,2.085
0.01362856965711574,2.086
0.006117657149860756,2.087
-0.002262672157807383,2.088
-0.009713127006361868,2.089
-0.014334322125754462,2.09
-0.014711030793347582,2.091
-0.010561673242731554,2.092
-0.0030248761388466895,2.093
0.005736618117983741,2.094
0.013402218373197109,2.095
0.01828405146320198,2.096
0.019717307543249244,2.097
0.018010124562646744,2.098
0.014059567194717331,2.099
0.008884943145446994,2.1
0.0033570741661723335,2.101
-0.0017924808606701948,2.102
-0.0058765735711027375,2.103
-0.008280946858026914,2.104
-0.008576575998669827,2.105
-0.0066075082253037095,2.106
-0.002551425000312086,2.107
0.0030426835153269946,2.108
0.009247028280909609,2.109
0.014769694817183088,2.11
0.018018150533353563,2.111
0.01731999296103533,2.112
0.011408801712070656,2.113
8.80440376501198e-05,2.114
-0.015214470022038292,2.115
-0.03138473774466829,2.116
-0.044426828972068545,2.117
-0.051069871428542864,2.118
-0.05027342443606682,2.119
-0.043504162606606826,2.12
-0.03366257178847195,2.121
-0.023553394904518476,2.122
-0.014733431405150429,2.123
-0.007072893242553457,2.124
0.0009737883737524762,2.125
0.01161621896472088,2.126
0.026753048660082723,2.127
0.04696008364601095,2.128
0.07071627259449774,2.129
0.09429694620837982,2.13
0.11249231832569763,2.131
0.11968795425842048,2.132
0.11087594755997328,2.133
0.08290959990297748,2.134
0.03631946166235545,2.135
-0.02314587789516834,2.136
-0.08480620005562055,2.137
-0.13580519952402367,2.138
-0.16535262772740758,2.139
-0.1684563018907439,2.14
-0.14718197152594578,2.141
-0.10896086582032884,2.142
-0.06342758828103569,2.143
-0.019519005929067995,2.144
0.016419529913898633,2.145
0.041307324901992196,2.146
0.05493820046547204,2.147
0.05904219543779664,2.148
0.05627391413637703,2.149
0.0494102831375482,2.15
0.04084160768569439,2.151
0.03230852025613175,2.152
0.024838257728279203,2.153
0.01883069546367662,2.154
0.014226287626372763,2.155
0.010705114574124139,2.156
0.007882107035103704,2.157
0.005454598875812467,2.158
0.003260876323430209,2.159
0.0012506573801725693,2.16
-0.0005822456854387043,2.161
-0.0022538772628121736,2.162
-0.003810511489870508,2.163
-0.005311894359797464,2.164
-0.0067880237237238,2.165
-0.008200876807822596,2.166
-0.009438359010187528,2.167
-0.010332974666588255,2.168
-0.010690592040661372,2.169
-0.010335738507147203,2.17
-0.009170987460089663,2.171
-0.007231951533526418,2.172
-0.004715772865603866,2.173
-0.0019584250154557974,2.174
0.0006414835300165298,2.175
0.002721052493456701,2.176
0.004024918966895386,2.177
0.004409262445368258,2.178
0.0038006315703751903,2.179
0.0021980100257495932,2.18
-0.0002567788828228032,2.181
-0.003230611326240543,2.182
-0.006235229976130935,2.183
-0.008714220890066463,2.184
-0.010120717909659228,2.185
-0.009931316471843206,2.186
-0.007630665052024695,2.187
-0.002832426750863115,2.188
0.004384750236212295,2.189
0.013092802525991341,2.19
0.02138923665575539,2.191
0.026774857325021845,2.192
0.026941793108407403,2.193
0.02057344998186635,2.194
0.007906657832860809,2.195
-0.008979524894128198,2.196
-0.02638382290602442,2.197
-0.0400386568565086,2.198
-0.04674059310479693,2.199
-0.04554016216433552,2.2
-0.03760253029683678,2.201
-0.025021060609019968,2.202
-0.009770258977425759,2.203
0.006466077342826195,2.204
0.021892237565978433,2.205
0.034332139185536195,2.206
0.041486861755543135,2.207
0.0416129027233169,2.208
0.03423161934554975,2.209
0.0204772128296668,2.21
0.0029363480148595945,2.211
-0.01486354156314678,2.212
-0.029143787883533133,2.213
-0.03680497963663789,2.214
-0.03652076359625048,2.215
-0.02931832063750259,2.216
-0.018078577448587558,2.217
-0.00635624823059737,2.218
0.00275176944257709,2.219
0.007425754702743871,2.22
0.007559175452889237,2.221
0.0046720593363654365,2.222
0.0012036685281933534,2.223
-0.0007290572659651164,2.224
-0.0004395199224807965,2.225
0.0013779317319615237,2.226
0.0038249789362988897,2.227
0.006799427965621181,2.228
0.010978486793207027,2.229
0.017098034407670607,2.23
0.025119679017226504,2.231
0.03373905499957631,2.232
0.04059894918872411,2.233
0.04324536241904294,2.234
0.0402439116164978,2.235
0.031625933556191775,2.236
0.01848853812568578,2.237
0.0023855819452094,2.238
-0.014951928670313672,2.239
-0.03174708777559522,2.24
-0.0464987845726004,2.241
-0.058246875729769554,2.242
-0.06625297055400516,2.243
-0.0693659104895415,2.244
-0.06613962775719591,2.245
-0.055963376580242204,2.246
-0.04005117338388193,2.247
-0.021221553024985594,2.248
-0.002744625058464798,2.249
0.0127413670916923,2.25
0.023746686832230114,2.251
0.029962932386664632,2.252
0.03198771650609973,2.253
0.030917331728891124,2.254
0.027962114472950314,2.255
0.02416826301800299,2.256
0.0202744512691191,2.257
0.016684145466592068,2.258
0.013516060001712935,2.259
0.010700898131397456,2.26
0.00808724937669682,2.261
0.005527912018266099,2.262
0.0029502207007774586,2.263
0.0004062496175050599,2.264
-0.0019290521107239132,2.265
-0.003819814886609108,2.266
-0.005062104456696404,2.267
-0.005564213097052696,2.268
-0.005370406295288663,2.269
-0.004628536588658687,2.27
-0.0035468664421862365,2.271
-0.002362909644405696,2.272
-0.0013151891314123175,2.273
-0.0006084955937523384,2.274
-0.00037420080242612087,2.275
-0.0006405553499605708,2.276
-0.0013322601922704236,2.277
-0.0023080183424840075,2.278
-0.0034163269072892536,2.279
-0.004528058547644242,2.28
-0.005521997658878811,2.281
-0.006242231980300295,2.282
-0.006489408663717136,2.283
-0.006096037762541162,2.284
-0.005046145590902653,2.285
-0.003542962190764261,2.286
-0.001979412379210957,2.287
-0.0008433061522864957,2.288
-0.0006059971494335912,2.289
-0.001620989588641309,2.29
-0.004031282202972176,2.291
-0.0076679016717664805,2.292
-0.011974179010997791,2.293
-0.016066412364984673,2.294
-0.018983702245167013,2.295
-0.019987850746920808,2.296
-0.01868990352134423,2.297
-0.0149765026265202,2.298
-0.008936476298912133,2.299
-0.0008902524849483059,2.3
0.008610011757906329,2.301
0.01889323449504471,2.302
0.02926009977380841,2.303
0.03891866311298798,2.304
0.04684012262703815,2.305
0.05172204378337326,2.306
0.05215842231770857,2.307
0.04698080862702033,2.308
0.03565648694748844,2.309
0.018600094521703973,2.31
-0.0026795284400983484,2.311
-0.02560371810520056,2.312
-0.046799235072286734,2.313
-0.06273815802730806,2.314
-0.07064153832002215,2.315
-0.06929666334247617,2.316
-0.05946665519044372,2.317
-0.04371557353316904,2.318
-0.025571723073849736,2.319
-0.008345336554001092,2.32
0.005717280896242444,2.321
0.015616272556271203,2.322
0.021336694225085346,2.323
0.023460329449668384,2.324
0.022837077384991616,2.325
0.020366989901750777,2.326
0.01686974689740908,2.327
0.013008112636195623,2.328
0.009262497302931692,2.329
0.005971049431884824,2.33
0.0033935240211841067,2.331
0.0017272762152068825,2.332
0.001059354711983612,2.333
0.0013027570934255354,2.334
0.0021658872912420396,2.335
0.0031577743468209803,2.336
0.0036379499229045953,2.337
0.0029738512224788804,2.338
0.0007954119554370287,2.339
-0.0028204390017721433,2.34
-0.007359070772482095,2.341
-0.012003911362106094,2.342
-0.015779885519570144,2.343
-0.017689982122940227,2.344
-0.016918843425087975,2.345
-0.013121424943689782,2.346
-0.006628321154550415,2.347
0.001658882120967908,2.348
0.010620290778320825,2.349
0.01915945414891031,2.35
0.02615835498461285,2.351
0.0303836549182132,2.352
0.030604963984915152,2.353
0.025884299337284956,2.354
0.015925693199003155,2.355
0.0015005049279587833,2.356
-0.015196994738057145,2.357
-0.03068412269598058,2.358
-0.04106694624189796,2.359
-0.04342006948011728,2.36
-0.03698424610770314,2.361
-0.02341043809230597,2.362
-0.005968399315402785,2.363
0.011551214551083377,2.364
0.025666593238736157,2.365
0.033767060928969764,2.366
0.03450259169910677,2.367
0.02794934065565219,2.368
0.015517792185672348,2.369
-0.00031662563013819494,2.37
-0.01641670181911763,2.371
-0.029602365056524124,2.372
-0.037435119557646036,2.373
-0.03883959407401097,2.374
-0.034299927851912465,2.375
-0.02561346805182979,2.376
-0.015230623337924302,2.377
-0.005400871802333771,2.378
0.002411994082036364,2.379
0.007650445985916813,2.38
0.010504656904857617,2.381
0.01165823991971622,2.382
0.011983370545668129,2.383
0.012204826751595267,2.384
0.012643265318270192,2.385
0.013178411226422937,2.386
0.013431982488711119,2.387
0.01302651557385311,2.388
0.011768493535395434,2.389
0.009696581701624213,2.39
0.00703715771849663,2.391
0.004133405784316347,2.392
0.0013695953448769026,2.393
-0.0009164468378198514,2.394
-0.0025168890739543015,2.395
-0.0033915642783165444,2.396
-0.0036439071959957544,2.397
-0.003461503418542166,2.398
-0.0030585318730219496,2.399
-0.002648970738221756,2.4
-0.0024430546410698574,2.401
-0.002620000950642921,2.402
-0.003251709569195673,2.403
-0.0042277810792725025,2.404
-0.00527662978818549,2.405
-0.006108900598406785,2.406
-0.006579906952603098,2.407
-0.006724694303613327,2.408
-0.006623048211911523,2.409
-0.006217569411711533,2.41
-0.005309138026117865,2.411
-0.0038608395235935414,2.412
-0.0023621413185216204,2.413
-0.0017247740199258928,2.414
-0.002600504410535379,2.415
-0.004740230732364436,2.416
-0.007056092217031906,2.417
-0.008366887729270842,2.418
-0.008196671202326491,2.419
-0.006988828742575494,2.42
-0.005629181985418377,2.421
-0.00472304653667361,2.422
-0.004169918820959991,2.423
-0.003252672188078659,2.424
-0.00108115797755528,2.425
0.002878093181960934,2.426
0.00836547325375937,2.427
0.014162178014305984,2.428
0.018390515835827438,2.429
0.019262116694693313,2.43
0.015940031004203055,2.431
0.00906720129252906,2.432
0.0006279010680189491,2.433
-0.006882400386265233,2.434
-0.011524573970086143,2.435
-0.012539439580503499,2.436
-0.010262225896272074,2.437
-0.005648347969216979,2.438
0.000159474567053577,2.439
