VaMe,time
0.003292444725862778,0.001
-0.0026640332652187056,0.002
-0.006736327670413207,0.003
-0.007519451259249375,0.004
-0.004474751965899226,0.005
0.0020647930210200486,0.006
0.011112229767934875,0.007
0.02128938146558908,0.008
0.031033040521234193,0.009
0.03873920205091409,0.01
0.04287527622000529,0.011
0.042120670851050854,0.012
0.03560176454448949,0.013
0.023250865263583376,0.014
0.006221380499206668,0.015
-0.012911591517218863,0.016
-0.03053461168600324,0.017
-0.04304613733304711,0.018
-0.04813225469492549,0.019
-0.04551567121786272,0.02
-0.03674612795389489,0.021
-0.024368802128131868,0.022
-0.011112121980479145,0.023
0.0006682049567902536,0.024
0.009372838812098678,0.025
0.014349083583975868,0.026
0.015791329944097206,0.027
0.014410602657601029,0.028
0.01104837760276479,0.029
0.0064246098078637355,0.03
0.0011414063795422119,0.031
-0.004163286942137405,0.032
-0.00873037682989505,0.033
-0.01174656290458735,0.034
-0.012517920264346435,0.035
-0.010657724329187277,0.036
-0.0062035504209308435,0.037
0.0003917197336993616,0.038
0.00840006045514412,0.039
0.016985954134792043,0.04
0.02526529640663098,0.041
0.03225799994273315,0.042
0.03687053605841957,0.043
0.038007656453924954,0.044
0.03479256067090689,0.045
0.026817684405087642,0.046
0.014377916609211457,0.047
-0.0013337637871978806,0.048
-0.01816833936389554,0.049
-0.03328699134651669,0.05
-0.04383907024054562,0.051
-0.047897650726927046,0.052
-0.04520732945919976,0.053
-0.03717598627936661,0.054
-0.026059831617490193,0.055
-0.014041692091308506,0.056
-0.0028206530081134346,0.057
0.0063456692157873125,0.058
0.012540640277969356,0.059
0.015277282613843285,0.06
0.014678826790215808,0.061
0.011504672678949345,0.062
0.0069606036632572,0.063
0.0023755369498804123,0.064
-0.001169865647583499,0.065
-0.0031078800492552487,0.066
-0.003404357190597057,0.067
-0.002391732894422329,0.068
-0.0005743666960877401,0.069
0.00151815940867035,0.07
0.0034683090342026717,0.071
0.005108877847786613,0.072
0.006578464422250497,0.073
0.008250264397700676,0.074
0.010555950026951472,0.075
0.013724397049371992,0.076
0.017520334507540532,0.077
0.021138226439778262,0.078
0.023335358508384228,0.079
0.02277639062397294,0.08
0.018503643394473825,0.081
0.01034821897086102,0.082
-0.0009319662243575651,0.083
-0.013772137492331029,0.084
-0.026018482313003983,0.085
-0.035281734916447066,0.086
-0.039530867863612526,0.087
-0.03774074019081758,0.088
-0.030257098442302524,0.089
-0.01871569070196191,0.09
-0.005549489315388628,0.091
0.0067205371438404495,0.092
0.016119830301214316,0.093
0.021585525474786267,0.094
0.02301895052872539,0.095
0.021076891944671654,0.096
0.01682970846565361,0.097
0.011436531608621285,0.098
0.005939267382042296,0.099
0.0011877282088006422,0.1
-0.002195880508426786,0.101
-0.003938134049923995,0.102
-0.004289859504171132,0.103
-0.004044351065546914,0.104
-0.004261769292289445,0.105
-0.0057983236390513355,0.106
-0.008906308413265366,0.107
-0.013127866568672082,0.108
-0.01745627352954356,0.109
-0.0205894943599107,0.11
-0.021209023227174252,0.111
-0.018335221872446215,0.112
-0.011759018393786385,0.113
-0.0023552298257585973,0.114
0.008037169962752708,0.115
0.017226240526724473,0.116
0.02342807588705466,0.117
0.0257640687737407,0.118
0.024317450186036968,0.119
0.019863262017276662,0.12
0.013522183811758747,0.121
0.0065139250134453154,0.122
3.5390500457733995e-05,0.123
-0.004804445815748478,0.124
-0.007062712508643953,0.125
-0.00609617154675521,0.126
-0.001727040323572181,0.127
0.005651193009074518,0.128
0.015055499328974282,0.129
0.024951089733007265,0.13
0.03337669389871216,0.131
0.03819236100828205,0.132
0.03743944015167177,0.133
0.029815785591593855,0.134
0.015209868945393352,0.135
-0.004954239897621037,0.136
-0.02786298205135377,0.137
-0.049911423624039615,0.138
-0.06733776011416204,0.139
-0.07674208094461277,0.14
-0.07585823232740257,0.141
-0.06458527320015361,0.142
-0.04542468177772427,0.143
-0.022638387285738335,0.144
-0.000604296139825845,0.145
0.017506180999995673,0.146
0.030129893891565975,0.147
0.03701313967154222,0.148
0.03867414723707404,0.149
0.035934252677530386,0.15
0.02967479335085048,0.151
0.020856035018621103,0.152
0.010666242173840565,0.153
0.0005603074302157598,0.154
-0.007903931960861027,0.155
-0.013299155863799152,0.156
-0.014516447099030473,0.157
-0.010947838094381872,0.158
-0.002738001864024623,0.159
0.008956131485897065,0.16
0.021923553609152345,0.161
0.03327075209129578,0.162
0.04016053762725387,0.163
0.04066339723344269,0.164
0.03436998527331389,0.165
0.022473158437030617,0.166
0.007351371440194369,0.167
-0.008077267190353789,0.168
-0.021062784371175116,0.169
-0.029691813415278046,0.17
-0.03331064669487671,0.171
-0.032489320434943805,0.172
-0.02852427798072903,0.173
-0.022786908875619787,0.174
-0.016300762315384246,0.175
-0.009672878144100576,0.176
-0.0032493069519436905,0.177
0.0026915369969301305,0.178
0.007832876524671701,0.179
0.011827640362067902,0.18
0.014358850393119694,0.181
0.015190748797574198,0.182
0.014224993767924497,0.183
0.011569313009687627,0.184
0.007546371586852238,0.185
0.002602264009572835,0.186
-0.0028024451611392666,0.187
-0.00819802927349814,0.188
-0.013010409070801223,0.189
-0.01653640578423783,0.19
-0.01812295134407598,0.191
-0.0174609636248304,0.192
-0.014801480313325,0.193
-0.010944658982017446,0.194
-0.006936633349026088,0.195
-0.0036128030376602577,0.196
-0.00127819608293764,0.197
0.0003182075364985059,0.198
0.0017754324560670068,0.199
0.0037433978708152895,0.2
0.006677986202151211,0.201
0.010729060260212704,0.202
0.015733199984191207,0.203
0.021235093851021493,0.204
0.0265280976080481,0.205
0.030746432168569482,0.206
0.03297281168173609,0.207
0.03231338435621116,0.208
0.02802569183984569,0.209
0.01980668334266674,0.21
0.00812362569122252,0.211
-0.005693713489347475,0.212
-0.019737700474541153,0.213
-0.03205636729177147,0.214
-0.04117270217715713,0.215
-0.046307423621890685,0.216
-0.047187349519471684,0.217
-0.043706804357123985,0.218
-0.035864240959004506,0.219
-0.024076785951756594,0.22
-0.009573063699150345,0.221
0.0055695612465756225,0.222
0.01891453884438523,0.223
0.028390329685677496,0.224
0.032839921496259146,0.225
0.03224392694738315,0.226
0.027624385521518097,0.227
0.02064876836402658,0.228
0.013054453096758116,0.229
0.006160633406356049,0.23
0.0006839795600681035,0.231
-0.0031785262419358564,0.232
-0.005561220040991496,0.233
-0.006724870080462962,0.234
-0.006905092961192862,0.235
-0.006298071898678402,0.236
-0.005158712056319778,0.237
-0.0038583606358618327,0.238
-0.002781594307218788,0.239
-0.0021052927752215813,0.24
-0.0016525008717688723,0.241
-0.0010086503458882038,0.242
0.00013293063464484353,0.243
0.0016594431234741342,0.244
0.0030271709529331023,0.245
0.0035991988670624406,0.246
0.003094315640186615,0.247
0.001789449476901854,0.248
0.00030815625746528186,0.249
-0.0008005574797051157,0.25
-0.00130975014814697,0.251
-0.001262971286535374,0.252
-0.0008295700793008554,0.253
-0.00023880395138257818,0.254
0.0002401599125289542,0.255
0.0003548935531208142,0.256
-2.507183602652568e-05,0.257
-0.0008219273727649158,0.258
-0.0017596586032720806,0.259
-0.002452030971494192,0.26
-0.0025001873888492038,0.261
-0.0015832367759442407,0.262
0.0004704375201027269,0.263
0.0036443814815885042,0.264
0.007675258407056895,0.265
0.011946509009951959,0.266
0.01544290777783209,0.267
0.01690603737524442,0.268
0.015186203181668245,0.269
0.009650012129714492,0.27
0.0005016104148934039,0.271
-0.011086887112677593,0.272
-0.02311558365325341,0.273
-0.03318277160931663,0.274
-0.03909878624804578,0.275
-0.039476061660295346,0.276
-0.034123115477593294,0.277
-0.02418314871664962,0.278
-0.011876604290712472,0.279
0.0002543326762117949,0.28
0.010271608041268846,0.281
0.01740647431413999,0.282
0.022075952750714,0.283
0.025506640242650737,0.284
0.02915068400657182,0.285
0.034007692734366504,0.286
0.040033516225753026,0.287
0.04592654752094934,0.288
0.04944960129247289,0.289
0.04811682749071068,0.29
0.03992919025272227,0.291
0.024015363067511567,0.292
0.001168792755563972,0.293
-0.025846316106416835,0.294
-0.0524932012998516,0.295
-0.07338637586429335,0.296
-0.08386042319274595,0.297
-0.08167820121547245,0.298
-0.06797734966770373,0.299
-0.046688668320751726,0.3
-0.02277935635977295,0.301
-0.0006028431934656327,0.302
0.01689288245934357,0.303
0.02830390274786201,0.304
0.03362632880212299,0.305
0.03396544893881515,0.306
0.03110679584779731,0.307
0.026968845128192708,0.308
0.02307496983236044,0.309
0.020249989053945587,0.31
0.01862988327391885,0.311
0.01787195952673841,0.312
0.017387787713416893,0.313
0.016515006334527335,0.314
0.014636207237602318,0.315
0.011279402512331366,0.316
0.0062239587387165245,0.317
-0.0003809990948002412,0.318
-0.007916684583508195,0.319
-0.015307053727033604,0.32
-0.021223529599001992,0.321
-0.024464846121140887,0.322
-0.0243950094095126,0.323
-0.021213167312451337,0.324
-0.015851825276312757,0.325
-0.009566853404989998,0.326
-0.00350059395587184,0.327
0.0015765837091751662,0.328
0.005320367037218684,0.329
0.007701098623949972,0.33
0.008803344242555121,0.331
0.008689076832485657,0.332
0.007436238443744382,0.333
0.005266070092593196,0.334
0.0025659009825183513,0.335
-0.00022609436926321227,0.336
-0.0027399860720168996,0.337
-0.004710680325866312,0.338
-0.005936772603568705,0.339
-0.006213614157596413,0.34
-0.0053437345292724455,0.341
-0.0032796134110300193,0.342
-0.0002867283120718721,0.343
0.003057258805590071,0.344
0.006073537630622836,0.345
0.008250755385340518,0.346
0.009375417904595533,0.347
0.00947725977138023,0.348
0.008684311958124339,0.349
0.0071014284254384075,0.35
0.004795977233242419,0.351
0.0019029388253209141,0.352
-0.0012702057313039173,0.353
-0.004303087923900611,0.354
-0.006874696052904479,0.355
-0.008901420607217879,0.356
-0.01042132987961063,0.357
-0.011346200843649078,0.358
-0.011387520653046733,0.359
-0.010255699258417971,0.36
-0.007911021079918402,0.361
-0.0046288436605715745,0.362
-0.000859283990359807,0.363
0.002969153246324696,0.364
0.006529374228633193,0.365
0.009508288019407014,0.366
0.011480280161714622,0.367
0.011919818572131483,0.368
0.010386888707764936,0.369
0.006761991401784321,0.37
0.0014070905604947502,0.371
-0.004810202656562258,0.372
-0.010664305889454407,0.373
-0.01486243503707456,0.374
-0.016375638460697076,0.375
-0.014690376086868717,0.376
-0.009891687976602115,0.377
-0.0025772070506523367,0.378
0.006313958259241941,0.379
0.015651503110040342,0.38
0.024193111206284923,0.381
0.030668714757379464,0.382
0.033971708284504895,0.383
0.03340767528363991,0.384
0.028817590161276514,0.385
0.020496794543429158,0.386
0.009079971411207761,0.387
-0.004427905407476659,0.388
-0.01852772445613912,0.389
-0.031202581225638595,0.39
-0.040178578484945805,0.391
-0.0435340707306264,0.392
-0.040453566520833234,0.393
-0.031704761132234666,0.394
-0.01949478769686115,0.395
-0.006696184399817747,0.396
0.004153008723080747,0.397
0.01151418603678548,0.398
0.014968373782888535,0.399
0.015010683609853498,0.4
0.012734331350114156,0.401
0.009433842772032908,0.402
0.006190008739942846,0.403
0.0036160580606507857,0.404
0.001871312857764358,0.405
0.0008409793670074721,0.406
0.00030946216696621634,0.407
8.146448660984148e-05,0.408
7.99518334376968e-05,0.409
0.00038697093829233434,0.41
0.0011738709474806122,0.411
0.0025388373266056734,0.412
0.0043453170150426785,0.413
0.00616830935262343,0.414
0.0073900978727266175,0.415
0.00741033201365037,0.416
0.005894393157176157,0.417
0.002959047174632937,0.418
-0.0008031064937337074,0.419
-0.0044930050469524025,0.42
-0.007211730238807312,0.421
-0.008364486429692137,0.422
-0.007796813377365329,0.423
-0.005733704074843454,0.424
-0.0026339944105470167,0.425
0.0009468248687412269,0.426
0.004456400921328976,0.427
0.007406565650104624,0.428
0.00940504835250597,0.429
0.01017628076024747,0.43
0.009588487478127072,0.431
0.0076761147969768104,0.432
0.004631011712377194,0.433
0.000767213768503711,0.434
-0.0035100123208239332,0.435
-0.007723619122172939,0.436
-0.011352545182111876,0.437
-0.013885818363707614,0.438
-0.014897629749030021,0.439
-0.014112853637783031,0.44
-0.011450881696187857,0.441
-0.007082066981705849,0.442
-0.0014938006875694018,0.443
0.0045205452324962436,0.444
0.009992799091515438,0.445
0.013980550352919709,0.446
0.015777605075448176,0.447
0.015085870351474205,0.448
0.012112938266641657,0.449
0.007564140618945976,0.45
0.0024752774308930293,0.451
-0.0021140728490086063,0.452
-0.005506953715221357,0.453
-0.007521001718746676,0.454
-0.008419987891593289,0.455
-0.008701690307086644,0.456
-0.008863686772586539,0.457
-0.009211765134659964,0.458
-0.00974810080304748,0.459
-0.010171140534090472,0.46
-0.010001125408898515,0.461
-0.008809708378831941,0.462
-0.006453963401863116,0.463
-0.0031589112371798677,0.464
0.0005971596635386759,0.465
0.0042798922796277285,0.466
0.007444344622608488,0.467
0.009784956649536228,0.468
0.011154653133482881,0.469
0.011615252745986963,0.47
0.011482140458277734,0.471
0.011302124124682116,0.472
0.011734134362355325,0.473
0.013323378789871361,0.474
0.016214428583605077,0.475
0.019928551629145926,0.476
0.023363124619310217,0.477
0.025062525093636625,0.478
0.023624006135156878,0.479
0.01807632542062821,0.48
0.008183032044926115,0.481
-0.005359220825427149,0.482
-0.02089695721986714,0.483
-0.03602000986005452,0.484
-0.04802141812354287,0.485
-0.05457949372507218,0.486
-0.0544352301415419,0.487
-0.0477747369257381,0.488
-0.03616220018958764,0.489
-0.022034647520609924,0.49
-0.007929363773230995,0.491
0.004245387265999443,0.492
0.013575891602235057,0.493
0.020026146794476347,0.494
0.02402421156209015,0.495
0.026064162100338573,0.496
0.02648683441351922,0.497
0.02542390680678807,0.498
0.02288504175896362,0.499
0.01896386585558385,0.5
0.014027357684929544,0.501
0.008737931902904412,0.502
0.0038889961918601224,0.503
0.00017013721335958927,0.504
-0.0020009890684933055,0.505
-0.002534411735978596,0.506
-0.0016455670755851058,0.507
0.00020441934145944444,0.508
0.00240841510652928,0.509
0.004349082325146264,0.51
0.005518017713761183,0.511
0.005602376986956425,0.512
0.004550370551083827,0.513
0.0025763667488036142,0.514
8.054503365020637e-05,0.515
-0.002481763013858271,0.516
-0.004740392186819095,0.517
-0.006520402232093489,0.518
-0.007866433575840825,0.519
-0.008953199480444502,0.52
-0.009914986553062333,0.521
-0.01068495784558554,0.522
-0.010953756272193839,0.523
-0.010294423553102077,0.524
-0.00839588288729817,0.525
-0.005267455475308695,0.526
-0.0012990620963272827,0.527
0.002818495981964346,0.528
0.006259101474813874,0.529
0.008279916472949256,0.53
0.008431164902538882,0.531
0.00669249974630917,0.532
0.0035014578428045227,0.533
-0.0003612222248541876,0.534
-0.003998790949102957,0.535
-0.006631132665019152,0.536
-0.007773772466563329,0.537
-0.007354250185394664,0.538
-0.005716192124122636,0.539
-0.003457260785139832,0.54
-0.0011561607512749173,0.541
0.0008503308848802772,0.542
0.0025037711541570718,0.543
0.0038730721881275387,0.544
0.004955867612933428,0.545
0.005603952243348514,0.546
0.005628229408658262,0.547
0.0049732065868101005,0.548
0.0038012986236880004,0.549
0.0024467665703152668,0.55
0.0013253682865229143,0.551
0.0008557279888755939,0.552
0.0013625522082190166,0.553
0.002952460275910926,0.554
0.005416289381387431,0.555
0.008217079470472552,0.556
0.010595965680299047,0.557
0.011769310934204595,0.558
0.011131683644681119,0.559
0.008401566637561754,0.56
0.0037143925451920234,0.561
-0.002336147998863519,0.562
-0.00877668026981112,0.563
-0.014488102743930215,0.564
-0.018502408777807507,0.565
-0.020224644471992178,0.566
-0.019496960034507155,0.567
-0.016518556299922924,0.568
-0.011735393255139129,0.569
-0.005821547794710405,0.57
0.0002789299784809619,0.571
0.005444235916459754,0.572
0.008691645651802114,0.573
0.009540462782488069,0.574
0.00818861763139032,0.575
0.005426979129668318,0.576
0.002357477378432799,0.577
5.462240453488024e-05,0.578
-0.0007079661411107434,0.579
0.00037666877155541345,0.58
0.0030916278622186355,0.581
0.006768031757712734,0.582
0.010510949936405535,0.583
0.013493068694037547,0.584
0.015123652986269645,0.585
0.015021664935135619,0.586
0.012945076349156686,0.587
0.008822922788852905,0.588
0.002844350690425345,0.589
-0.004488547797399409,0.59
-0.012352284389194964,0.591
-0.019626446925969338,0.592
-0.02499516373207048,0.593
-0.02724929793466515,0.594
-0.025780301243414697,0.595
-0.020909790242175676,0.596
-0.013736119590315123,0.597
-0.005664917451227749,0.598
0.002009544716594284,0.599
0.008338696821018742,0.6
0.012814149940024968,0.601
0.015378912964794583,0.602
0.016367934764173763,0.603
0.016336005798753647,0.604
0.0158016007348726,0.605
0.01506491629831546,0.606
0.014200420601785741,0.607
0.013126381268311962,0.608
0.011613969346585921,0.609
0.009252145661469374,0.61
0.005492587879981943,0.611
-0.00012637060382348503,0.612
-0.007607927567566115,0.613
-0.016189609283862268,0.614
-0.02435305847306063,0.615
-0.030199810061332537,0.616
-0.032005962024240164,0.617
-0.028738900739713025,0.618
-0.020423896044865775,0.619
-0.008261133888650725,0.62
0.005636772037835675,0.621
0.018838127995997603,0.622
0.02920182571922066,0.623
0.03522915182380188,0.624
0.03617674353007679,0.625
0.03208425169837206,0.626
0.02373956646606534,0.627
0.012506075468744673,0.628
4.8578757389218137e-05,0.629
-0.011924553402586895,0.63
-0.021871789918248584,0.631
-0.028597738161548095,0.632
-0.03137825699805749,0.633
-0.03000286437967962,0.634
-0.024755162591296266,0.635
-0.016407232903561452,0.636
-0.006249126777227418,0.637
0.003994279916348282,0.638
0.01249975948004275,0.639
0.01782241021932094,0.64
0.019273058320205524,0.641
0.017074598208949833,0.642
0.01228430905891322,0.643
0.006487386324876319,0.644
0.0013162887384222674,0.645
-0.0020441607571041087,0.646
-0.0031604656714176297,0.647
-0.0023432919474115936,0.648
-0.0003930967404377814,0.649
0.0017100572772006724,0.65
0.0030496528061582434,0.651
0.0029592131849502427,0.652
0.0011833925239999555,0.653
-0.002005483885602855,0.654
-0.005807799304631697,0.655
-0.009092604720819561,0.656
-0.010763922140154708,0.657
-0.010132607484214273,0.658
-0.007119195725052713,0.659
-0.00224066439724238,0.66
0.003549583241848864,0.661
0.009096645054938289,0.662
0.013329259013010564,0.663
0.01552918421281496,0.664
0.015483422192660225,0.665
0.01348256487127916,0.666
0.010153342536580776,0.667
0.0061629285210319205,0.668
0.0019646176961542958,0.669
-0.0022604304944761028,0.67
-0.006478204592749427,0.671
-0.010609431615122787,0.672
-0.014388363733414514,0.673
-0.01735045303641879,0.674
-0.018934759184153046,0.675
-0.018620998934662174,0.676
-0.016080175660681515,0.677
-0.011361072440609294,0.678
-0.005033989078956877,0.679
0.001872167106897817,0.68
0.008186683748647196,0.681
0.012960606315013282,0.682
0.015624813988760677,0.683
0.0159586057802107,0.684
0.014046058346155408,0.685
0.010284428916808364,0.686
0.005387503975236032,0.687
0.0003105922227414965,0.688
-0.0039357914313153195,0.689
-0.006552994614590459,0.69
-0.007189268609215593,0.691
-0.005990958079987054,0.692
-0.0034536268551800487,0.693
-0.0002274367848672258,0.694
0.0030109246428410776,0.695
0.0056363350624894625,0.696
0.007149626756042215,0.697
0.007261404341912223,0.698
0.0059605595394293725,0.699
0.003527132723777234,0.7
0.00047134130408827573,0.701
-0.0025821012176685033,0.702
-0.00502108197736991,0.703
-0.006344827978027345,0.704
-0.006235695473401179,0.705
-0.0046233248910333025,0.706
-0.0017269773266762928,0.707
0.0019502195435532792,0.708
0.0056971068372072995,0.709
0.00874627608600649,0.71
0.010447691193529413,0.711
0.010390492349898146,0.712
0.008467798046297373,0.713
0.004922975681167283,0.714
0.0003647589879736181,0.715
-0.004313738338393768,0.716
-0.008144628801727968,0.717
-0.01037555504789849,0.718
-0.01072360463529591,0.719
-0.00946657127861837,0.72
-0.007341538364510269,0.721
-0.005329818864752337,0.722
-0.004379099328951485,0.723
-0.005083519969863545,0.724
-0.00745543884981742,0.725
-0.010928278978984234,0.726
-0.014542978372641844,0.727
-0.01719760226661147,0.728
-0.017934398561996124,0.729
-0.016220269093601747,0.73
-0.012039744810737161,0.731
-0.005722567937709749,0.732
0.002272888883752637,0.733
0.011370193572364528,0.734
0.02070132751030224,0.735
0.02899925016217274,0.736
0.03479322092000587,0.737
0.036878129217716035,0.738
0.03475979547953899,0.739
0.028813547278135725,0.74
0.02012328711785524,0.741
0.010124726392383585,0.742
0.00023443387195043572,0.743
-0.008394295791651267,0.744
-0.014969515789229983,0.745
-0.01906155873422494,0.746
-0.020541657514197207,0.747
-0.019483648064148165,0.748
-0.016079079960104558,0.749
-0.010615920434375668,0.75
-0.00351281417810731,0.751
0.004620030773167542,0.752
0.012895957442862862,0.753
0.020111174759119617,0.754
0.024882804883764036,0.755
0.0259718949330842,0.756
0.022623604381401676,0.757
0.014780277862207043,0.758
0.003167835018522966,0.759
-0.01071159283090667,0.76
-0.024726749500051867,0.761
-0.036460159122301786,0.762
-0.04371542644819288,0.763
-0.045052926785339606,0.764
-0.040161899159773376,0.765
-0.029936750685156756,0.766
-0.016271281567049253,0.767
-0.0016737071094150389,0.768
0.01123172018591304,0.769
0.020265549655012947,0.77
0.024158489861881148,0.771
0.022747261529607758,0.772
0.016886542291241858,0.773
0.008168352195390405,0.774
-0.00145981398878673,0.775
-0.010081764463182843,0.776
-0.01613453094670347,0.777
-0.018649548444753833,0.778
-0.01736953748078064,0.779
-0.012677945745896216,0.78
-0.005386617261402517,0.781
0.0034864683201368744,0.782
0.012874078171169246,0.783
0.02176181096740247,0.784
0.02924885526788771,0.785
0.03454738401985728,0.786
0.0369607751660286,0.787
0.03597820863489975,0.788
0.03150983193395473,0.789
0.0240829202854951,0.79
0.014844033786321,0.791
0.00532482032250041,0.792
-0.002989157041754324,0.793
-0.009097719680635438,0.794
-0.012695551496470042,0.795
-0.014097357609689873,0.796
-0.014020015926109592,0.797
-0.013342577638169102,0.798
-0.01286131648252855,0.799
-0.013087983406847152,0.8
-0.014174135964629865,0.801
-0.01595054528769385,0.802
-0.017997244352323576,0.803
-0.019705070920618642,0.804
-0.02037149628777873,0.805
-0.019370098900240582,0.806
-0.01634961446887911,0.807
-0.011382155066654881,0.808
-0.004997158559814323,0.809
0.0019299201627015455,0.81
0.008399996958833127,0.811
0.013546657519941465,0.812
0.016828206908148863,0.813
0.018064755253205583,0.814
0.01734951582322929,0.815
0.014959036942222292,0.816
0.011314405618631064,0.817
0.00694458074297558,0.818
0.0024058625547668353,0.819
-0.0018159803257529936,0.82
-0.005363108031753367,0.821
-0.008003437527812279,0.822
-0.009584697590701671,0.823
-0.009986892587461533,0.824
-0.009132812901997255,0.825
-0.007061902324980156,0.826
-0.0039803714939026106,0.827
-0.00021600776948347465,0.828
0.0038625951598726047,0.829
0.00785423066301298,0.83
0.011268648575591516,0.831
0.013521015965117523,0.832
0.01404765522793945,0.833
0.01249770607783035,0.834
0.008898649196625912,0.835
0.0037186670462567603,0.836
-0.0021973065199214,0.837
-0.007810084462543883,0.838
-0.012128125638993034,0.839
-0.01440164757130334,0.84
-0.014218499710218603,0.841
-0.011531300178873811,0.842
-0.006650456271799562,0.843
-0.0002153889702359164,0.844
0.006862501544374239,0.845
0.013498032492584371,0.846
0.018570073452642635,0.847
0.021101425917368216,0.848
0.02047552661996696,0.849
0.016614448048590823,0.85
0.010020839280341398,0.851
0.0016711122354504731,0.852
-0.007178309055485302,0.853
-0.015211623136510912,0.854
-0.02128246924726379,0.855
-0.024627495769972446,0.856
-0.02498265852258238,0.857
-0.022544124738384866,0.858
-0.017826060065128525,0.859
-0.011524683250357545,0.86
-0.004465079787145171,0.861
0.002424068522028737,0.862
0.008252191213149997,0.863
0.012395231818095662,0.864
0.014596728474159134,0.865
0.014882705204506373,0.866
0.013455838373136964,0.867
0.010678210093924627,0.868
0.007092502776819472,0.869
0.0033956363574980672,0.87
0.000316658456444005,0.871
-0.0015853819931767865,0.872
-0.002111336352539038,0.873
-0.0014841825383280344,0.874
-0.00023882925497168653,0.875
0.001000336385402219,0.876
0.0017401604051299126,0.877
0.0017324219385056255,0.878
0.0009560542042466149,0.879
-0.00045420782073074615,0.88
-0.0022589099393718784,0.881
-0.00414948696805962,0.882
-0.005789902852878532,0.883
-0.0068519133999509615,0.884
-0.007032012808509497,0.885
-0.006075567755442475,0.886
-0.0038575335421603494,0.887
-0.0005218321590991242,0.888
0.0034273463425153246,0.889
0.007214800465323543,0.89
0.010049915975701802,0.891
0.011379920962467161,0.892
0.011009429842171996,0.893
0.00910703233009789,0.894
0.006153397507904315,0.895
0.002807298087963134,0.896
-0.0003065691539184181,0.897
-0.002776281531330259,0.898
-0.0044548594298132625,0.899
-0.005410632378064206,0.9
-0.005862740168309387,0.901
-0.006148254388655449,0.902
-0.006664829987931063,0.903
-0.007721100499600971,0.904
-0.009362914258065643,0.905
-0.01131123435860936,0.906
-0.01304350720062333,0.907
-0.013932369188699658,0.908
-0.01336496445261649,0.909
-0.010873395049756636,0.91
-0.0063212157792975655,0.911
-6.563665632092136e-05,0.912
0.00703576080730434,0.913
0.013821011681581608,0.914
0.019161657284327706,0.915
0.02228556453841064,0.916
0.022928491083219257,0.917
0.02128637345203236,0.918
0.017858133018050136,0.919
0.01328558231924051,0.92
0.008243641378464433,0.921
0.003368049113284144,0.922
-0.0008292600529560867,0.923
-0.004053734232236615,0.924
-0.006263530340993641,0.925
-0.007621300796784805,0.926
-0.008388132449770703,0.927
-0.008804180683202777,0.928
-0.009016928146525917,0.929
-0.009073181098171765,0.93
-0.008933657674215258,0.931
-0.008497421875159608,0.932
-0.007652125784243758,0.933
-0.0063306457677588576,0.934
-0.004549014224463451,0.935
-0.002422633968979105,0.936
-0.00015629716993837458,0.937
0.0019939619541734254,0.938
0.003778485345610798,0.939
0.0050151694937345835,0.94
0.0056351858755955804,0.941
0.005693678867889204,0.942
0.0053330455417406756,0.943
0.004718595139899187,0.944
0.003991774086614458,0.945
0.003255455277522097,0.946
0.0025717408890868904,0.947
0.001964861472324066,0.948
0.0014249771401987428,0.949
0.0008972294662456133,0.95
0.00026357622072905793,0.951
-0.0006404297034729565,0.952
-0.0019490068452535406,0.953
-0.003671965826737044,0.954
-0.00565830997196161,0.955
-0.0076385929719701255,0.956
-0.00930527220307427,0.957
-0.010395255723809551,0.958
-0.010742960454950502,0.959
-0.010278350998898117,0.96
-0.00901027890357544,0.961
-0.007040484610008315,0.962
-0.004563364946411231,0.963
-0.0018078060821004652,0.964
0.0010299390341428592,0.965
0.003813728272716095,0.966
0.006476826278950113,0.967
0.00904071216594612,0.968
0.011605054540415896,0.969
0.014234837459752308,0.97
0.016774775852485106,0.971
0.018748745870845157,0.972
0.019465178307462326,0.973
0.018295140961895405,0.974
0.014955678174082526,0.975
0.009645971171214036,0.976
0.003027815607568124,0.977
-0.0039016576779155503,0.978
-0.010035104814707811,0.979
-0.014432427868249402,0.98
-0.01653891501798858,0.981
-0.016269960024989365,0.982
-0.013976655391112819,0.983
-0.010329502803364757,0.984
-0.006149360701327531,0.985
-0.0022250850155593038,0.986
0.0008364004213524423,0.987
0.002699239831253879,0.988
0.003327343868727544,0.989
0.0029464746737190915,0.99
0.001938245168411155,0.991
0.0007097520051279821,0.992
-0.0004178437643366379,0.993
-0.0012756901993773806,0.994
-0.0018422057250323286,0.995
-0.0021806764566990435,0.996
-0.0023672356150203485,0.997
-0.0024443519356151695,0.998
-0.0024153097508085104,0.999
-0.002260993003038505,1.0
-0.0019458598073081536,1.001
-0.0014185977725057902,1.002
-0.0006298057041209387,1.003
0.00043529863993360896,1.004
0.0017248381541908385,1.005
0.0031069909839139946,1.006
0.004387890812406908,1.007
0.005356945733674654,1.008
0.0058423992875231276,1.009
0.005754833139863204,1.01
0.005109061060402783,1.011
0.004019973163838728,1.012
0.0026652112023614043,1.013
0.0012332311863066962,1.014
-0.000116159601365526,1.015
-0.0012756758704195784,1.016
-0.0022029111224621503,1.017
-0.0029224804274508914,1.018
-0.003521556286239603,1.019
-0.004124060985394755,1.02
-0.0048209327188513,1.021
-0.005586927017227425,1.022
-0.006244927313852156,1.023
-0.006506993602755282,1.024
-0.006091685852032316,1.025
-0.004868552445868176,1.026
-0.002933959138728727,1.027
-0.0005595215172254631,1.028
0.0019411329238436953,1.029
0.004307729581562857,1.03
0.006334356619887863,1.031
0.007846207679549595,1.032
0.008723395706580685,1.033
0.00894999671384812,1.034
0.00862458463546126,1.035
0.007905075573992528,1.036
0.006926754823718514,1.037
0.005760120389408811,1.038
0.004435547418266689,1.039
0.00299899349701597,1.04
0.0015374609672572578,1.041
0.0001376151982287097,1.042
-0.001196091149420476,1.043
-0.0025812195865905644,1.044
-0.004197394835458747,1.045
-0.0061611852981464914,1.046
-0.008427954194946293,1.047
-0.010771748120781802,1.048
-0.012819889924267103,1.049
-0.014109904616138657,1.05
-0.014177199976314477,1.051
-0.012686219352585317,1.052
-0.009562062127666545,1.053
-0.005054798108905204,1.054
0.00028957680932424547,1.055
0.0057402578408142285,1.056
0.010535607812945406,1.057
0.014022429692457549,1.058
0.015762364796380022,1.059
0.01562060173119776,1.06
0.013799642247856986,1.061
0.01076500813594235,1.062
0.0071033267129122475,1.063
0.0033932838814587957,1.064
0.00011079676784517793,1.065
-0.0024384487825770333,1.066
-0.004142033990949975,1.067
-0.005046145834778434,1.068
-0.005289163344750529,1.069
-0.005040589740957485,1.07
-0.004459902738134816,1.071
-0.0036717247475570587,1.072
-0.002752497106827564,1.073
-0.001733097565488449,1.074
-0.0006295124887445172,1.075
0.0004998230044231636,1.076
0.0015083314716937738,1.077
0.0021706439497718136,1.078
0.0022481132761860093,1.079
0.0015784720453641062,1.08
0.00015636239924814475,1.081
-0.0018143928053634367,1.082
-0.003917794789286735,1.083
-0.005602293494706404,1.084
-0.006333764262829849,1.085
-0.005777877750161202,1.086
-0.003953186787131861,1.087
-0.0012806546375589277,1.088
0.001530657555002971,1.089
0.0037343075505507487,1.09
0.004816347930778895,1.091
0.00465475437596462,1.092
0.0035183223676842302,1.093
0.0019417370116939477,1.094
0.0005262902188328381,1.095
-0.0002717562662861233,1.096
-0.0002726500163818843,1.097
0.0004083747325416841,1.098
0.0014136967352860225,1.099
0.0022550910792206273,1.1
0.0024842536880544212,1.101
0.0018580847998841117,1.102
0.00043025298116352586,1.103
-0.0014494234667925849,1.104
-0.003234539653417191,1.105
-0.004363907784707534,1.106
-0.004449624892292361,1.107
-0.0033981395524385503,1.108
-0.0014363201664947115,1.109
0.0009685287833962445,1.11
0.0032719422135083784,1.111
0.00502971985667367,1.112
0.006012149146635944,1.113
0.006206262697362063,1.114
0.005729027974043648,1.115
0.004735408927988228,1.116
0.0033782116090011237,1.117
0.001810093333360521,1.118
0.00018728432835446766,1.119
-0.0013428694011739686,1.12
-0.00265735766720292,1.121
-0.0036701522886556604,1.122
-0.004337519261791987,1.123
-0.0046446585334664605,1.124
-0.004581872891999205,1.125
-0.004138219773828763,1.126
-0.0033335541546870334,1.127
-0.002267240252982235,1.128
-0.0011350426092630174,1.129
-0.00018993031322047039,1.13
0.00034688378050664324,1.131
0.000385442668254709,1.132
1.600706602837046e-05,1.133
-0.0005198873256306391,1.134
-0.0009204093377935137,1.135
-0.0009429570929756184,1.136
-0.0005065348612091096,1.137
0.00027393441654427855,1.138
0.0011573345940063052,1.139
0.0019103896981125664,1.14
0.0023997169635339194,1.141
0.002599060741346136,1.142
0.0025559416576527486,1.143
0.002351718776181831,1.144
0.0020620765910988647,1.145
0.0017341720904826472,1.146
0.00139189646694073,1.147
0.0010549994066117693,1.148
0.0007512404501081386,1.149
0.0005188265891099212,1.15
0.00039901137615079514,1.151
0.0004129631137119827,1.152
0.0005366811398038758,1.153
0.0006878359343570835,1.154
0.0007205598948208168,1.155
0.0004351947064114279,1.156
-0.0003786876261963802,1.157
-0.001848677604452957,1.158
-0.0038952184493535403,1.159
-0.006161023348944747,1.16
-0.008060162703190694,1.161
-0.008939048500306326,1.162
-0.00829535105774782,1.163
-0.0059599037769584645,1.164
-0.0021695077024888086,1.165
0.002462082707546416,1.166
0.0070636842408251,1.167
0.010722509793491009,1.168
0.012736800406644119,1.169
0.012795331220147282,1.17
0.011035095436458446,1.171
0.007987896983352448,1.172
0.004403098348775746,1.173
0.0009807674996795677,1.174
-0.0018394819244323295,1.175
-0.003930794141221935,1.176
-0.005400575763088514,1.177
-0.006441585854552652,1.178
-0.007172063281427022,1.179
-0.007554105334074251,1.18
-0.007441867788277681,1.181
-0.00670475980447591,1.182
-0.005323409266802611,1.183
-0.0034112808315320637,1.184
-0.001188990135951817,1.185
0.001046553657300113,1.186
0.0029637278695270456,1.187
0.004285674571548414,1.188
0.0048968638763344525,1.189
0.004874972430598028,1.19
0.004429847016380961,1.191
0.0038125639679797026,1.192
0.0032380503172566304,1.193
0.002835250144882603,1.194
0.00263481694357773,1.195
0.0025845367493219397,1.196
0.0025770658479289323,1.197
0.00248698774343038,1.198
0.002203740464646525,1.199
0.0016421568889538655,1.2
0.0007349099918830429,1.201
-0.0005721747379041202,1.202
-0.002306000041412758,1.203
-0.004436503790748218,1.204
-0.0068434914501847854,1.205
-0.009282593080385646,1.206
-0.011367402166809044,1.207
-0.012615787630815648,1.208
-0.012570876947596262,1.209
-0.01093434574985391,1.21
-0.007654736644656558,1.211
-0.002966482062560079,1.212
0.0026053541356280724,1.213
0.008287593927922205,1.214
0.013189297534954063,1.215
0.016513075441100016,1.216
0.01776077095825142,1.217
0.016849693770356215,1.218
0.014114122354422427,1.219
0.010196123166117664,1.22
0.005859301102046784,1.221
0.0017990589184717317,1.222
-0.0014869408619470924,1.223
-0.003752306545887885,1.224
-0.004992432449427447,1.225
-0.005388222337791573,1.226
-0.005226421256410619,1.227
-0.004820401422951026,1.228
-0.004436785848161411,1.229
-0.004239016656745395,1.23
-0.004273494714623937,1.231
-0.0044955931331321424,1.232
-0.004808090541282782,1.233
-0.00509471138290515,1.234
-0.0052400211714901165,1.235
-0.005142657019996995,1.236
-0.004736243798620662,1.237
-0.004007154587389948,1.238
-0.0029880204319637825,1.239
-0.001722863173643921,1.24
-0.00023687539455091966,1.241
0.0014376178038888689,1.242
0.0031933835886601668,1.243
0.004816151736049423,1.244
0.0060352889716022325,1.245
0.006634429698276456,1.246
0.006544352418068367,1.247
0.005853919799786087,1.248
0.004756849381400455,1.249
0.0034910449700189202,1.25
0.0022859453598945943,1.251
0.0013035607852834646,1.252
0.0005931505173789644,1.253
0.00010306072331120893,1.254
-0.00025976958466997956,1.255
-0.0005741483964014014,1.256
-0.0008759108099216117,1.257
-0.0011569854201606562,1.258
-0.001389921137078703,1.259
-0.0015581529516876904,1.26
-0.001667918009515609,1.261
-0.0017390601542252625,1.262
-0.001788578638547584,1.263
-0.001816602791680067,1.264
-0.0018031961474580264,1.265
-0.0017222519606395871,1.266
-0.0015584708993632475,1.267
-0.0013129147285658293,1.268
-0.001002598634503826,1.269
-0.0006585864931619031,1.27
-0.00031824421864375666,1.271
-9.656271595558072e-06,1.272
0.00026210072020483184,1.273
0.0005130865227402323,1.274
0.0007689324921131062,1.275
0.001052514293475276,1.276
0.0013651814099940095,1.277
0.0016682226363630816,1.278
0.001881601478677897,1.279
0.0019042570870362403,1.28
0.0016525755993639475,1.281
0.001102673028907259,1.282
0.00031473367314528104,1.283
-0.0005640355856317112,1.284
-0.0013222595778610061,1.285
-0.0017486004266749153,1.286
-0.0017184485440501975,1.287
-0.0012453785294479305,1.288
-0.0004634440777956378,1.289
0.00041955985137422666,1.29
0.0011567542958299782,1.291
0.0015158823057832465,1.292
0.001363050980219378,1.293
0.0007229304799688283,1.294
-0.000223932786159946,1.295
-0.0011996531620434372,1.296
-0.001905673142343471,1.297
-0.0020936810683069656,1.298
-0.0016399542087570265,1.299
-0.0006054043824804682,1.3
0.0007762191379438253,1.301
0.002196793633952952,1.302
0.003386413528527584,1.303
0.004160033407360798,1.304
0.004409725979914176,1.305
0.004106902128802716,1.306
0.0033250424600367316,1.307
0.0022364415144681686,1.308
0.0010608231715452906,1.309
-3.6271163467833473e-06,1.31
-0.0008321232769216006,1.311
-0.0013916828513096684,1.312
-0.0017301675602598768,1.313
-0.001963824436305351,1.314
-0.0022611580079566172,1.315
-0.00279114523959004,1.316
-0.003645757006643412,1.317
-0.004776604037648203,1.318
-0.005980508742495846,1.319
-0.006954216190428582,1.32
-0.0073970799550097605,1.321
-0.0071082935729823455,1.322
-0.006026157791910641,1.323
-0.004203783739659632,1.324
-0.0017752137211189524,1.325
0.0010611677351175972,1.326
0.004063247835311146,1.327
0.006963043889947084,1.328
0.009459980493188101,1.329
0.011216692877116755,1.33
0.011908699942118597,1.331
0.011329689571175213,1.332
0.009497707004814306,1.333
0.006693459430514769,1.334
0.0033963420708207986,1.335
0.00015737916761270933,1.336
-0.0025318106467348963,1.337
-0.00434983413683944,1.338
-0.005203398402447973,1.339
-0.005202770379331993,1.34
-0.004583506422814548,1.341
-0.003622703149366211,1.342
-0.0025745321700318697,1.343
-0.0016335320273306749,1.344
-0.0009189117236854301,1.345
-0.00047192526638313483,1.346
-0.00027316493771105036,1.347
-0.0002746926472465055,1.348
-0.0004185886333912777,1.349
-0.0006379712092851288,1.35
-0.0008614876133799601,1.351
-0.0010192149158143354,1.352
-0.0010486656415201196,1.353
-0.0009181112100174799,1.354
-0.0006552689333541482,1.355
-0.00035079970860212766,1.356
-0.00013742693659188332,1.357
-0.00015066848567592256,1.358
-0.00046269368261767226,1.359
-0.0010143578651021445,1.36
-0.0016020580193076056,1.361
-0.0019484193037890825,1.362
-0.001824908008101847,1.363
-0.0011510677447705,1.364
-1.8770264025702124e-05,1.365
0.001344187599982727,1.366
0.0026406803552474346,1.367
0.003592957244326616,1.368
0.0040272182114554815,1.369
0.003914340280840303,1.37
0.003357963126224067,1.371
0.002541162586648239,1.372
0.0016559117277742065,1.373
0.0008506970453083453,1.374
0.00021281387351380898,1.375
-0.00022756475127553867,1.376
-0.0004906926084758335,1.377
-0.0006307014487224856,1.378
-0.0007017216516319625,1.379
-0.0007369780167581075,1.38
-0.0007561518331868723,1.381
-0.0007740888882431451,1.382
-0.0007974595761182932,1.383
-0.0008264091873556407,1.384
-0.0008645653735896711,1.385
-0.0009159792358922226,1.386
-0.0009697302005556934,1.387
-0.0009950649664281254,1.388
-0.0009525370230517283,1.389
-0.0008178536678439852,1.39
-0.0006066433624219269,1.391
-0.00037014162743974696,1.392
-0.0001584108151595063,1.393
7.417858134610775e-06,1.394
0.00013198708245939475,1.395
0.00023831187466316107,1.396
0.00037065274129507937,1.397
0.0005841804329180193,1.398
0.000916207804233796,1.399
0.0013630019740817816,1.4
0.0018627049421311734,1.401
0.0022834911308681977,1.402
0.002454012820921865,1.403
0.002244890543525983,1.404
0.0016411985468587176,1.405
0.0007494847531905689,1.406
-0.0002503840236622014,1.407
-0.0011572941192654104,1.408
-0.0017781340010757866,1.409
-0.001959162912920386,1.41
-0.0016450986493598094,1.411
-0.0009280939522082006,1.412
-2.608550070710545e-05,1.413
0.0008053133643067334,1.414
0.0013653655846899374,1.415
0.0015524707021899455,1.416
0.0013540285465375047,1.417
0.0008172188920815617,1.418
3.309327130846081e-05,1.419
-0.0008752667436068653,1.42
-0.0017858544276526103,1.421
-0.0026244511607630785,1.422
-0.003381984678740687,1.423
-0.004078354801557914,1.424
-0.004706223055400013,1.425
-0.005196137225279972,1.426
-0.0054108629298928275,1.427
-0.005168492243743941,1.428
-0.004290449085393282,1.429
-0.0026720351091848904,1.43
-0.00037376902690721314,1.431
0.0023206083106465463,1.432
0.004961720575784141,1.433
0.00709770571973936,1.434
0.008437234548266425,1.435
0.008926113232659674,1.436
0.008713995269001098,1.437
0.0080352582543649,1.438
0.007079373494610129,1.439
0.005941308959912451,1.44
0.0046608570588523085,1.441
0.0032699341228769377,1.442
0.0018035516390131829,1.443
0.0003036588831073086,1.444
-0.0011681267022542177,1.445
-0.002522219290127226,1.446
-0.0036485499242957685,1.447
-0.0044463886280774155,1.448
-0.004865846725136969,1.449
-0.0049302449817160525,1.45
-0.004717911844413284,1.451
-0.0043220429880703294,1.452
-0.0038304018225863105,1.453
-0.0033331411475026633,1.454
-0.0029255691450678183,1.455
-0.0026840489079575786,1.456
-0.002628385460934968,1.457
-0.0027000191841785185,1.458
-0.002779941895531484,1.459
-0.0027396163260351588,1.46
-0.0024916616354517768,1.461
-0.0020082253878057313,1.462
-0.0013019775655588365,1.463
-0.0004005270692315,1.464
0.0006632279826501431,1.465
0.0018473927776933936,1.466
0.003091051558271141,1.467
0.004303077968980692,1.468
0.005350712171644612,1.469
0.006067842494080568,1.47
0.006301544842473373,1.471
0.0059708382189566575,1.472
0.0051020578929344826,1.473
0.00382805164046665,1.474
0.002351535443193381,1.475
0.0008884898309160678,1.476
-0.0003776826720310796,1.477
-0.001319246352782548,1.478
-0.001881378806006967,1.479
-0.0020959536685709276,1.48
-0.002074176939180293,1.481
-0.0019759601980514976,1.482
-0.001961124472126202,1.483
-0.0021267068149230088,1.484
-0.0024596310505973105,1.485
-0.002836545990073468,1.486
-0.0030697483339950926,1.487
-0.002980769703614868,1.488
-0.0024726737379460535,1.489
-0.001566259341451026,1.49
-0.00038524827912355146,1.491
0.0008924635761747565,1.492
0.002078839737522565,1.493
0.0029957254664884376,1.494
0.003492626120580826,1.495
0.0034793792592049686,1.496
0.002958785862238672,1.497
0.0020395597710823835,1.498
0.0009140598061915594,1.499
-0.00020429447542316437,1.5
-0.0011544293212197257,1.501
-0.0018583583403552148,1.502
-0.00229306718425026,1.503
-0.00245378812421352,1.504
-0.002346788429555876,1.505
-0.0019949861403625465,1.506
-0.0014390735631834755,1.507
-0.0007397683994415442,1.508
1.2749053841006661e-05,1.509
0.0007039289935048349,1.51
0.0012276742938693017,1.511
0.0015174010261634885,1.512
0.0015630631687162673,1.513
0.0014207873551993282,1.514
0.0011996770312380901,1.515
0.00102394154589225,1.516
0.0009912354468172633,1.517
0.0011375592743157626,1.518
0.0014168508608221034,1.519
0.0017172111827277493,1.52
0.001921031711973049,1.521
0.001960950547042443,1.522
0.0018192030388626843,1.523
0.0014955726562379886,1.524
0.0009981163474878764,1.525
0.00036150060334459825,1.526
-0.0003376835690094153,1.527
-0.0009890383542080798,1.528
-0.001474508522814287,1.529
-0.001705684985404938,1.53
-0.0016653076728880096,1.531
-0.001421431550673966,1.532
-0.0010953651315767548,1.533
-0.0008175523258870946,1.534
-0.0007035112315724402,1.535
-0.0008346436706991722,1.536
-0.0012271938532872693,1.537
-0.0018070496048169652,1.538
-0.002422715277598904,1.539
-0.0029043907951946724,1.54
-0.003127533589323422,1.541
-0.0030291372835188892,1.542
-0.002579212630956171,1.543
-0.0017639606925759501,1.544
-0.0006221387773543628,1.545
0.0007061298220361092,1.546
0.00199155944848638,1.547
0.0029911471054440376,1.548
0.0035354145187992928,1.549
0.0035816219293466,1.55
0.0032091633372764877,1.551
0.002579558817501063,1.552
0.0018972732589207194,1.553
0.001368688089372845,1.554
0.0011434220421298474,1.555
0.0012521341289164296,1.556
0.0015861534753908218,1.557
0.0019362334766794376,1.558
0.002057602816192731,1.559
0.0017463491383502977,1.56
0.0009163757131240855,1.561
-0.00037047115678602897,1.562
-0.0019238004197416508,1.563
-0.003447529793320554,1.564
-0.004572822472974403,1.565
-0.004934373133741296,1.566
-0.004283286676469204,1.567
-0.002606126346796882,1.568
-0.00019365911174831616,1.569
0.0024109891505688266,1.57
0.0045874126240985245,1.571
0.005847974201146405,1.572
0.005981809341114711,1.573
0.0050810423031045155,1.574
0.0034565660506616952,1.575
0.0015074974319559543,1.576
-0.00038251697301963194,1.577
-0.0019075700842025838,1.578
-0.00288486428448985,1.579
-0.0032823642341430126,1.58
-0.0032102256435666675,1.581
-0.0028746277578201164,1.582
-0.002498617853969767,1.583
-0.00222945686725099,1.584
-0.002086826571781055,1.585
-0.0019841367837019576,1.586
-0.0017954975968813237,1.587
-0.001427969365604912,1.588
-0.000875436503642524,1.589
-0.00023257972517047034,1.59
0.00035299943102016205,1.591
0.0007667720938361144,1.592
0.0009840073647102829,1.593
0.001062712756305057,1.594
0.001087573895893638,1.595
0.0011043044622412027,1.596
0.0010867931044698273,1.597
0.000955259846515064,1.598
0.0006343910746160486,1.599
0.00011879170716430935,1.6
-0.0004948016969222089,1.601
-0.0010356366981475235,1.602
-0.0013260870551263474,1.603
-0.001234249909056631,1.604
-0.0007000679157292695,1.605
0.00024409247600843369,1.606
0.0014622421281424273,1.607
0.0027370090561378334,1.608
0.0038274437591665216,1.609
0.00452833406714344,1.61
0.004705029869968283,1.611
0.00430760998817776,1.612
0.0033745226484872934,1.613
0.0020322280895812206,1.614
0.0004813703501687305,1.615
-0.0010458929872558958,1.616
-0.002346003982868218,1.617
-0.0032913494120484486,1.618
-0.0038425392739670095,1.619
-0.004027927311053029,1.62
-0.0039133775123115265,1.621
-0.003572269094957046,1.622
-0.0030542303356317336,1.623
-0.002374442992744773,1.624
-0.0015392210735933368,1.625
-0.0005791941606305093,1.626
0.00043688431758144347,1.627
0.0014006677236483608,1.628
0.002177281238981024,1.629
0.002648088978460123,1.63
0.002761788533927197,1.631
0.0025538095518293997,1.632
0.0021289736345487657,1.633
0.0016268826882798698,1.634
0.0011775928486468152,1.635
0.0008581443847383279,1.636
0.0006774253307793264,1.637
0.0005903780070280636,1.638
0.000519736262257468,1.639
0.00038443435535030036,1.64
0.00013340869188734452,1.641
-0.00023558861084789522,1.642
-0.0006797805866604249,1.643
-0.0011263001696337376,1.644
-0.0014928788479790188,1.645
-0.0017111365348806277,1.646
-0.0017411956954858827,1.647
-0.0015755761928141262,1.648
-0.001243229290565648,1.649
-0.000818731650544961,1.65
-0.00041682683873003895,1.651
-0.00014649797032214408,1.652
-5.174618369211453e-05,1.653
-9.507737233838331e-05,1.654
-0.0001859277403739825,1.655
-0.00022134048846285712,1.656
-0.00012317920311323338,1.657
0.000135499139890486,1.658
0.000520895686349881,1.659
0.000945272972116292,1.66
0.0012946656653939751,1.661
0.0014750393369049816,1.662
0.001447411039104124,1.663
0.0012359610140619808,1.664
0.0009186833672840508,1.665
0.000595838981071753,1.666
0.0003386902757136006,1.667
0.00015447666168925598,1.668
4.0001305690443077e-07,1.669
-0.00016956137903140916,1.67
-0.00037621643383143173,1.671
-0.0006216100939876594,1.672
-0.0008960977037750652,1.673
-0.0011645636368009626,1.674
-0.0013553016612184452,1.675
-0.0013794847046928,1.676
-0.0011722176251774664,1.677
-0.0007226674324807189,1.678
-8.553826978876829e-05,1.679
0.0006157067865680245,1.68
0.0012141408621157556,1.681
0.0015703123652469517,1.682
0.0016436534422498664,1.683
0.0015007990182422549,1.684
0.0012589822578487505,1.685
0.0010224290861392158,1.686
0.0008553218866089617,1.687
0.0007828898262282059,1.688
0.0007988860530184495,1.689
0.0008718281273632356,1.69
0.0009485569173290554,1.691
0.0009621018824759869,1.692
0.0008489580334506844,1.693
0.0005669926429029406,1.694
0.00011080826831975547,1.695
-0.0004769383231556448,1.696
-0.0011106028100859831,1.697
-0.0016782893873861266,1.698
-0.0020610751195307793,1.699
-0.0021712055801082607,1.7
-0.001995592823264339,1.701
-0.0015934786164260278,1.702
-0.0010540492840546954,1.703
-0.00046515977300013844,1.704
9.528133826084568e-05,1.705
0.0005618205239024882,1.706
0.0008863271700127687,1.707
0.0010456643254548213,1.708
0.0010446840391126874,1.709
0.0009111645938672762,1.71
0.0006857469764008673,1.711
0.00040980122279772244,1.712
0.00012151867538127135,1.713
-0.00014264030541080898,1.714
-0.00035458532045159016,1.715
-0.0004967465226098789,1.716
-0.0005522156473950693,1.717
-0.0005035148594558108,1.718
-0.0003478224132329284,1.719
-0.00011192236545527633,1.72
0.0001496725604091233,1.721
0.00036859174361992484,1.722
0.00048081974861935044,1.723
0.00045590857866849185,1.724
0.00031557575149505945,1.725
0.00011213891198814667,1.726
-0.00010190712745843882,1.727
-0.0002814031657336458,1.728
-0.0003966160168038235,1.729
-0.0004445136519580259,1.73
-0.0004354240584301259,1.731
-0.00036763111736182993,1.732
-0.0002209878090012884,1.733
2.9428958746634732e-05,1.734
0.000393073956789307,1.735
0.00084739692854776,1.736
0.0013298933361350603,1.737
0.001746324798636804,1.738
0.001999672009928183,1.739
0.002023527242850155,1.74
0.0018067672823285695,1.741
0.0014007868923205092,1.742
0.0008945761913262835,1.743
0.00037306581680312753,1.744
-0.00010595151422182672,1.745
-0.0005092165174736221,1.746
-0.0008174850901116515,1.747
-0.0010191521748685094,1.748
-0.001106963978780815,1.749
-0.001078142609603731,1.75
-0.0009422573228447554,1.751
-0.0007269218962286031,1.752
-0.00046958878217995964,1.753
-0.00020574826720062844,1.754
3.740575826675783e-05,1.755
0.00024398894184807175,1.756
0.0004027350824293368,1.757
0.0004861795905018593,1.758
0.00043925948004017125,1.759
0.00020641901553515536,1.76
-0.00022253093520286906,1.761
-0.0007952445468782917,1.762
-0.0014200774003605176,1.763
-0.0020048077558369143,1.764
-0.0024742737413948083,1.765
-0.0027524470139608384,1.766
-0.002749495686564569,1.767
-0.0023945311940789314,1.768
-0.0016776797140090269,1.769
-0.0006423372948915109,1.77
0.0006524030778844665,1.771
0.002126256849217747,1.772
0.0036189798880256,1.773
0.004866012047781902,1.774
0.005577599105118664,1.775
0.005567184845132471,1.776
0.004830441638146959,1.777
0.0035385886505216414,1.778
0.001961050966144847,1.779
0.00036534047569233846,1.78
-0.0010475187288366702,1.781
-0.0021537570393541615,1.782
-0.0028874961099684834,1.783
-0.0032286937881535567,1.784
-0.003211498977512624,1.785
-0.002926983736620153,1.786
-0.002505312953640416,1.787
-0.0020880398052084735,1.788
-0.0017870926905035219,1.789
-0.0016296681722956217,1.79
-0.0015259591443256937,1.791
-0.0013013883699615994,1.792
-0.0007938788993382429,1.793
3.447027323426072e-05,1.794
0.0010502551951545541,1.795
0.0020061149978745476,1.796
0.002663116895043281,1.797
0.002903929883800321,1.798
0.002775037764382657,1.799
0.0024344311220254413,1.8
0.0020511897059585734,1.801
0.0017328581888964214,1.802
0.0015043786970874052,1.803
0.0013282358599780808,1.804
0.0011527669313134267,1.805
0.000951027697457822,1.806
0.0007211149032711725,1.807
0.00046049958255558164,1.808
0.00014533067576694272,1.809
-0.00026525491447970174,1.81
-0.0008073221057067633,1.811
-0.0014859169801165425,1.812
-0.0022511085329393467,1.813
-0.00299198197972918,1.814
-0.0035626831680340564,1.815
-0.003834492049523489,1.816
-0.0037414545265364624,1.817
-0.0032885326511505643,1.818
-0.002532492301687988,1.819
-0.001564214863134702,1.82
-0.0004952884546729046,1.821
0.0005618400720338652,1.822
0.0015116900854984466,1.823
0.0022781836046783938,1.824
0.002802793463562894,1.825
0.003053077342997596,1.826
0.0030326576848432145,1.827
0.002783213100817637,1.828
0.002382724658737116,1.829
0.0019325393455505643,1.83
0.0015254385826012206,1.831
0.0012168681083652574,1.832
0.001016652140235255,1.833
0.0008926019209778478,1.834
0.0007885293196071177,1.835
0.000653308736164398,1.836
0.00045140043196152354,1.837
0.00015741365855815733,1.838
-0.0002347417585480749,1.839
-0.0006967869659363189,1.84
-0.0011675198422233732,1.841
-0.0015677723566107976,1.842
-0.001824700222725353,1.843
-0.0018981089479372978,1.844
-0.0017888167387235792,1.845
-0.001525118825808771,1.846
-0.001148117666192295,1.847
-0.0007080845414143354,1.848
-0.0002649701226653859,1.849
0.00011785402145575293,1.85
0.000394098210781636,1.851
0.0005554879178513006,1.852
0.0006365779034530954,1.853
0.0007062385084752957,1.854
0.000840110472113605,1.855
0.0010755710240967014,1.856
0.0013800398026881553,1.857
0.0016544885305137898,1.858
0.0017638520824411648,1.859
0.0015806217102736502,1.86
0.001033391895228687,1.861
0.00013484280971385497,1.862
-0.0010308984657554988,1.863
-0.002334483110558571,1.864
-0.0036097807502367455,1.865
-0.004658022886864862,1.866
-0.005272043594494282,1.867
-0.005275490015628091,1.868
-0.004563637450208049,1.869
-0.003142740711470184,1.87
-0.001152780490244248,1.871
0.0011515975128159003,1.872
0.003459215685040421,1.873
0.00545984144355978,1.874
0.006879986570235887,1.875
0.007522641556555534,1.876
0.007312199973650554,1.877
0.0063049313990613,1.878
0.004665904388610489,1.879
0.0026498936899557314,1.88
0.0005807662694271213,1.881
-0.001210153757451449,1.882
-0.002477780552308813,1.883
-0.003127425770973199,1.884
-0.00321685178369629,1.885
-0.002911632201829216,1.886
-0.0024138563816242515,1.887
-0.0018899852222922723,1.888
-0.001432547625849057,1.889
-0.0010618044713233234,1.89
-0.0007485306807985068,1.891
-0.00045025431939932185,1.892
-0.00014826569696322999,1.893
0.0001389067645579389,1.894
0.00037117203512419426,1.895
0.0005208203455488097,1.896
0.0005966088374609365,1.897
0.0006310908975984939,1.898
0.0006489482566223673,1.899
0.0006485304318033621,1.9
0.0006007098250424663,1.901
0.00046149304098611613,1.902
0.00019829557540683402,1.903
-0.0001879860978968033,1.904
-0.0006603768430331684,1.905
-0.0011502927052528652,1.906
-0.0015703252362997463,1.907
-0.0018451050164540374,1.908
-0.0019373668658851353,1.909
-0.0018490214057856127,1.91
-0.0016065770268437762,1.911
-0.0012537065673137446,1.912
-0.000853354029179719,1.913
-0.0004699265757262891,1.914
-0.0001346165332812229,1.915
0.0001666246586187376,1.916
0.00047148647361580995,1.917
0.0008081875097535246,1.918
0.0011825973719760512,1.919
0.0015891387607758127,1.92
0.002014863910762902,1.921
0.0024278504272760115,1.922
0.0027709632873768497,1.923
0.0029726936555664937,1.924
0.0029681121701011217,1.925
0.0027239202635198976,1.926
0.0022622405868600198,1.927
0.0016597301556206653,1.928
0.0010114847529537683,1.929
0.00039224559047310584,1.93
-0.00015838632804532853,1.931
-0.0006348007627711215,1.932
-0.0010550972083567013,1.933
-0.0014387708119296312,1.934
-0.001780791903294845,1.935
-0.00204128815854093,1.936
-0.002161786357981677,1.937
-0.0020948899909929946,1.938
-0.0018255620361480622,1.939
-0.001378814382036476,1.94
-0.0008164278302141351,1.941
-0.00022211368993523364,1.942
0.0003205827945371243,1.943
0.000748546685073397,1.944
0.0010307039112055735,1.945
0.0011669420576583094,1.946
0.0011725891451871968,1.947
0.0010610846759026816,1.948
0.0008401177529468117,1.949
0.0005117602736657499,1.95
7.441798664442961e-05,1.951
-0.0004591670432598753,1.952
-0.0010408107583971585,1.953
-0.0015841651348862049,1.954
-0.0019831583575699585,1.955
-0.0021492593359785355,1.956
-0.002054158825080197,1.957
-0.0017460407811154433,1.958
-0.0013224496420143456,1.959
-0.0008838482970553189,1.96
-0.0004948957441742001,1.961
-0.00015660847919160152,1.962
0.00019754083140664417,1.963
0.000652542171836639,1.964
0.0012251587767689587,1.965
0.001822977124433027,1.966
0.002305021624741796,1.967
0.002590754554184519,1.968
0.0027172116266839953,1.969
0.002801586584815435,1.97
0.0029452405445780216,1.971
0.0031509690779494915,1.972
0.0033097089906265597,1.973
0.003256313816378116,1.974
0.0028542078789143732,1.975
0.0020703072488329186,1.976
0.0010005445578249597,1.977
-0.00017645133407227694,1.978
-0.0012864947866155696,1.979
-0.0022313184081042504,1.98
-0.0030099324536620327,1.981
-0.003687661170985138,1.982
-0.004334454869386273,1.983
-0.004962473226584308,1.984
-0.005485677416395997,1.985
-0.0057254410183495965,1.986
-0.005482179741101982,1.987
-0.004636756011748067,1.988
-0.0032091579550346254,1.989
-0.001353992650473154,1.99
0.0006852759099305398,1.991
0.0026427843230672882,1.992
0.004290780600845506,1.993
0.005475947128217125,1.994
0.006130815967532623,1.995
0.00626679754793776,1.996
0.0059582190571642645,1.997
0.005309147670763994,1.998
0.00440591796448635,1.999
0.003306125460133115,2.0
0.0020776339000230615,2.001
0.0008240893643766398,2.002
-0.0003375818464336625,2.003
-0.0013168863170539681,2.004
-0.0020635952564800977,2.005
-0.0025492001746716037,2.006
-0.002756175174402267,2.007
-0.0026946743960942197,2.008
-0.0024238217635257396,2.009
-0.0020479929414547477,2.01
-0.0016762096536169207,2.011
-0.0013839373357308292,2.012
-0.0012133600119407903,2.013
-0.0011794601150208674,2.014
-0.001261096413645578,2.015
-0.0014083943805542692,2.016
-0.0015654497510351163,2.017
-0.0016793306022627585,2.018
-0.0017059673581343482,2.019
-0.0016306844906351467,2.02
-0.0014864018954691039,2.021
-0.0013465209877764571,2.022
-0.0012904412814871832,2.023
-0.001359677536369322,2.024
-0.001525204881064282,2.025
-0.0016727870424937442,2.026
-0.0016125475358164055,2.027
-0.0011211948810437497,2.028
-7.1922104667516875e-06,2.029
0.0018207240425702148,2.03
0.004298223268363148,2.031
0.0071824596803568615,2.032
0.010084508720631335,2.033
0.01254787708206653,2.034
0.014123690002345727,2.035
0.01442912006882778,2.036
0.0132089887254788,2.037
0.010387670927146415,2.038
0.0060936346942667636,2.039
0.0006681360650712322,2.04
-0.005338216666478349,2.041
-0.011212389764005118,2.042
-0.0161874675776538,2.043
-0.019578623209183812,2.044
-0.020901309501565404,2.045
-0.019954777880305433,2.046
-0.01687083287796456,2.047
-0.012113132782156803,2.048
-0.006411017989095621,2.049
-0.0006337353066624501,2.05
0.004388815650625489,2.051
0.008062460114345475,2.052
0.010147626072585982,2.053
0.01073896628482422,2.054
0.010143878920120732,2.055
0.008740933520538254,2.056
0.006878817512492311,2.057
0.004840269689809864,2.058
0.002848959747692963,2.059
0.0010795127777535472,2.06
-0.0003411769681776199,2.061
-0.0013303252492075437,2.062
-0.0018307930102149691,2.063
-0.0017970947090800709,2.064
-0.001224553457012872,2.065
-0.00019835798531884152,2.066
0.0011005936699223044,2.067
0.002438242909918325,2.068
0.003575448609111154,2.069
0.004302313378568914,2.07
0.004468618416093554,2.071
0.004016597179541908,2.072
0.0030044083336567924,2.073
0.0015922506694072446,2.074
-1.2220927699933137e-05,2.075
-0.0016076931568021517,2.076
-0.003023017155159354,2.077
-0.004125223393808411,2.078
-0.004840321693302642,2.079
-0.005186672599494902,2.08
-0.005272982983620184,2.081
-0.0052294536697835,2.082
-0.005123348288973925,2.083
-0.00493068453645876,2.084
-0.004558556185893233,2.085
-0.0038706127445331737,2.086
-0.0027142033833322207,2.087
-0.0009683151846256646,2.088
0.0013931122065526454,2.089
0.0042400016690951154,2.09
0.007263798223770783,2.091
0.010020226951322821,2.092
0.012013237860227026,2.093
0.012788596208418261,2.094
0.012017193699642699,2.095
0.009547469910375826,2.096
0.005434829829985516,2.097
-1.3995428059427914e-05,2.098
-0.006187362071670146,2.099
-0.012202752265830228,2.1
-0.017098741790562155,2.101
-0.020079709138206305,2.102
-0.020645787909451783,2.103
-0.01859532117603554,2.104
-0.01400821095109054,2.105
-0.007282453574580694,2.106
0.000809199992939014,2.107
0.009147241145475556,2.108
0.016428564167330573,2.109
0.02142460716958476,2.11
0.023274297451675995,2.111
0.021728544102236354,2.112
0.017235902257104748,2.113
0.010812342275804956,2.114
0.0037598907618581865,2.115
-0.002630109761317981,2.116
-0.007307328853410061,2.117
-0.00962627315974665,2.118
-0.00945316148146811,2.119
-0.0071880526377039265,2.12
-0.003662775214761325,2.121
7.199725084353058e-05,2.122
0.003001348297844389,2.123
0.004373257153891349,2.124
0.0038455177811510515,2.125
0.001518569430462444,2.126
-0.002137805379462195,2.127
-0.006424151943691342,2.128
-0.010576605232768882,2.129
-0.013910486350073449,2.13
-0.01589646501118173,2.131
-0.016175464132598707,2.132
-0.01455508674469476,2.133
-0.01101886723168096,2.134
-0.00576976852710534,2.135
0.0007029137875816818,2.136
0.007587481808391899,2.137
0.013822092895519271,2.138
0.018336054276537186,2.139
0.020380047060209,2.14
0.019744184018863065,2.141
0.01677150690917183,2.142
0.012222511789291469,2.143
0.00705277950106922,2.144
0.0021630911771052257,2.145
-0.0017964183384078436,2.146
-0.004518775805631921,2.147
-0.006018008415120295,2.148
-0.0065099516982870965,2.149
-0.006273784967036845,2.15
-0.005578324377365557,2.151
-0.004670360354655344,2.152
-0.0037643585256887657,2.153
-0.003011098754375744,2.154
-0.00247655342655285,2.155
-0.002149597576323878,2.156
-0.001971067816288688,2.157
-0.0018786777784891343,2.158
-0.001838049582963606,2.159
-0.0018285903676593343,2.16
-0.0018156734651182983,2.161
-0.00174890696728951,2.162
-0.001573853013702763,2.163
-0.0012459914220300163,2.164
-0.0007560178153260275,2.165
-0.00015058634308234473,2.166
0.0004795105104624578,2.167
0.001041600645261402,2.168
0.001482938611975998,2.169
0.0018043975836657576,2.17
0.002048670415562141,2.171
0.0022794874242141215,2.172
0.0025548470207872693,2.173
0.002897919546504423,2.174
0.0032800819867824043,2.175
0.0036289130767487377,2.176
0.0038583710690108753,2.177
0.003899352966980269,2.178
0.003713877506840831,2.179
0.0032989618839661472,2.18
0.002690386042745085,2.181
0.0019578960942278683,2.182
0.0011840213756123708,2.183
0.0004374368970982153,2.184
-0.0002475649891516383,2.185
-0.0008738152023550507,2.186
-0.0014591258778685428,2.187
-0.002014414301052275,2.188
-0.0025538988269983563,2.189
-0.0031217685433058426,2.19
-0.003798015873937909,2.191
-0.0046707748448089085,2.192
-0.005782579040522636,2.193
-0.007075583136725407,2.194
-0.00836020530303909,2.195
-0.009329844186475308,2.196
-0.009654536444579623,2.197
-0.009113054162932293,2.198
-0.00764582126972888,2.199
-0.005310482347135632,2.2
-0.002243476549210663,2.201
0.0013382968278623632,2.202
0.005152619894539251,2.203
0.008881884544434504,2.204
0.012176079410626664,2.205
0.014657251857229409,2.206
0.015972624516381727,2.207
0.015879474914997915,2.208
0.01432628551553937,2.209
0.011514519596054568,2.21
0.00789978311436986,2.211
0.004087082892383113,2.212
0.0006516156119555008,2.213
-0.002022776912540353,2.214
-0.0038130146859129597,2.215
-0.004822507135873043,2.216
-0.005283734287264121,2.217
-0.00544753251376835,2.218
-0.005502693690350361,2.219
-0.00554937074335547,2.22
-0.005610338414137714,2.221
-0.005657345529847364,2.222
-0.005641463068524336,2.223
-0.0055095806580184115,2.224
-0.005210219573617214,2.225
-0.004709534639710665,2.226
-0.0040025384976846165,2.227
-0.003105396465634006,2.228
-0.0020494359875649596,2.229
-0.0008844660021010749,2.23
0.00031695208655161945,2.231
0.0014645859677831002,2.232
0.0024691772762402402,2.233
0.0032565017881616056,2.234
0.0037703155959967084,2.235
0.003975613923959583,2.236
0.0038608156125079863,2.237
0.003442111788119574,2.238
0.0027807183543850436,2.239
0.00199581205568898,2.24
0.0012452038855932368,2.241
0.0006780075427393138,2.242
0.0003822207908594996,2.243
0.0003542016127555643,2.244
0.0005128368439076261,2.245
0.0007431881156561798,2.246
0.0009389861702352453,2.247
0.0010352291303559365,2.248
0.0010192125655742572,2.249
0.0009098023680768167,2.25
0.000724824678096083,2.251
0.00046521793127857756,2.252
0.00012495010490339793,2.253
-0.0002893346897938038,2.254
-0.000753348136697813,2.255
-0.001238383598580691,2.256
-0.0017266259689633935,2.257
-0.0022165087330200724,2.258
-0.0027172729641044054,2.259
-0.003240976031144645,2.26
-0.0037934416063420844,2.261
-0.004352742189284335,2.262
-0.00484613692501254,2.263
-0.005153882730402843,2.264
-0.005135692236985991,2.265
-0.0046448328211656275,2.266
-0.0035246481461111527,2.267
-0.0016330426513698764,2.268
0.0010802840447383013,2.269
0.004478036229591226,2.27
0.008171502143916206,2.271
0.011527363268657198,2.272
0.013777133456475068,2.273
0.0142343193163805,2.274
0.012541461586690528,2.275
0.008819735679307534,2.276
0.003649484095619103,2.277
-0.0021041869574086264,2.278
-0.007529670303731253,2.279
-0.011846188663073567,2.28
-0.01447735413845629,2.281
-0.015070318541864693,2.282
-0.013493862248345805,2.283
-0.009847319583940126,2.284
-0.004527250662831194,2.285
0.0017068783735050281,2.286
0.007803026995972249,2.287
0.01265803825253919,2.288
0.015427023693371546,2.289
0.015744328725375623,2.29
0.013764728709581262,2.291
0.010059055410517168,2.292
0.0054416013065980645,2.293
0.0007744705107484173,2.294
-0.0032203917044290133,2.295
-0.006100468835491936,2.296
-0.007743357946291695,2.297
-0.00827609775420334,2.298
-0.007951936653264094,2.299
-0.007051151260759228,2.3
-0.005831558625674532,2.301
-0.004507393672031469,2.302
-0.003236976539432577,2.303
-0.002121680126736121,2.304
-0.0012169555795502967,2.305
-0.0005465924012173724,2.306
-0.00011656584679917187,2.307
7.741325561576365e-05,2.308
5.62046020801698e-05,2.309
-0.00013010004456975204,2.31
-0.00040189234291929565,2.311
-0.0006686191851474019,2.312
-0.000848584377621161,2.313
-0.0008766034455727661,2.314
-0.0007151236043475835,2.315
-0.00038055728216196535,2.316
4.918249870303937e-05,2.317
0.0004799982277707045,2.318
0.0008614850141242608,2.319
0.001202449782777641,2.32
0.0015442062564988387,2.321
0.0019232617586926893,2.322
0.002341310841880903,2.323
0.002756777294941155,2.324
0.0031021829764939484,2.325
0.003309478376993842,2.326
0.003326548175529068,2.327
0.003131799368190553,2.328
0.002753822140914548,2.329
0.0022751925707366204,2.33
0.0018020200353126802,2.331
0.0014213287156942106,2.332
0.0011827059963789687,2.333
0.0011046153319338402,2.334
0.001177270042275143,2.335
0.0013573925786589853,2.336
0.001574073319886727,2.337
0.0017492164591162282,2.338
0.0018156759487594984,2.339
0.0017183082304662366,2.34
0.0014085678964815874,2.341
0.0008567203039099753,2.342
8.364102671654387e-05,2.343
-0.0008105699301627979,2.344
-0.001650693593082416,2.345
-0.0022420446512643245,2.346
-0.002468654079481858,2.347
-0.0023852265407534085,2.348
-0.002246797245264546,2.349
-0.002464617477357446,2.35
-0.003497084819358796,2.351
-0.005681456129636361,2.352
-0.009050958339376242,2.353
-0.013220574593193552,2.354
-0.017407750756483265,2.355
-0.020594025963243508,2.356
-0.021765295936643538,2.357
-0.020138959174536453,2.358
-0.015322547748801749,2.359
-0.007412525164406335,2.36
0.002928400799186515,2.361
0.014428551075326606,2.362
0.02531370889749492,2.363
0.03366726132705292,2.364
0.037961162697359295,2.365
0.037508328332908916,2.366
0.03263330683252516,2.367
0.024528258039561164,2.368
0.014883564956071427,2.369
0.005438244829490972,2.37
-0.0024074329710718164,2.371
-0.007826964797347727,2.372
-0.01062437233962565,2.373
-0.011146451315960686,2.374
-0.010101670871708112,2.375
-0.008340241468518946,2.376
-0.006664176703765055,2.377
-0.005701797659190533,2.378
-0.005838186621984535,2.379
-0.007186390183758476,2.38
-0.00958017911161474,2.381
-0.012579774821298139,2.382
-0.01551594771331565,2.383
-0.017611706579662507,2.384
-0.018169263473138908,2.385
-0.016734830369973332,2.386
-0.013160307422778348,2.387
-0.007587711911020724,2.388
-0.00045469927155247943,2.389
0.007463499324775876,2.39
0.015082741856236623,2.391
0.021191739908358893,2.392
0.024721431666145557,2.393
0.02496258435585533,2.394
0.02168654618232034,2.395
0.015204765729430884,2.396
0.006361305869936763,2.397
-0.003573986092798921,2.398
-0.013115169211200569,2.399
-0.020831683411784485,2.4
-0.025588615417798076,2.401
-0.026675620098923634,2.402
-0.0238331338354465,2.403
-0.017262003728149917,2.404
-0.007684094883144903,2.405
0.003607549591387425,2.406
0.014853717109809896,2.407
0.024143839384849684,2.408
0.029856258235988364,2.409
0.03107895372988763,2.41
0.02785056577797574,2.411
0.021107934761794435,2.412
0.012377959356101,2.413
0.0033620602794481526,2.414
-0.004468714950640388,2.415
-0.010165622893601817,2.416
-0.013385642972707546,2.417
-0.014297254039763426,2.418
-0.013413095371115812,2.419
-0.011396851231944467,2.42
-0.008882550774982874,2.421
-0.006362643976314341,2.422
-0.004152922389052782,2.423
-0.002401856340741665,2.424
-0.0011322356497605603,2.425
-0.0003077897736593152,2.426
0.00011770435767168861,2.427
0.00019832037223096901,2.428
1.3878226173060727e-05,2.429
-0.00032998510930788434,2.43
-0.0007208707004006382,2.431
-0.001068201435398494,2.432
-0.0013360315154117015,2.433
-0.0015524375212671556,2.434
-0.0017736938293592868,2.435
-0.0020187408870545633,2.436
-0.0022115437859093765,2.437
-0.0021703553046994533,2.438
-0.0016622071724421033,2.439
-0.0005080425900210522,2.44
0.0013200801133507968,2.441
0.0036752599409491846,2.442
0.006281783123936023,2.443
0.008807565004359898,2.444
0.010942521542018687,2.445
0.012447405375345326,2.446
0.01313338656369819,2.447
0.012805494615078234,2.448
0.011241818961213715,2.449
0.008242335486454259,2.45
0.0037400384512212568,2.451
-0.0020630505696994273,2.452
-0.008602319631020719,2.453
-0.014982487085527945,2.454
-0.02018721866493397,2.455
-0.02341098666919634,2.456
-0.024354616196216483,2.457
-0.02332402140963669,2.458
-0.021046839758687378,2.459
-0.018283622545350053,2.46
-0.015467912101690604,2.461
-0.012547782658469599,2.462
-0.009038209672429652,2.463
-0.00425647055072273,2.464
0.0022984982546091414,2.465
0.010583845757960567,2.466
0.019934781711012824,2.467
0.029368236726235463,2.468
0.0380066801895597,2.469
0.045270690731470734,2.47
0.05075133433217468,2.471
0.05392116640892334,2.472
0.05390350435825616,2.473
0.0494839352671846,2.474
0.039442538363854814,2.475
0.02312005903262385,2.476
0.001026202452878395,2.477
-0.02473015376314219,2.478
-0.05043659280993801,2.479
-0.07141882372755637,2.48
-0.08332063996273431,2.481
-0.0835864529871938,2.482
-0.07243727755778319,2.483
-0.05282835069980242,2.484
-0.02940122730586115,2.485
-0.006955875812230539,2.486
0.010845853487111881,2.487
0.022100131361008548,2.488
0.026608999250999004,2.489
0.025431454000649327,2.49
0.020330881999625038,2.491
0.01329226390553893,2.492
0.006156335467730595,2.493
0.0003817185086936292,2.494
-0.0030535091010906864,2.495
-0.003651112050433697,2.496
-0.001364865157265762,2.497
0.003413521819086359,2.498
0.009853118915432323,2.499
0.016744596968748297,2.5
0.02274112446139618,2.501
0.02673087604058749,2.502
0.02812070873917423,2.503
0.026899491260465334,2.504
0.02352123597605254,2.505
0.018694767784293582,2.506
0.013150090673731718,2.507
0.007443461606797608,2.508
0.0018707643577188934,2.509
-0.0034620557927353105,2.51
-0.008458301521285497,2.511
-0.012869883556429585,2.512
-0.016267942403389284,2.513
-0.018186239214966194,2.514
-0.018384269312336443,2.515
-0.017061738683498286,2.516
-0.014854000872534402,2.517
-0.012592394445597815,2.518
-0.010971213176715514,2.519
-0.010305790388805072,2.52
-0.010485129433810206,2.521
-0.01108481953086337,2.522
-0.011528274119220232,2.523
-0.011217300620386964,2.524
-0.009627298935292145,2.525
-0.006403074925743785,2.526
-0.0014789510208245622,2.527
0.004808079584321927,2.528
0.011684739862106752,2.529
0.018035840551495902,2.53
0.02262962498531857,2.531
0.02444368495382672,2.532
0.022987640755501113,2.533
0.018472723932451588,2.534
0.011763670339935181,2.535
0.004156024181376132,2.536
-0.002943932117979275,2.537
-0.008348061855954443,2.538
-0.011332899193148633,2.539
-0.011738255303796115,2.54
-0.00990434652935641,2.541
-0.006512383492824906,2.542
-0.002439082112474676,2.543
0.0013351433863382691,2.544
0.003830224286064694,2.545
0.004241177027924069,2.546
0.0021555764307171345,2.547
-0.0022667026584207418,2.548
-0.008229465657442704,2.549
-0.014402430185455029,2.55
-0.019211465473043993,2.551
-0.02126336843401293,2.552
-0.019730571807223866,2.553
-0.014524039675746494,2.554
-0.006243059098933281,2.555
0.003977174383547881,2.556
0.014617950349486736,2.557
0.023957549037536965,2.558
0.030362890963017142,2.559
0.03266977004303533,2.56
0.030517051793619594,2.561
0.0244876147944201,2.562
0.015968299818016323,2.563
0.006755361160478755,2.564
-0.0014366895432130382,2.565
-0.007374873921829272,2.566
-0.010528751342619526,2.567
-0.011098689142379858,2.568
-0.009838672120537923,2.569
-0.007736639903895235,2.57
-0.0057117932114139295,2.571
-0.0044361064901419075,2.572
-0.004269902268027595,2.573
-0.005261138648955951,2.574
-0.007180479200715566,2.575
-0.009583038702239052,2.576
-0.011899794417095167,2.577
-0.013563799416141342,2.578
-0.014131207896701574,2.579
-0.01333652249071911,2.58
-0.011081384101734156,2.581
-0.007417531428120327,2.582
-0.002586621490999235,2.583
0.0028902087927541167,2.584
0.008183741051328955,2.585
0.012309250503425991,2.586
0.01443081002756688,2.587
0.014147488040856861,2.588
0.011619270542682835,2.589
0.007501923709768765,2.59
0.0027562790564117454,2.591
-0.0015690639391214192,2.592
-0.004541069121147472,2.593
-0.005535447450648765,2.594
-0.004395984275895036,2.595
-0.0015053868517923858,2.596
0.0022933906808044534,2.597
0.005939811431205902,2.598
0.008485976771873823,2.599
0.009385632667759816,2.6
0.008626985779602319,2.601
0.006672062339183497,2.602
0.004262255029881042,2.603
0.002172108479485677,2.604
0.0009646473527661633,2.605
0.0008119313353576081,2.606
0.0014804921297771792,2.607
0.0025261886855427167,2.608
0.003568727794343237,2.609
0.004431638643983222,2.61
0.005078927428248628,2.611
0.0054604435035178495,2.612
0.005395205295382089,2.613
0.004542777189211031,2.614
0.0024701671439954064,2.615
-0.0011798265407971214,2.616
-0.006456083510553115,2.617
-0.012921819159355844,2.618
-0.01966090207638626,2.619
-0.025507679614956254,2.62
-0.02941299095044131,2.621
-0.030769216235262433,2.622
-0.02954423499488603,2.623
-0.026176406002863414,2.624
-0.021294900856208533,2.625
-0.015429916620970829,2.626
-0.00886554843144922,2.627
-0.0016625335028498042,2.628
0.00621719502975606,2.629
0.014762257179372584,2.63
0.02376949942878919,2.631
0.03271503084525872,2.632
0.040713396025763876,2.633
0.046639983731895186,2.634
0.04935148174468902,2.635
0.04790243252162733,2.636
0.041763039483510636,2.637
0.031048951686840926,2.638
0.016694985194576687,2.639
0.0004655098688968895,2.64
-0.015311222030708994,2.641
-0.02827589426914047,2.642
-0.036634452777395334,2.643
-0.039585514182633834,2.644
-0.03745635033850675,2.645
-0.031519087644746605,2.646
-0.023540492454891367,2.647
-0.0152371158062876,2.648
-0.007882677872936474,2.649
-0.002190977853149642,2.65
0.0016125299901226103,2.651
0.0036605433755140518,2.652
0.004309745818027173,2.653
0.004003683712578078,2.654
0.0031302902747390076,2.655
0.0019221710102166497,2.656
0.00045707534129072705,2.657
-0.001253804035329589,2.658
-0.0031457517573123704,2.659
-0.0050099179952632,2.66
-0.006495294504293498,2.661
-0.0072001047291430365,2.662
-0.006755593963550116,2.663
-0.0048459130075291425,2.664
-0.0012283616398498644,2.665
0.004144742506835321,2.666
0.010895147297124555,2.667
0.018065997700400547,2.668
0.0242771370002974,2.669
0.028143360683010904,2.67
0.0286879769471454,2.671
0.02558288454491966,2.672
0.019207448404249483,2.673
0.010544485002341399,2.674
0.0009307173535775045,2.675
-0.008252851948678,2.676
-0.01582959583236171,2.677
-0.020979572619960227,2.678
-0.023322912409041798,2.679
-0.02291941496223786,2.68
-0.02017244758041337,2.681
-0.01570126604017241,2.682
-0.010236945494543053,2.683
-0.0045254176118766825,2.684
0.000767290157635687,2.685
0.005110611333433015,2.686
0.008125692230259845,2.687
0.009608027182549068,2.688
0.0095597399497265,2.689
0.00819343016969464,2.69
0.005897283787188083,2.691
0.0031596057083273944,2.692
0.00046211050783319575,2.693
-0.0018136639918562743,2.694
-0.003437216826719074,2.695
-0.004328457146630493,2.696
-0.004513020256940318,2.697
-0.004078103931134919,2.698
-0.0031615276285806865,2.699
-0.001956257307777038,2.7
-0.0006904221576145195,2.701
0.0004330166510870671,2.702
0.0013017280817211173,2.703
0.0019197743547743843,2.704
0.0023812285037384004,2.705
0.002796778239629787,2.706
0.003194048980053931,2.707
0.0034475783982374983,2.708
0.003309595595573485,2.709
0.002553801072354123,2.71
0.0011477739502589724,2.711
-0.0006521210637668734,2.712
-0.0023317722705908867,2.713
-0.0032902423376131936,2.714
-0.0031166564485870475,2.715
-0.0018235708494655823,2.716
0.0001331809971895576,2.717
0.0020787478381817746,2.718
0.003441450950014641,2.719
0.003953007210303987,2.72
0.0036450539626758783,2.721
0.0027384806785034767,2.722
0.001527410789092035,2.723
0.0002875360887127244,2.724
-0.0007957557388513687,2.725
-0.00167022429754028,2.726
-0.002399705970928796,2.727
-0.003090827286915751,2.728
-0.003817094165740668,2.729
-0.004584923418021484,2.73
-0.005346528816985459,2.731
-0.006036148283076213,2.732
-0.006581696786278791,2.733
-0.006863323920263206,2.734
-0.006662814214776243,2.735
-0.005671433374664118,2.736
-0.0035854417590095713,2.737
-0.00027988561449365123,2.738
0.0040134092966492094,2.739
0.008650023164965959,2.74
0.012712176482599272,2.741
0.015304898947709618,2.742
0.015884123109313662,2.743
0.014462491783707097,2.744
0.011597739382560781,2.745
0.008182010902663616,2.746
0.005118805337259219,2.747
0.0029907552045620647,2.748
0.0018498652230395985,2.749
0.0012372946437930604,2.75
0.0004267424246826619,2.751
-0.001227627574085079,2.752
-0.004003111342563653,2.753
-0.007680918073236491,2.754
-0.011599681127797938,2.755
-0.014888210938340685,2.756
-0.016799801298927,2.757
-0.016975364167707063,2.758
-0.015506427871274635,2.759
-0.012803949532304635,2.76
-0.009370657970875756,2.761
-0.0056202023690394435,2.762
-0.001849529680778174,2.763
0.0016900247197978561,2.764
0.004753512850147154,2.765
0.007134038025007496,2.766
0.008736728658731437,2.767
0.009638749536110963,2.768
0.010058391505396766,2.769
0.010221248487209763,2.77
0.010220012636659719,2.771
0.009979763430442816,2.772
0.009338624158322907,2.773
0.008171862077798525,2.774
0.006486404891368101,2.775
0.004430969178935787,2.776
0.0022274055846801546,2.777
9.90639362295661e-05,2.778
-0.0017645211078139488,2.779
-0.0032354805966155107,2.78
-0.004277495862910146,2.781
-0.00495921608421602,2.782
-0.005445010304729709,2.783
-0.005952940922652569,2.784
-0.0066830017564446205,2.785
-0.007749535078196549,2.786
-0.009123918920013043,2.787
-0.010582340682659197,2.788
-0.011708908675761681,2.789
-0.011988083822439677,2.79
-0.010944002104564237,2.791
-0.008280380415220024,2.792
-0.00399257563018371,2.793
0.0015953483288752188,2.794
0.007893301361574363,2.795
0.014166322223910035,2.796
0.01965557664989825,2.797
0.023679401871466797,2.798
0.025723647682787388,2.799
0.02549953847939724,2.8
0.02291167410191463,2.801
0.017967640768804877,2.802
0.010784881586699472,2.803
0.0017579401678379657,2.804
-0.008265210029499426,2.805
-0.017964596283700007,2.806
-0.025763095864857654,2.807
-0.03028339157690887,2.808
-0.030831637427383072,2.809
-0.02756662425497779,2.81
-0.02129677698696975,2.811
-0.013135231268972442,2.812
-0.00421597462879719,2.813
0.004471581211727739,2.814
0.012139141977732847,2.815
0.01818234233008782,2.816
0.02216817660780248,2.817
0.02385725737577726,2.818
0.02320266967878775,2.819
0.0203060614826796,2.82
0.015371934414906026,2.821
0.008697713320345087,2.822
0.0007161581617996667,2.823
-0.00794159238338336,2.824
-0.01641948561739556,2.825
-0.023687621875467406,2.826
-0.02868373580912493,2.827
-0.030512910542432162,2.828
-0.028655900741278845,2.829
-0.023136152251645767,2.83
-0.0145891038295938,2.831
-0.004210668360597807,2.832
0.006411418869174449,2.833
0.01559302216727912,2.834
0.02193860757091888,2.835
0.02468230273735617,2.836
0.023837547571388847,2.837
0.020104718615344765,2.838
0.014617489956773925,2.839
0.008653284437598887,2.84
0.0033783269968938575,2.841
-0.00033209919609857095,2.842
-0.0019851558302455908,2.843
-0.0015338802599664271,2.844
0.0005592628275796515,2.845
0.003367868943497991,2.846
0.005754622146628118,2.847
0.006739561122390064,2.848
0.00580730732637247,2.849
0.0030677675114390277,2.85
-0.0007708252319593318,2.851
-0.004640224086200302,2.852
-0.007480365219140673,2.853
-0.008598005532105846,2.854
-0.007914250836726765,2.855
-0.0060012111152326535,2.856
-0.003823575081245519,2.857
-0.0022881649803325925,2.858
-0.0018818990411547934,2.859
-0.002567418979269959,2.86
-0.0038844960966677496,2.861
-0.005157441486504174,2.862
-0.005755297034988045,2.863
-0.005321502143297228,2.864
-0.003873719321645223,2.865
-0.0017709494507285829,2.866
0.0003985171104711171,2.867
0.0019769448499771538,2.868
0.002420103106920333,2.869
0.0014691905350664727,2.87
-0.000743859644696058,2.871
-0.0037081904216047334,2.872
-0.006663094551004406,2.873
-0.008793437249112161,2.874
-0.00941654658903578,2.875
-0.008104268238637757,2.876
-0.004736759212167252,2.877
0.00045720145732594346,2.878
0.0068359071473836595,2.879
0.013335531529257804,2.88
0.018640254791353603,2.881
0.021524213915302935,2.882
0.021212275903297013,2.883
0.01760737347308938,2.884
0.011317458247614254,2.885
0.0034910095878822635,2.886
-0.004477995833992124,2.887
-0.011289791235171948,2.888
-0.016014632965709673,2.889
-0.018206207351248466,2.89
-0.017835339704857674,2.891
-0.01512383964607338,2.892
-0.010416777458679022,2.893
-0.004174637066204038,2.894
0.002968556518845234,2.895
0.010180291209879044,2.896
0.016492995491576876,2.897
0.020945220605704765,2.898
0.022739644932032232,2.899
0.02138805037162653,2.9
0.016850703656520086,2.901
0.009624949962988596,2.902
0.0006911127335265173,2.903
-0.008698829792908602,2.904
-0.01727196803621196,2.905
-0.023904652237187678,2.906
-0.027728780335502204,2.907
-0.028258088203866157,2.908
-0.02553405448627601,2.909
-0.0201943041204557,2.91
-0.013339280261373095,2.911
-0.006153201943949575,2.912
0.0005373864945572706,2.913
0.0064629363959845835,2.914
0.011783893305973696,2.915
0.01680917113000052,2.916
0.021718589106211418,2.917
0.02637302251839973,2.918
0.030310019984203494,2.919
0.032910144239664395,2.92
0.03353450404467603,2.921
0.03153192715598149,2.922
0.026240243138726856,2.923
0.017103892756957978,2.924
0.003961850317151961,2.925
-0.01249236766745729,2.926
-0.030308357749875336,2.927
-0.046368770405305605,2.928
-0.05718150935976769,2.929
-0.06005021052463892,2.93
-0.054048535558672166,2.931
-0.04043166322214857,2.932
-0.02233077765088495,2.933
-0.003728282571696848,2.934
0.011877438739807773,2.935
0.02240917313502149,2.936
0.027394957723557174,2.937
0.027606229551194558,2.938
0.02449410619642117,2.939
0.01965253741814201,2.94
0.014454736804912167,2.941
0.00990123109860611,2.942
0.006607284435928292,2.943
0.004834380553309819,2.944
0.0045122349273964656,2.945
0.005262448318024961,2.946
0.006465655671112664,2.947
0.007391822851460463,2.948
0.0073841778009272815,2.949
0.006039496936275864,2.95
0.0033017307533744697,2.951
-0.000543473285472617,2.952
-0.0049278883044563205,2.953
-0.00910893766086213,2.954
-0.012340829021174445,2.955
-0.014047139984697976,2.956
-0.013901727384926609,2.957
-0.011817062226673525,2.958
-0.00791294665613877,2.959
-0.0025061656970673234,2.96
0.003880858188732057,2.961
0.010508728342251129,2.962
0.016451918092384422,2.963
0.02071346121975147,2.964
0.022410578695396196,2.965
0.020970755705309603,2.966
0.01627129662341398,2.967
0.008704560531734719,2.968
-0.0008026105360715722,2.969
-0.010824050466031153,2.97
-0.019618281935599596,2.971
-0.025528759036831,2.972
-0.027475799141717105,2.973
-0.025305643113310315,2.974
-0.01985123972975663,2.975
-0.012663096787558689,2.976
-0.005475950001834044,2.977
0.000359362124369191,2.978
0.0042071777791298885,2.979
0.0061328642915200945,2.98
0.006640751089931744,2.981
0.006351493733855481,2.982
0.005770824813725674,2.983
0.005201613637695345,2.984
0.004752624267281086,2.985
0.0043800968128683854,2.986
0.003943360579029222,2.987
0.003272067498989115,2.988
0.002237470411109358,2.989
0.0008386903961421295,2.99
-0.0007068159596239212,2.991
-0.0019537498655373903,2.992
-0.002349835064510394,2.993
-0.0014252726614200125,2.994
0.0009983795025133265,2.995
0.004604785627857933,2.996
0.008517434249558593,2.997
0.011528213593636418,2.998
0.012562051424381545,2.999
0.011123327684189112,3.0
0.007490961445584925,3.001
0.0025623596855269748,3.002
-0.0025522517850901584,3.003
-0.0069218847491418906,3.004
-0.01000096191486183,3.005
-0.011664350004784996,3.006
-0.012122676379903923,3.007
-0.011749145191079875,3.008
-0.010880170772383978,3.009
-0.009682267011143211,3.01
-0.008157100969812753,3.011
-0.0062634632084999226,3.012
-0.004042950367121149,3.013
-0.001654709512187016,3.014
0.0006960444551778013,3.015
0.0028814011495800432,3.016
0.004940470804257109,3.017
0.007083234717042664,3.018
0.009597446414364401,3.019
0.012687400585569324,3.02
0.01631814545760491,3.021
0.020136235713456747,3.022
0.023504832581376558,3.023
0.02562575721558741,3.024
0.025673695907693982,3.025
0.022925623465993614,3.026
0.0169169435433153,3.027
0.007618157928086596,3.028
-0.004418143025545688,3.029
-0.017999416043625427,3.03
-0.03136690869702418,3.031
-0.042439338385719415,3.032
-0.04923221451414506,3.033
-0.05034913985984123,3.034
-0.045388191089157544,3.035
-0.03516310173798541,3.036
-0.021627256453608,3.037
-0.007356189728597624,3.038
0.005320375812509112,3.039
0.015081231677853371,3.04
0.021821303198706208,3.041
0.026297601981682864,3.042
0.029535278358256343,3.043
0.032264929227941316,3.044
0.03457404563652543,3.045
0.035878210543962334,3.046
0.0351428494777763,3.047
0.031234423280922963,3.048
0.023338425723752217,3.049
0.011364660164939748,3.05
-0.0037635959339316592,3.051
-0.020041531453633816,3.052
-0.0346756929629372,3.053
-0.04479958269239029,3.054
-0.04838997288084533,3.055
-0.04495460539646928,3.056
-0.03564958662686934,3.057
-0.02273855417447213,3.058
-0.008668627366290427,3.059
0.004671708966866043,3.06
0.016159147679620393,3.061
0.02522800894676353,3.062
0.031532323828551895,3.063
0.03470813769447149,3.064
0.03438044294470725,3.065
0.030384790930832753,3.066
0.0230302444632218,3.067
0.013228699769592955,3.068
0.0024097602682671853,3.069
-0.007770402544028062,3.07
-0.015837934994104474,3.071
-0.020852712060313992,3.072
-0.022541742880905324,3.073
-0.021193345925785936,3.074
-0.017444606959724086,3.075
-0.012137825441962872,3.076
-0.006282877060713125,3.077
-0.0009824748782765256,3.078
0.0027936895328242936,3.079
0.004485651657447752,3.08
0.004082707068966464,3.081
0.002077107535441378,3.082
-0.0007054825026088497,3.083
-0.003351908673243078,3.084
-0.005120681811118963,3.085
-0.005577798394040842,3.086
-0.004514929688523912,3.087
-0.0017714166437321113,3.088
0.0028008256595702637,3.089
0.00914925602346238,3.09
0.01674658043795669,3.091
0.024446617722170456,3.092
0.03061276594982768,3.093
0.03349281941302802,3.094
0.03171047367197787,3.095
0.024745784097846148,3.096
0.013244249053972215,3.097
-0.0010317489801880376,3.098
-0.015654078020996658,3.099
-0.02818506852178455,3.1
-0.03673512655059986,3.101
-0.04025848402320442,3.102
-0.03863457734102682,3.103
-0.03263105793465397,3.104
-0.023745047496734232,3.105
-0.013851736797719163,3.106
-0.004705423041543244,3.107
0.0024702121166832475,3.108
0.007118087370319632,3.109
0.009272772090209396,3.11
0.009416715669001211,3.111
0.00829956456310485,3.112
0.00670897199719769,3.113
0.005253215521296498,3.114
0.004245113927504804,3.115
0.0037075604338841495,3.116
0.0034497025305949866,3.117
0.003176787886346527,3.118
0.0026402799335200635,3.119
0.0017872593890624414,3.12
0.000818196338644626,3.121
0.00013749157459862476,3.122
0.00024309423475798233,3.123
0.0015787356030310502,3.124
0.004375220140032451,3.125
0.008527182826813457,3.126
0.01355184571562197,3.127
0.01866677367920662,3.128
0.02297089386058708,3.129
0.025639068476029845,3.13
0.02604002112413624,3.131
0.023766749762939486,3.132
0.018638511196381352,3.133
0.010732224797255972,3.134
0.0004505075952854642,3.135
-0.011382836609931194,3.136
-0.023414218483694484,3.137
-0.033761908710878134,3.138
-0.04036398688801955,3.139
-0.04171601961905584,3.14
-0.03760015655679846,3.141
-0.029294751244207325,3.142
-0.01912857759129814,3.143
-0.009635583245622054,3.144
-0.002724035156338544,3.145
0.000816244654030477,3.146
0.0014069258531805267,3.147
0.0004684217014003456,3.148
-4.31767479439516e-05,3.149
0.0016945063755946187,3.15
0.006675792058043618,3.151
0.014634396631993354,3.152
0.024064939958899925,3.153
0.03269449727085798,3.154
0.038211588325265985,3.155
0.03892623968680435,3.156
0.03410920146031052,3.157
0.024031157553436103,3.158
0.009879604790315003,3.159
-0.00633384110219568,3.16
-0.021914839293885262,3.161
-0.03386780466421925,3.162
-0.039665589762583636,3.163
-0.038200610738913975,3.164
-0.030352551118124193,3.165
-0.018706304026480908,3.166
-0.0065296091212363235,3.167
0.0033623021997838715,3.168
0.009302082869202942,3.169
0.010958474864015421,3.17
0.009186324932296309,3.171
0.005652334451329069,3.172
0.002337923594813832,3.173
0.0010066178192443946,3.174
0.002720322201656783,3.175
0.007553297883681298,3.176
0.014604326462678003,3.177
0.022275400540922894,3.178
0.0287029056124851,3.179
0.03213692300342223,3.18
0.031155927270496285,3.181
0.02488088039266496,3.182
0.013306461049845793,3.183
-0.002402863286463719,3.184
-0.019903748007461745,3.185
-0.03616365032066888,3.186
-0.0483636946552554,3.187
-0.054749480191427106,3.188
-0.05500981507350606,3.189
-0.05011021645311357,3.19
-0.0417835518095086,3.191
-0.03199447317811484,3.192
-0.0225837638688919,3.193
-0.01500283283915887,3.194
-0.009921706854610085,3.195
-0.0067310729495065,3.196
-0.003246278125849338,3.197
0.0040251977179070544,3.198
0.018876391323838795,3.199
0.04381615492616746,3.2
0.0784040612410648,3.201
0.11820136944766815,3.202
0.15498680461195746,3.203
0.17852107813749482,3.204
0.17948043327756302,3.205
0.152423169438937,3.206
0.09756982570483451,3.207
0.02102648852981975,3.208
-0.06621976469174162,3.209
-0.15018372024308316,3.21
-0.21642005820414167,3.211
-0.2530225134880807,3.212
-0.25371571747906335,3.213
-0.22009734262951486,3.214
-0.16155118369585195,3.215
-0.09213563881793038,3.216
-0.02588904565502528,3.217
0.02696719865879667,3.218
0.061605427494369015,3.219
0.07816073239587065,3.22
0.08022231842042196,3.221
0.07318058135535642,3.222
0.06288732076061558,3.223
0.054647475087981366,3.224
0.05243240438990405,3.225
0.058229187773704665,3.226
0.07153313356340063,3.227
0.08917487213253886,3.228
0.10580678718834222,3.229
0.11518939338995374,3.23
0.11191320057785444,3.231
0.09285663837540074,3.232
0.05799484429024967,3.233
0.010648751895932758,3.234
-0.04277587682517292,3.235
-0.09368649124444037,3.236
-0.1328924267138048,3.237
-0.15282176213546386,3.238
-0.14998720518538888,3.239
-0.1265706693721394,3.24
-0.08977556173488395,3.241
-0.04896017064501717,3.242
-0.012264290992764043,3.243
0.015466978284703005,3.244
0.032923326231958254,3.245
0.0413321783508905,3.246
0.043095447110465604,3.247
0.0406733985251458,3.248
0.03600737743457728,3.249
0.030440296268017274,3.25
0.024864964466528347,3.251
0.019861845301977873,3.252
0.01576919139215387,3.253
0.012724307699871016,3.254
0.010690102245065352,3.255
0.009464063349349353,3.256
0.00869450569551665,3.257
0.007944286498775722,3.258
0.0068026031863668655,3.259
0.004997022669513003,3.26
0.0024559508824684513,3.261
-0.0006841272400044552,3.262
-0.004110602809117863,3.263
-0.007420490211975825,3.264
-0.010254023224342322,3.265
-0.012398937960090076,3.266
-0.013820913410983274,3.267
-0.014643376554070664,3.268
-0.015017396657837613,3.269
-0.014872799087352763,3.27
-0.013858975480865099,3.271
-0.011707042313230363,3.272
-0.00867066912229479,3.273
-0.005521751452826891,3.274
-0.003066591289848806,3.275
-0.0016377862718945859,3.276
-0.0009691820127443178,3.277
-0.0004497200143796159,3.278
0.0004904442858695748,3.279
0.0020729485660145514,3.28
0.0040866030901292325,3.281
0.006081680323727082,3.282
0.007728286630239429,3.283
0.009105717205914257,3.284
0.010759317179728353,3.285
0.013532779722245522,3.286
0.01827564638521426,3.287
0.02546806629290912,3.288
0.03474943160671543,3.289
0.04454021754463958,3.29
0.05219899654606074,3.291
0.0548145555527208,3.292
0.05002764641501902,3.293
0.036366307854198573,3.294
0.013402251993707008,3.295
-0.017754431612680702,3.296
-0.053748537341948496,3.297
-0.08879494714251747,3.298
-0.11578386872982341,3.299
-0.12868865889961179,3.3
-0.12502679804101252,3.301
-0.10659975215486085,3.302
-0.07792248593768586,3.303
-0.04366090660065317,3.304
-0.0069547122955396275,3.305
0.030623414546329553,3.306
0.06800984308406556,3.307
0.10345498147607947,3.308
0.13384681533149229,3.309
0.15476623163610084,3.31
0.16128681289678887,3.311
0.149399310739696,3.312
0.11769405998698647,3.313
0.06862883628724038,3.314
0.00857396341995624,3.315
-0.053600976858365956,3.316
-0.10860549308644046,3.317
-0.14848908162126057,3.318
-0.16786875684678076,3.319
-0.16488657882786362,3.32
-0.14176694475718374,3.321
-0.10431038127051036,3.322
-0.06011562011469799,3.323
-0.01638515086244102,3.324
0.02163384805722213,3.325
0.05119526115919702,3.326
0.07172098631879592,3.327
0.08391556756585512,3.328
0.08880439623000337,3.329
0.08717312012640545,3.33
0.07957836624529603,3.331
0.06665948793449442,3.332
0.049381400788962644,3.333
0.029119814754806662,3.334
0.007696549200301751,3.335
-0.012599956689938489,3.336
-0.029156105960668494,3.337
-0.039557798879819105,3.338
-0.04254625913804019,3.339
-0.038891384528592685,3.34
-0.03125009244404888,3.341
-0.0228487738567574,3.342
-0.01599363959961881,3.343
-0.011400439137530671,3.344
-0.0085506722386472,3.345
-0.006590600377770106,3.346
-0.005010061546613218,3.347
-0.0037548411513451166,3.348
-0.0030145987111327645,3.349
-0.00298956204974651,3.35
-0.003700246177280922,3.351
-0.004840853880897308,3.352
-0.0057501526604873026,3.353
-0.005548820832717072,3.354
-0.003372010191828618,3.355
0.0014593903102610127,3.356
0.009371183489173244,3.357
0.02040769866233935,3.358
0.0339405263817702,3.359
0.0483722647391303,3.36
0.06110908577411527,3.361
0.06899508830559223,3.362
0.06913364307473605,3.363
0.05972617292976619,3.364
0.04061016095930095,3.365
0.013398551337491516,3.366
-0.01879729480224931,3.367
-0.05189973490619305,3.368
-0.08136193298078953,3.369
-0.10273677677998735,3.37
-0.1126781117897596,3.371
-0.11004270307812136,3.372
-0.09629088485354953,3.373
-0.0750714964106931,3.374
-0.05132671332923458,3.375
-0.029991816741968484,3.376
-0.014556753394777728,3.377
-0.006059146377241201,3.378
-0.0027986901830505577,3.379
-0.0007646376814187093,3.38
0.005356877290719319,3.381
0.020831094043854935,3.382
0.049346736679077144,3.383
0.09145595708023395,3.384
0.14343539805108027,3.385
0.19721459562493146,3.386
0.24154446620513986,3.387
0.26401634285307624,3.388
0.2536687560856968,3.389
0.20414528110441874,3.39
0.11675268969020235,3.391
0.0018412520622914125,3.392
-0.12285798893920363,3.393
-0.2366479914184538,3.394
-0.32101444422161657,3.395
-0.36343062023965456,3.396
-0.3593396042187704,3.397
-0.3128426981965627,3.398
-0.23581223680496183,3.399
-0.14445818831277085,3.4
-0.05407897781934237,3.401
0.025062595980150353,3.402
0.08871580237364736,3.403
0.13705884921791964,3.404
0.1720803224770776,3.405
0.19513180027082416,3.406
0.2055994569169813,3.407
0.2012222259251897,3.408
0.17969674347109643,3.409
0.14053624119429323,3.41
0.08637086371767001,3.411
0.02337464062276597,3.412
-0.039460500271556245,3.413
-0.09239947481404082,3.414
-0.12775191777571024,3.415
-0.1418888953588752,3.416
-0.13546780028430858,3.417
-0.11233121396034494,3.418
-0.07825620835594863,3.419
-0.0399629702575561,3.42
-0.003942077750023949,3.421
0.025016691326942925,3.422
0.04490976401302659,3.423
0.05657262956993487,3.424
0.0627488523683935,3.425
0.0666352419974155,3.426
0.07044906819149752,3.427
0.07456562888879192,3.428
0.07763109538427253,3.429
0.07756256077129912,3.43
0.07259915022660901,3.431
0.06162818082193581,3.432
0.04406095470144,3.433
0.01997675060678431,3.434
-0.009352251514113598,3.435
-0.041087039769959206,3.436
-0.07129658511050951,3.437
-0.09631862714617612,3.438
-0.11384627141836877,3.439
-0.12263844440305428,3.44
-0.12156154606962513,3.441
-0.10955204879413347,3.442
-0.08668332334103536,3.443
-0.055181707043310636,3.444
-0.019407301770009242,3.445
0.015282474194873797,3.446
0.0440296315627366,3.447
0.06358425781322946,3.448
0.07289878695122792,3.449
0.07321209914624875,3.45
0.06744047731738526,3.451
0.05889284005913484,3.452
0.049771389025318136,3.453
0.0402295532631068,3.454
0.02861063767354209,3.455
0.012745512078137552,3.456
-0.00849488687698191,3.457
-0.034103338447382524,3.458
-0.06052831263641375,3.459
-0.0821166119015812,3.46
-0.092685647947018,3.461
-0.08776105268296261,3.462
-0.06605307657732136,3.463
-0.029576523987169576,3.464
0.016871937541166924,3.465
0.06663024139118628,3.466
0.11257214623216086,3.467
0.1484273265264894,3.468
0.16955160134106492,3.469
0.17302474460297265,3.47
0.1571852975498836,3.471
0.12148722162144186,3.472
0.06734440631105858,3.473
-0.00092709328078378,3.474
-0.07608139217641254,3.475
-0.1485682833394103,3.476
-0.20762807480622397,3.477
-0.24325431732084113,3.478
-0.24892374503039474,3.479
-0.22432760326970475,3.48
-0.1764299319634658,3.481
-0.11716693256958527,3.482
-0.05873274654079031,3.483
-0.00948264233929825,3.484
0.027700055781891,3.485
0.05481152361534818,3.486
0.07693252252323686,3.487
0.09994076033298116,3.488
0.1280787812755224,3.489
0.16206686463659117,3.49
0.1986984780292636,3.491
0.2319361278416467,3.492
0.2545060465252787,3.493
0.25943864055032423,3.494
0.24174761277350068,3.495
0.1999116546708423,3.496
0.13629129107642096,3.497
0.05625894236171309,3.498
-0.03327759795577304,3.499
-0.12496226227439126,3.5
-0.21117080260628313,3.501
-0.28382934157880024,3.502
-0.334849817163445,3.503
-0.35733918082807276,3.504
-0.3470742830989356,3.505
-0.30411486189374515,3.506
-0.23422251153912083,3.507
-0.14840880802853543,3.508
-0.05963904031246804,3.509
0.02119770061753361,3.51
0.0873452855120644,3.511
0.13599346249657882,3.512
0.16708404049600328,3.513
0.18209130601910756,3.514
0.18308699817164945,3.515
0.17211888506224352,3.516
0.15095118720141337,3.517
0.12108218908433746,3.518
0.0839279600033498,3.519
0.04127134881935831,3.52
-0.004018344721868221,3.521
-0.04746969531243682,3.522
-0.08324678644964895,3.523
-0.10530291360444444,3.524
-0.1092798438470918,3.525
-0.09432941860006142,3.526
-0.06369678904223706,3.527
-0.023878799608590354,3.528
