VaMe,time
-0.0006989502307020703,0.001
0.004833658366651185,0.002
0.009625961710675068,0.003
0.013051299976451583,0.004
0.014724104762487217,0.005
0.01457706886847406,0.006
0.012852873479822311,0.007
0.010013976357490682,0.008
0.006617798323838318,0.009
0.003220574153114391,0.01
0.0003056485474133315,0.011
-0.0017883020332612862,0.012
-0.0029128233912138406,0.013
-0.003102818614883224,0.014
-0.0025407268790900686,0.015
-0.0015257047147845208,0.016
-0.00042354945879459396,0.017
0.00044315488542386353,0.018
0.0009215019584049542,0.019
0.0010863155220058247,0.02
0.0012041420895814706,0.021
0.0016244318797825718,0.022
0.002631085846797625,0.023
0.004299344598642221,0.024
0.00638957247600241,0.025
0.008314264952428103,0.026
0.009246002907941116,0.027
0.008375148090210838,0.028
0.005216542071539587,0.029
-0.00017471409753255226,0.03
-0.007177871147456035,0.031
-0.014724445618337516,0.032
-0.02143106649466867,0.033
-0.025791001084855596,0.034
-0.02657773132426784,0.035
-0.023374278517850157,0.036
-0.01684598222862182,0.037
-0.008490557097619474,0.038
-6.635415080676432e-05,0.039
0.006918241034968073,0.04
0.011517661931228386,0.041
0.013474286616859682,0.042
0.013152342322462039,0.043
0.011346665277430959,0.044
0.009060001291054717,0.045
0.0072716914989891645,0.046
0.00670439068571019,0.047
0.007639714854421072,0.048
0.009836636334086175,0.049
0.012553591339204513,0.05
0.014658860750361082,0.051
0.01487782669210436,0.052
0.012208574560356365,0.053
0.006382843689893165,0.054
-0.0018449518237061908,0.055
-0.010780530384860489,0.056
-0.01831987044520787,0.057
-0.022741145859623,0.058
-0.023335841180139413,0.059
-0.020490167630967338,0.06
-0.015240341791278363,0.061
-0.008748344640413295,0.062
-0.002047472374662057,0.063
0.004001795352801526,0.064
0.00873295397034234,0.065
0.011719522809865535,0.066
0.012815000368821102,0.067
0.012141978570170691,0.068
0.010001474195245386,0.069
0.006764857293706982,0.07
0.002837866177193634,0.071
-0.0013097434472955447,0.072
-0.005119141076984279,0.073
-0.00797454280460447,0.074
-0.00933064102779054,0.075
-0.008943783484600898,0.076
-0.007071026019262935,0.077
-0.004405049076367225,0.078
-0.0017308740954342793,0.079
0.00041446729103473414,0.08
0.0018511699539274155,0.081
0.0026674675794712247,0.082
0.0030630630770754493,0.083
0.003212630156575201,0.084
0.0032010108191245267,0.085
0.003036930228939622,0.086
0.002704489561834762,0.087
0.0022121265116008437,0.088
0.0016165763801035634,0.089
0.0010069644144008948,0.09
0.00045831232395408003,0.091
-3.1884750144586186e-06,0.092
-0.000393130611770429,0.093
-0.0007403726932033297,0.094
-0.0010665990987275657,0.095
-0.001373807911409426,0.096
-0.0016377119104671637,0.097
-0.0018180800403937486,0.098
-0.00187877707248984,0.099
-0.001795248327115663,0.1
-0.0015549926372057424,0.101
-0.0011654996864160867,0.102
-0.0006609852304513953,0.103
-0.0001058712638006606,0.104
0.0004042643816727776,0.105
0.0007654302163733685,0.106
0.0009149982421309152,0.107
0.0008626492163066355,0.108
0.0006644017417210252,0.109
0.0003635625134165677,0.11
-5.64902572050604e-05,0.111
-0.0006695501054001904,0.112
-0.0015234205576069506,0.113
-0.0025091806477002794,0.114
-0.0032838868155965176,0.115
-0.0033363301918576003,0.116
-0.0021949465509562773,0.117
0.0003381060698274633,0.118
0.004064477131935499,0.119
0.008416340434869218,0.12
0.012584432938066268,0.121
0.015679652119892574,0.122
0.01686022282468123,0.123
0.015419249815396297,0.124
0.010922427030522269,0.125
0.003461684154729319,0.126
-0.006094298525272038,0.127
-0.016121955152293744,0.128
-0.024679818016271164,0.129
-0.030172283550291133,0.13
-0.03180997054794304,0.131
-0.029581188517381618,0.132
-0.023952362511932578,0.133
-0.01572876650450736,0.134
-0.006112113743275881,0.135
0.0033798338369305245,0.136
0.011322520575369524,0.137
0.01689113013347683,0.138
0.020064028553435857,0.139
0.021409491437588964,0.14
0.02166073112193237,0.141
0.021343607293733784,0.142
0.02062703464306619,0.143
0.01939428800319884,0.144
0.01739932844954905,0.145
0.014368677995705398,0.146
0.010047716504421714,0.147
0.004324898443108924,0.148
-0.0025299689832579586,0.149
-0.009696098517889308,0.15
-0.01593589396769049,0.151
-0.02004902365275814,0.152
-0.021395204102651822,0.153
-0.020219150518262553,0.154
-0.017595159517584183,0.155
-0.014896710065429647,0.156
-0.013045500244886096,0.157
-0.01206699112737531,0.158
-0.011212505706542043,0.159
-0.009491999874592231,0.16
-0.006268860289300758,0.161
-0.001570374888429252,0.162
0.004008740790260387,0.163
0.009623802392453511,0.164
0.014431560082432631,0.165
0.017677306159080728,0.166
0.01875529230062266,0.167
0.017382415322993706,0.168
0.013807250190009676,0.169
0.00881685366267105,0.17
0.0034624901793537345,0.171
-0.0012809312830701814,0.172
-0.004711287492682258,0.173
-0.006477552850938309,0.174
-0.006622759814360747,0.175
-0.005540772792957633,0.176
-0.003799167802444982,0.177
-0.0019431423299512102,0.178
-0.00039777384833388093,0.179
0.0005672819245239035,0.18
0.0008623589132385291,0.181
0.0005706356796988562,0.182
-0.00010413399895575401,0.183
-0.0009122316890099953,0.184
-0.0016237681626473425,0.185
-0.0020731053745215804,0.186
-0.002187500463284265,0.187
-0.00199253322825514,0.188
-0.0015743260144990298,0.189
-0.0010079575265806438,0.19
-0.00032049645648069025,0.191
0.0004522163340029933,0.192
0.0011834054941519414,0.193
0.0016807062607252885,0.194
0.00181022350504646,0.195
0.0015768722117157393,0.196
0.0010968683337207281,0.197
0.0005188347291436513,0.198
-4.9621755732694365e-05,0.199
-0.0005830511617791673,0.2
-0.0011183728450217634,0.201
-0.0016748410811140162,0.202
-0.002180346862026982,0.203
-0.0024681889973629254,0.204
-0.002334239902452836,0.205
-0.0016084934387068026,0.206
-0.0002036988828348715,0.207
0.0018691308600370712,0.208
0.004477115418485633,0.209
0.007294574932518866,0.21
0.009737146084322527,0.211
0.011015860237350893,0.212
0.010369096439541385,0.213
0.007398752598854256,0.214
0.0023303600843813687,0.215
-0.003985222085861202,0.216
-0.01035337123503361,0.217
-0.015599837724677436,0.218
-0.018806026449117743,0.219
-0.01942165029076562,0.22
-0.01736852790392764,0.221
-0.013125731756948556,0.222
-0.007643677140694482,0.223
-0.0020239046885029096,0.224
0.002840297620463179,0.225
0.006436097489941373,0.226
0.008628911666451008,0.227
0.009593748121910358,0.228
0.009688094884290914,0.229
0.00927077980216613,0.23
0.008541703483438242,0.231
0.0074711373633808776,0.232
0.005855130540321396,0.233
0.0035006651081615644,0.234
0.00043834432241700283,0.235
-0.003002494141464942,0.236
-0.006258106834341477,0.237
-0.008599625166817263,0.238
-0.009237717238078239,0.239
-0.007626320302710809,0.24
-0.0039065067835941224,0.241
0.0008967335483300078,0.242
0.005249179698009226,0.243
0.007851756889598318,0.244
0.008194901323525532,0.245
0.006597437641006158,0.246
0.0038718907352359743,0.247
0.0009406908525147799,0.248
-0.0014540830239421936,0.249
-0.0029420676234344126,0.25
-0.0035670820324316065,0.251
-0.003674015177953231,0.252
-0.003713160377840528,0.253
-0.004026786731560378,0.254
-0.00468364388267814,0.255
-0.005436737601784491,0.256
-0.005817201350767159,0.257
-0.005278410548092305,0.258
-0.0033174641442588913,0.259
0.0003858935190654795,0.26
0.005788282762123216,0.261
0.012366666391770439,0.262
0.019178888284332084,0.263
0.02507659810701279,0.264
0.028916617791875404,0.265
0.02965782823318931,0.266
0.02644749114460123,0.267
0.01887003452371529,0.268
0.0073059414987189965,0.269
-0.006867599780062741,0.27
-0.02143793924579611,0.271
-0.033907960707089825,0.272
-0.042312024185692944,0.273
-0.04584650186373024,0.274
-0.044769787447725064,0.275
-0.039744708479908596,0.276
-0.031449445088768214,0.277
-0.020769150845125213,0.278
-0.0090242861465585,0.279
0.002224095702809412,0.28
0.011604475368955482,0.281
0.01824282176819813,0.282
0.021873028939036976,0.283
0.02278421483382769,0.284
0.021623611388564074,0.285
0.019152699800654042,0.286
0.01606013199183266,0.287
0.012868126499552353,0.288
0.009926223683911863,0.289
0.007446041195493022,0.29
0.005524305372579354,0.291
0.004151166815487594,0.292
0.003224194853083733,0.293
0.0025600944254537314,0.294
0.0019072027192402175,0.295
0.0010011415514930412,0.296
-0.0003280171617533514,0.297
-0.0020569793806023747,0.298
-0.003939804024013773,0.299
-0.005572955180245225,0.3
-0.006531544626181829,0.301
-0.006505424457883963,0.302
-0.005391013491723021,0.303
-0.0033418845898991983,0.304
-0.0007602869350444458,0.305
0.001798320866759347,0.306
0.0037844967085571865,0.307
0.004809304294295603,0.308
0.004725650161296122,0.309
0.0036249861071076823,0.31
0.0017873903293851164,0.311
-0.00039347254054030833,0.312
-0.0025012464348241094,0.313
-0.0041863419926610685,0.314
-0.0052320294622041985,0.315
-0.0055695609832026325,0.316
-0.005240927407321793,0.317
-0.004355861771215491,0.318
-0.0030803133165495144,0.319
-0.0016364456799372927,0.32
-0.00028565115879194644,0.321
0.0007105672504599375,0.322
0.0011416093159704855,0.323
0.0008832934400616383,0.324
-8.916462214352344e-05,0.325
-0.0016929831474306143,0.326
-0.0037399748888681944,0.327
-0.00595473082187766,0.328
-0.007988242768130949,0.329
-0.00942819029617957,0.33
-0.009829435162507713,0.331
-0.008786166675790649,0.332
-0.006083764246778896,0.333
-0.0019021838602008311,0.334
0.0031022893201294245,0.335
0.007957894239839836,0.336
0.011668636505344695,0.337
0.013463797308935396,0.338
0.012954800590044486,0.339
0.010225467885343268,0.34
0.005885319570499031,0.341
0.0010524720999433416,0.342
-0.002832523958423851,0.343
-0.004377866680263632,0.344
-0.00266838597339092,0.345
0.0023684460753982226,0.346
0.00974622076839554,0.347
0.017560674631544752,0.348
0.02358809004134849,0.349
0.025993647576363955,0.35
0.023712905089826194,0.351
0.016507979604405934,0.352
0.0049805301261148785,0.353
-0.009338347617533488,0.354
-0.024000605784342724,0.355
-0.03604447904264963,0.356
-0.04286754247064469,0.357
-0.043200114866704005,0.358
-0.0375153131004949,0.359
-0.02760699601550568,0.36
-0.01578750897435172,0.361
-0.004246279689060359,0.362
0.005324484939273663,0.363
0.011932793157353285,0.364
0.015332154870625354,0.365
0.015897954328178757,0.366
0.014399698064121556,0.367
0.01177011304870201,0.368
0.008915328185038946,0.369
0.006557989041240697,0.37
0.005129855606413651,0.371
0.00474046115648054,0.372
0.0052115748093952245,0.373
0.006161803475261537,0.374
0.007126236670228522,0.375
0.007674356857337349,0.376
0.007503490776824365,0.377
0.006505141979881048,0.378
0.004783557384592711,0.379
0.002611129343941395,0.38
0.0003372126099586756,0.381
-0.0017170862123819617,0.382
-0.0033295127831318473,0.383
-0.004386752973900243,0.384
-0.004872280461529411,0.385
-0.00486473433736073,0.386
-0.004525440137226835,0.387
-0.004055002698929189,0.388
-0.0036350078081091963,0.389
-0.003381985211601229,0.39
-0.0033287392074788564,0.391
-0.003433231866683201,0.392
-0.0036013850077013217,0.393
-0.0037140500142052867,0.394
-0.0036619344144043706,0.395
-0.0033772334626355873,0.396
-0.0028358281352392867,0.397
-0.002032059291263489,0.398
-0.0009595507191662395,0.399
0.00037479733605725533,0.4
0.0019122173034183576,0.401
0.003514762112035196,0.402
0.004966067946509529,0.403
0.006001716702864844,0.404
0.006384228570153061,0.405
0.005996187047293275,0.406
0.004878671351719982,0.407
0.0031925799904098722,0.408
0.0011478528117418003,0.409
-0.0010468921509429925,0.41
-0.0031984479953764177,0.411
-0.005120232103286241,0.412
-0.006601575289828727,0.413
-0.00737851490194236,0.414
-0.0071808243865106505,0.415
-0.005867360369480971,0.416
-0.003549151343574666,0.417
-0.0006109693286557572,0.418
0.002380630851371373,0.419
0.004847174819553572,0.42
0.006373409534903304,0.421
0.006809026322616146,0.422
0.006256580467127787,0.423
0.0049564841141340205,0.424
0.003141614388668389,0.425
0.0009737643634201229,0.426
-0.0013960126389810567,0.427
-0.003738014984176349,0.428
-0.005735985163204746,0.429
-0.007070601130148575,0.43
-0.007538579349383472,0.431
-0.007121896778450399,0.432
-0.005943496208332839,0.433
-0.004148058286737931,0.434
-0.0018255227510251147,0.435
0.0009330971044038179,0.436
0.003904535471474103,0.437
0.006687335451642764,0.438
0.008792001249418443,0.439
0.009769864281535576,0.44
0.009306705466681916,0.441
0.007302567592321407,0.442
0.003951111548984377,0.443
-0.00024153543967719168,0.444
-0.0045397588635389015,0.445
-0.008120468457656667,0.446
-0.01024553237501554,0.447
-0.010487263701007119,0.448
-0.008935058513659016,0.449
-0.006200929320341593,0.45
-0.0031534239948091164,0.451
-0.0005533046259968045,0.452
0.001171610349075018,0.453
0.0019648947800963773,0.454
0.0020777353135162067,0.455
0.0019384927823239309,0.456
0.0019809818680232663,0.457
0.0024962674669135503,0.458
0.0035495607600692543,0.459
0.004971705335350028,0.46
0.006419132499804714,0.461
0.007471964301440493,0.462
0.007730727915264952,0.463
0.006896966764324215,0.464
0.004851337802794894,0.465
0.001723438520500068,0.466
-0.002085770046634978,0.467
-0.005951869289785068,0.468
-0.009141651840840948,0.469
-0.010985869855510267,0.47
-0.011068478389390025,0.471
-0.00934271348041094,0.472
-0.0061115288279677575,0.473
-0.0019061251247216647,0.474
0.002653972173383323,0.475
0.006966745723740239,0.476
0.01051541733464266,0.477
0.01290402430089181,0.478
0.013840026907357016,0.479
0.013070437967953001,0.48
0.010350821320353426,0.481
0.005541584783583677,0.482
-0.0011371167791129077,0.483
-0.00884850577832736,0.484
-0.016167030593039346,0.485
-0.02147075960127946,0.486
-0.023511283718460552,0.487
-0.021909529642218012,0.488
-0.017307549197136344,0.489
-0.011033495786015687,0.49
-0.004501618056045629,0.491
0.0012494280989696108,0.492
0.005690941397258635,0.493
0.00870079618165262,0.494
0.010398528592114193,0.495
0.011020115302489414,0.496
0.010839149191056588,0.497
0.01010866691469725,0.498
0.009012617396038933,0.499
0.007649713228591673,0.5
0.006064153812071349,0.501
0.004304988039191928,0.502
0.002498584586182919,0.503
0.000895515196681025,0.504
-0.0001799881030614821,0.505
-0.00048175323988594923,0.506
-3.417170052452315e-06,0.507
0.0009467373205366147,0.508
0.0018250539105186788,0.509
0.002089608821294149,0.51
0.0014653512058158515,0.511
5.775460060163546e-05,0.512
-0.0017370296789795858,0.513
-0.0034456960928013662,0.514
-0.004743008657903245,0.515
-0.005570331982760074,0.516
-0.006059353951791197,0.517
-0.006290696848923408,0.518
-0.006078585254986571,0.519
-0.005047660418579541,0.52
-0.003034464127200836,0.521
-0.0004056756963891255,0.522
0.0021052274707581906,0.523
0.0038579221566683156,0.524
0.004594158762109363,0.525
0.004423115001298062,0.526
0.003657847916743283,0.527
0.002629743962566587,0.528
0.0015530989727771099,0.529
0.0004945658137605042,0.53
-0.0005751479943799339,0.531
-0.0017148480043798155,0.532
-0.0029586559131387228,0.533
-0.004292941891533641,0.534
-0.005668897798000072,0.535
-0.007001205340886758,0.536
-0.008138181174810698,0.537
-0.008852224689786711,0.538
-0.008877612867559528,0.539
-0.007973810005832457,0.54
-0.005974054173762154,0.541
-0.0028248327229308786,0.542
0.001325386529758559,0.543
0.006007020833739367,0.544
0.010422339251576781,0.545
0.013652837685950268,0.546
0.015003047026466711,0.547
0.014284349489306921,0.548
0.011883316555756623,0.549
0.008586809741145974,0.55
0.005258267504813748,0.551
0.002531295963096734,0.552
0.0006567980123509551,0.553
-0.00046406867725946096,0.554
-0.001117751301695394,0.555
-0.0015986594175753308,0.556
-0.0021057286778262403,0.557
-0.002726401003954167,0.558
-0.0034735274925931955,0.559
-0.004328056400578236,0.56
-0.00524838122397772,0.561
-0.006155049874551393,0.562
-0.006922627631465471,0.563
-0.007389117637780697,0.564
-0.007377402817933772,0.565
-0.006734073733626713,0.566
-0.00540021188823608,0.567
-0.0034866174332586724,0.568
-0.0012887870769739418,0.569
0.0007803834751920943,0.57
0.002311975826037297,0.571
0.0030322348024358317,0.572
0.00288327900206353,0.573
0.002010936463551668,0.574
0.0006871661567475787,0.575
-0.000759287933358105,0.576
-0.0019811564116950816,0.577
-0.002668165026329384,0.578
-0.002634641004546576,0.579
-0.0018910987595834572,0.58
-0.0006520261011381281,0.581
0.0007405630453117474,0.582
0.0019388063924243603,0.583
0.002681487150134787,0.584
0.0028354012088662533,0.585
0.002403340600980374,0.586
0.0015087696751815527,0.587
0.00037480544914116217,0.588
-0.000687150970821365,0.589
-0.0013008133275262252,0.59
-0.00109009419141874,0.591
0.00022391289144499298,0.592
0.0027209486141441487,0.593
0.006188292677432195,0.594
0.010085063736179511,0.595
0.013644173926903081,0.596
0.016084103870552154,0.597
0.01678534322861179,0.598
0.015347224109635788,0.599
0.01159211567370721,0.6
0.005635052815799345,0.601
-0.0019761708400627,0.602
-0.010184045044847833,0.603
-0.017562626850970087,0.604
-0.022723595035621196,0.605
-0.024828181548996714,0.606
-0.023904118344458436,0.607
-0.020752201398639956,0.608
-0.01648199061226696,0.609
-0.011974694946062478,0.61
-0.007627227144477895,0.611
-0.003483463643010108,0.612
0.00046181277300967746,0.613
0.004073886686331889,0.614
0.0070960355401181695,0.615
0.009267877148073716,0.616
0.010423660186999065,0.617
0.010537864558621652,0.618
0.009729116340401568,0.619
0.00822732189184196,0.62
0.006328943153241442,0.621
0.0043723920096727445,0.622
0.0027003798280940345,0.623
0.0015602707709072962,0.624
0.00099850362852641,0.625
0.0008614748024049808,0.626
0.0009043589272337372,0.627
0.0009058428975265116,0.628
0.0007372951285402966,0.629
0.0003859945543198219,0.63
-8.056944196388618e-05,0.631
-0.0005898183633679002,0.632
-0.0011265667278838414,0.633
-0.00173861645695446,0.634
-0.002469717494008867,0.635
-0.003270457892014605,0.636
-0.003960993995537441,0.637
-0.004270919470844302,0.638
-0.003937359500556652,0.639
-0.002811843910956157,0.64
-0.0009157831569740297,0.641
0.0015839684465670109,0.642
0.0044339209323088985,0.643
0.00730715071857416,0.644
0.009777879963524775,0.645
0.011329189244681799,0.646
0.011424698080364153,0.647
0.009657058206154978,0.648
0.005959809355020486,0.649
0.0007712361343467396,0.65
-0.004992736352614127,0.651
-0.010197952761695684,0.652
-0.013880797922617493,0.653
-0.015570365247248698,0.654
-0.015372547788233475,0.655
-0.013793496035958488,0.656
-0.011438338735648675,0.657
-0.008757519946963423,0.658
-0.005949326952097074,0.659
-0.003031281001153996,0.66
4.916639105549507e-06,0.661
0.0030625159654532703,0.662
0.005882789118106102,0.663
0.008079393461331939,0.664
0.009277273276415504,0.665
0.009300284523434904,0.666
0.008277494368859925,0.667
0.006596786804544961,0.668
0.004750746997314344,0.669
0.003167425470631999,0.67
0.002093652408822932,0.671
0.001537045273100012,0.672
0.0012661665216877349,0.673
0.0009073809193954431,0.674
0.00012705268912928557,0.675
-0.0012000595190395243,0.676
-0.002916676092896009,0.677
-0.004622042773244642,0.678
-0.005816095597028506,0.679
-0.006096453771038666,0.68
-0.0053285487089382655,0.681
-0.0037323261564202763,0.682
-0.001832304356700194,0.683
-0.000247173358484602,0.684
0.0005723186103291833,0.685
0.0004808828394180088,0.686
-0.0003850772596533436,0.687
-0.0016931721641347448,0.688
-0.0030075092225910717,0.689
-0.003892500039752341,0.69
-0.003995636013823675,0.691
-0.0030792643083954884,0.692
-0.00102130229959148,0.693
0.0021959556021513087,0.694
0.006476218654692468,0.695
0.01153653117535738,0.696
0.016808795110911018,0.697
0.02140730873715624,0.698
0.024229341813047818,0.699
0.02421591718085698,0.7
0.020698039427311108,0.701
0.013656164742226121,0.702
0.003785266105700218,0.703
-0.007623614894115889,0.704
-0.01893867106470227,0.705
-0.028519761224732376,0.706
-0.03503242000330027,0.707
-0.03765207761792384,0.708
-0.036141228127213654,0.709
-0.030845473113959278,0.71
-0.02263831247998174,0.711
-0.01277483428299929,0.712
-0.0026423058777729513,0.713
0.006487410698403328,0.714
0.01363563603867394,0.715
0.0182392556878437,0.716
0.020180856134444536,0.717
0.019698869726143372,0.718
0.017244793386937424,0.719
0.013380923983484436,0.72
0.008748021467190033,0.721
0.004037704004343066,0.722
-0.00010249100902798826,0.723
-0.0032081877951797276,0.724
-0.005082166680520333,0.725
-0.005754077937041757,0.726
-0.0053473386138281264,0.727
-0.00396380906270346,0.728
-0.0016941331425661945,0.729
0.0012620628349107534,0.73
0.004508357690253011,0.731
0.007489357734333001,0.732
0.009619997316791175,0.733
0.010444196341490507,0.734
0.009783010472272386,0.735
0.007812373368354919,0.736
0.005005714782855891,0.737
0.0019514928401925982,0.738
-0.0008586182705635898,0.739
-0.003164794533409025,0.74
-0.0049430968738140586,0.741
-0.006299661428972865,0.742
-0.007344489679567471,0.743
-0.008125562820334829,0.744
-0.00861801010146166,0.745
-0.00872572298999528,0.746
-0.008297921287106626,0.747
-0.00718501388006776,0.748
-0.005329845943780022,0.749
-0.002855159274540053,0.75
-8.558422876588686e-05,0.751
0.0025298430568475435,0.752
0.004558120615237795,0.753
0.005708916550784264,0.754
0.005895128313475303,0.755
0.005225144916248208,0.756
0.003945270734105638,0.757
0.002357224130885913,0.758
0.0007440780453723849,0.759
-0.000676950253467713,0.76
-0.001772975991181578,0.761
-0.002489974068074736,0.762
-0.0028323143665195945,0.763
-0.0028345024145271184,0.764
-0.002545293541165893,0.765
-0.0020401632485195016,0.766
-0.0014369773206728018,0.767
-0.0008809694998317292,0.768
-0.0004991897591694071,0.769
-0.0003507771337551245,0.77
-0.0004098409494838565,0.771
-0.0005978241783592116,0.772
-0.0008296380597012834,0.773
-0.0010343100117404546,0.774
-0.0011617921764173235,0.775
-0.0011897478885860156,0.776
-0.001115041790487145,0.777
-0.0009356562127664276,0.778
-0.000650623271072099,0.779
-0.0002704537441450905,0.78
0.00019303722115653535,0.781
0.0007590648559853787,0.782
0.0015046901767846964,0.783
0.002553829376012297,0.784
0.004008982885088936,0.785
0.005847800229851968,0.786
0.007857987400985398,0.787
0.009668268268408988,0.788
0.010848947008562032,0.789
0.011014241176879675,0.79
0.00988812356764144,0.791
0.00733677875036032,0.792
0.0033953758942950147,0.793
-0.0016978104400472466,0.794
-0.007481920292005317,0.795
-0.013304154911728372,0.796
-0.018421358827596393,0.797
-0.022141038818806406,0.798
-0.02394246111878858,0.799
-0.023546336255150145,0.8
-0.020904300699865142,0.801
-0.016122528764875264,0.802
-0.009439888040673222,0.803
-0.0013334495197296948,0.804
0.007363571417999821,0.805
0.01550547158485683,0.806
0.021879573083521616,0.807
0.02552774647772684,0.808
0.025986217793113005,0.809
0.02338008708350495,0.81
0.018372796007352504,0.811
0.011978620876830996,0.812
0.005293605586888812,0.813
-0.0007457412665030841,0.814
-0.005504542611794143,0.815
-0.008692056245357264,0.816
-0.010324947387316277,0.817
-0.010641235134366387,0.818
-0.00999784776620948,0.819
-0.008774670538484648,0.82
-0.007303481768188042,0.821
-0.005825837820322367,0.822
-0.004477350632653068,0.823
-0.003303693484516481,0.824
-0.002302543240174998,0.825
-0.0014613257155513414,0.826
-0.0007666803451171879,0.827
-0.0002029847912646272,0.828
0.0002241661018527605,0.829
0.0004532054014639167,0.83
0.0003817396761343448,0.831
-5.7952483398495417e-05,0.832
-0.0008145070413728455,0.833
-0.0016649001543757543,0.834
-0.0022213946146781164,0.835
-0.002016133409523925,0.836
-0.0006505271866788111,0.837
0.0020438578660057164,0.838
0.00591422453610462,0.839
0.010504200489585256,0.84
0.015125906947181826,0.841
0.01890896897770747,0.842
0.020849895171204478,0.843
0.01995747870737301,0.844
0.015518649470916423,0.845
0.007413881573292371,0.846
-0.003646355674216917,0.847
-0.01610767222267644,0.848
-0.027833222337589156,0.849
-0.03655945593060282,0.85
-0.040419635255375924,0.851
-0.03842633977677626,0.852
-0.030779192482245452,0.853
-0.01886264646092532,0.854
-0.004917400975638615,0.855
0.008504316048698229,0.856
0.019145805468703612,0.857
0.02553727038946482,0.858
0.027221385656240153,0.859
0.02470543837917904,0.86
0.01923828523960052,0.861
0.01247548017142495,0.862
0.006057094543625423,0.863
0.0011881997987958724,0.864
-0.0016153686662220953,0.865
-0.002515667494938828,0.866
-0.0021263182936007903,0.867
-0.0012055806402892035,0.868
-0.0003967602300529038,0.869
-9.709378914400036e-05,0.87
-0.0004390081055378268,0.871
-0.0013078390579295005,0.872
-0.002389640874721449,0.873
-0.003280897138410777,0.874
-0.00363448475129447,0.875
-0.003295432905771613,0.876
-0.0023753969369960104,0.877
-0.0012136991565504644,0.878
-0.000227477489051659,0.879
0.000280047871597999,0.88
0.0002494067846191795,0.881
-0.00013163272465825513,0.882
-0.000521207673364728,0.883
-0.0005530775107735532,0.884
3.231175191687423e-05,0.885
0.001294574744176761,0.886
0.0030668140981435004,0.887
0.0049910035425148325,0.888
0.006600900347900336,0.889
0.007421526001162566,0.89
0.0070532809872960065,0.891
0.005244544597426113,0.892
0.001956792548219661,0.893
-0.002590060717571536,0.894
-0.007897512825094198,0.895
-0.013224129873182104,0.896
-0.017707168462869224,0.897
-0.02053219696736609,0.898
-0.021109373181018187,0.899
-0.01922865814946193,0.9
-0.015109499644002936,0.901
-0.009290198280506324,0.902
-0.002435314525668984,0.903
0.004798377603530825,0.904
0.011772186468200206,0.905
0.01781307039980081,0.906
0.02220458341004808,0.907
0.024271373463803755,0.908
0.023536305945511416,0.909
0.019905090166190315,0.91
0.013804472913430482,0.911
0.006161330541319219,0.912
-0.0018097005370497172,0.913
-0.008898703998403423,0.914
-0.014131955816886118,0.915
-0.01688928733281264,0.916
-0.0169517057238651,0.917
-0.014526007790002562,0.918
-0.010219813890988852,0.919
-0.004912639320253908,0.92
0.00046412072898141684,0.921
0.005132903410788182,0.922
0.008566572607803021,0.923
0.010494306019407856,0.924
0.010878676254562321,0.925
0.009878124649812412,0.926
0.007802231974895697,0.927
0.005065515497519382,0.928
0.002112846208646634,0.929
-0.0006781873558126762,0.93
-0.0030621358256318924,0.931
-0.004930945859303,0.932
-0.006273641065284713,0.933
-0.007115265971350735,0.934
-0.007471810506748806,0.935
-0.0073433200249751595,0.936
-0.006735746730656828,0.937
-0.005684242992678805,0.938
-0.0042539952593948285,0.939
-0.0025329022219649187,0.94
-0.0006392263022848949,0.941
0.0012735451409165248,0.942
0.0030353554897514655,0.943
0.004481711942695664,0.944
0.0054521255239382916,0.945
0.00578856656669887,0.946
0.005383635791579395,0.947
0.004263769032983822,0.948
0.002625479034174531,0.949
0.0007793815986360924,0.95
-0.0009591195573709902,0.951
-0.0023744790791087726,0.952
-0.0034134385175665733,0.953
-0.0041764872904850965,0.954
-0.0048405044971823845,0.955
-0.005556322676382477,0.956
-0.006373535701884494,0.957
-0.0072356669536991925,0.958
-0.00804158984979533,0.959
-0.008691253361110495,0.96
-0.009059429091702789,0.961
-0.008944500044242206,0.962
-0.008051748592173606,0.963
-0.006033247680456916,0.964
-0.002609870978270584,0.965
0.0022394684193473924,0.966
0.008139439685163492,0.967
0.014350850131944232,0.968
0.01996273191458674,0.969
0.024140797291008553,0.97
0.02633474751068746,0.971
0.026382249030179886,0.972
0.02449567154171978,0.973
0.021136182802370583,0.974
0.0167813226979998,0.975
0.011688071643878055,0.976
0.005814689098007102,0.977
-0.0010499774392828927,0.978
-0.009026493594861712,0.979
-0.017877084940423258,0.98
-0.026840368878574373,0.981
-0.03463920215465381,0.982
-0.039712729949387494,0.983
-0.0406490165883243,0.984
-0.03668875570296255,0.985
-0.02812193717920608,0.986
-0.016369155608603782,0.987
-0.003608190175264512,0.988
0.007910634249305592,0.989
0.016485482477249316,0.99
0.0212877102865517,0.991
0.022400953632554205,0.992
0.02062744551869447,0.993
0.017136568129330784,0.994
0.013091833580975336,0.995
0.009381536502073653,0.996
0.006501393317690984,0.997
0.004561174956027419,0.998
0.003373517106343283,0.999
0.0025939287108799345,1.0
0.0018683387369440112,1.001
0.0009349012516363307,1.002
-0.00033656357693553836,1.003
-0.001932831635917388,1.004
-0.00369060081913212,1.005
-0.005318706837396012,1.006
-0.006472834376986953,1.007
-0.006856913627914381,1.008
-0.006303390567345462,1.009
-0.004821553519670485,1.01
-0.0026224507236399662,1.011
-0.00010912278813814878,1.012
0.002180060145872765,1.013
0.0036675060448838025,1.014
0.0038506287094487363,1.015
0.002424117552038217,1.016
-0.0005992517493487151,1.017
-0.004833522105983228,1.018
-0.00958380497846343,1.019
-0.01396270615333389,1.02
-0.01697215467498715,1.021
-0.017608459213976774,1.022
-0.015117902518711604,1.023
-0.009370815975077308,1.024
-0.0011043160718498216,1.025
0.008194171101361518,1.026
0.016722368322440933,1.027
0.02289247717334044,1.028
0.025753139670194027,1.029
0.025178967172243587,1.03
0.021787363450310702,1.031
0.016652991346399727,1.032
0.010966612547521081,1.033
0.005753564266208025,1.034
0.0016744162075058148,1.035
-0.0010780333918103996,1.036
-0.0027376396313179025,1.037
-0.0037849010189267185,1.038
-0.00471392937474451,1.039
-0.0058491047005753225,1.04
-0.007266646088953422,1.041
-0.008801974225797931,1.042
-0.010104861020694064,1.043
-0.010761955773893772,1.044
-0.010501134126641441,1.045
-0.009375499853949228,1.046
-0.007785452817009618,1.047
-0.006317571254363373,1.048
-0.005494310782895553,1.049
-0.0055523418387329136,1.05
-0.0063475325721270666,1.051
-0.0074222854090327025,1.052
-0.00817793810562598,1.053
-0.008049810229509971,1.054
-0.0066411142480262,1.055
-0.003836966112284104,1.056
0.0001145825508816911,1.057
0.004611570517581347,1.058
0.008832287904376531,1.059
0.011960443489509271,1.06
0.013408477235147941,1.061
0.01296330807676814,1.062
0.010821893885755003,1.063
0.007516338278928635,1.064
0.003759725399012095,1.065
0.0002513482273522541,1.066
-0.002503987209804843,1.067
-0.004287366700046081,1.068
-0.005136629227033901,1.069
-0.005244039741566866,1.07
-0.004843237886178334,1.071
-0.004112679335939499,1.072
-0.0031227438900030637,1.073
-0.0018527901698764534,1.074
-0.0002638647646877409,1.075
0.001621970184947614,1.076
0.0036898568120671805,1.077
0.005748561870501337,1.078
0.007556228061867535,1.079
0.008851930930423978,1.08
0.009397702238800779,1.081
0.0090218340645818,1.082
0.0076692494919220686,1.083
0.005456005643986571,1.084
0.0026864596361192354,1.085
-0.00020558990057148238,1.086
-0.002768627157267226,1.087
-0.004644469732285707,1.088
-0.005645384701980039,1.089
-0.005778005109577002,1.09
-0.00522189155659545,1.091
-0.00429606749283372,1.092
-0.003410317647802612,1.093
-0.002967569060162927,1.094
-0.0032332481416645297,1.095
-0.004241022283447675,1.096
-0.005793201634838156,1.097
-0.0075604927468033885,1.098
-0.009219234182412822,1.099
-0.01052130794941836,1.1
-0.011255760503984406,1.101
-0.011199785219983419,1.102
-0.010162617334863995,1.103
-0.008078050061160571,1.104
-0.005027217777727444,1.105
-0.0011689367930595247,1.106
0.003325062786923861,1.107
0.008239948308594739,1.108
0.013204481297332916,1.109
0.01760352090650315,1.11
0.020649605373403462,1.111
0.021634653928904145,1.112
0.0202160439437713,1.113
0.016567237785162135,1.114
0.011341149297403463,1.115
0.005482302490198558,1.116
-3.756803404815121e-05,1.117
-0.004461424662353835,1.118
-0.007395150366551528,1.119
-0.008832216553153374,1.12
-0.009071367699710448,1.121
-0.008589211832131311,1.122
-0.00791937707336664,1.123
-0.007557921608026042,1.124
-0.007876045620395037,1.125
-0.009014653502899903,1.126
-0.010802082955294685,1.127
-0.012760237789968711,1.128
-0.014200182324130393,1.129
-0.014364957596626511,1.13
-0.012601187784450449,1.131
-0.008568342254324467,1.132
-0.0024567487973845394,1.133
0.004903611119668056,1.134
0.012177479378422488,1.135
0.017899350420852937,1.136
0.02092730375533175,1.137
0.020772201560093035,1.138
0.017683326280250045,1.139
0.012510839394719147,1.14
0.006445528805387995,1.141
0.0007342134014530311,1.142
-0.0035672567239644322,1.143
-0.005768165993610259,1.144
-0.005618540338008548,1.145
-0.0033030694528008134,1.146
0.0005938043517544093,1.147
0.005134783136405708,1.148
0.0091246603500063,1.149
0.011296606143784835,1.15
0.010592721499182691,1.151
0.0064892598091044335,1.152
-0.0007275315385563184,1.153
-0.009877817628322658,1.154
-0.019114893431529167,1.155
-0.026423918152052358,1.156
-0.030207224878538157,1.157
-0.029720874525982835,1.158
-0.02517319598941442,1.159
-0.017493190824869442,1.16
-0.00798635261707231,1.161
0.0019277402733459243,1.162
0.010892347678123084,1.163
0.01778834917175417,1.164
0.02190984689438015,1.165
0.023067087783981657,1.166
0.021564172644475688,1.167
0.018063784295518498,1.168
0.013399736596034247,1.169
0.008399816123333922,1.17
0.003745351421760272,1.171
-0.00011988049608767571,1.172
-0.003007987876051154,1.173
-0.004938760329183128,1.174
-0.006066590142872504,1.175
-0.0066120903388274645,1.176
-0.006797944362993286,1.177
-0.006784599097797342,1.178
-0.006637129564370077,1.179
-0.006341096642569575,1.18
-0.005823279653859025,1.181
-0.004962715741258288,1.182
-0.0036404317216465407,1.183
-0.0018318292993301352,1.184
0.00033017158991970573,1.185
0.002578580312818926,1.186
0.004600948148535698,1.187
0.006120412871419923,1.188
0.0069332109457681205,1.189
0.006938538013388046,1.19
0.0061735140497974845,1.191
0.004806745778661202,1.192
0.00308427570103574,1.193
0.0012620658604114252,1.194
-0.00045540829190312355,1.195
-0.00194757978512062,1.196
-0.0031762332081855097,1.197
-0.004168571387470893,1.198
-0.0049932594616754165,1.199
-0.005731186277733235,1.2
-0.006443382405531696,1.201
-0.007144907764836739,1.202
-0.007786123942866282,1.203
-0.008238165288550637,1.204
-0.00830497113976435,1.205
-0.007777374551935066,1.206
-0.006500576147379576,1.207
-0.00441653904810922,1.208
-0.001579466906506165,1.209
0.0018255285521845848,1.21
0.005453044752822455,1.211
0.008812103572637847,1.212
0.011379038396602797,1.213
0.012761276225133211,1.214
0.012810365001259413,1.215
0.011652316134165466,1.216
0.009654438991372636,1.217
0.007309932081066487,1.218
0.005050748236764741,1.219
0.0031156029446546677,1.22
0.0015550588590162904,1.221
0.0002969674841687504,1.222
-0.0007980575979443077,1.223
-0.0018798990983532279,1.224
-0.003048516161977381,1.225
-0.00431222909366455,1.226
-0.005580907787548048,1.227
-0.006698402310472153,1.228
-0.007498829827920094,1.229
-0.007859109390654399,1.23
-0.007732761134417641,1.231
-0.007153494024968791,1.232
-0.006203395322393419,1.233
-0.004982832421863391,1.234
-0.0036147046908148787,1.235
-0.002246703973778533,1.236
-0.0010184830071179591,1.237
-2.5999089169096904e-05,1.238
0.0006875910431118058,1.239
0.0011280194307825855,1.24
0.0013458941180331367,1.241
0.0014203216959530443,1.242
0.0014263692173313984,1.243
0.0014154345595572345,1.244
0.0014281202609832688,1.245
0.0015113849986532616,1.246
0.0017039610084917292,1.247
0.0020050588178478312,1.248
0.0023678546621844153,1.249
0.0027258625987150223,1.25
0.003024375875827523,1.251
0.003232336845209166,1.252
0.003340250025012663,1.253
0.003348882762369075,1.254
0.0032431418933605623,1.255
0.0029757855253692853,1.256
0.0024915103990288804,1.257
0.0017780660669867983,1.258
0.0008988314694309295,1.259
-2.4879885647774604e-05,1.26
-0.0008693281171475206,1.261
-0.0015551302607325814,1.262
-0.002054287518676848,1.263
-0.0023744385573098875,1.264
-0.0025490993228304243,1.265
-0.0026368698183781673,1.266
-0.0027127860154898594,1.267
-0.002846492320619338,1.268
-0.0030875119305868648,1.269
-0.0034593660862734295,1.27
-0.003939941385410303,1.271
-0.004437473500145639,1.272
-0.0048009650592998835,1.273
-0.0048793039871176695,1.274
-0.004590404215173349,1.275
-0.003943771062137658,1.276
-0.003017145383887689,1.277
-0.0019295107183196838,1.278
-0.0008098545674288352,1.279
0.0002494405220516148,1.28
0.0012206970238927172,1.281
0.0021406554072937924,1.282
0.0031037930572667357,1.283
0.0042274292618745,1.284
0.005575383178156912,1.285
0.007095435502676431,1.286
0.00861162689042275,1.287
0.009861295595744344,1.288
0.010565374694720936,1.289
0.010515225316636997,1.29
0.009637109149567216,1.291
0.00799308483951913,1.292
0.005715526999954631,1.293
0.002926727016644603,1.294
-0.0003025014891360016,1.295
-0.003930734010624652,1.296
-0.007866039013361586,1.297
-0.011874914262288603,1.298
-0.01554230865633453,1.299
-0.01831786697635387,1.3
-0.019632782529916994,1.301
-0.019030631767955893,1.302
-0.016273166965128705,1.303
-0.011433499503455598,1.304
-0.004978864185106266,1.305
0.0022197900738037436,1.306
0.009021165896286966,1.307
0.014282360884335784,1.308
0.01716657921112376,1.309
0.017366908596015928,1.31
0.015160994128987032,1.311
0.011268515586065465,1.312
0.006588649993798641,1.313
0.0019740347992047067,1.314
-0.001896008989298841,1.315
-0.004593904071291263,1.316
-0.005987051514131486,1.317
-0.006201375367366426,1.318
-0.005515732077550128,1.319
-0.004269192685625782,1.32
-0.0028119357956407727,1.321
-0.0014582579418377785,1.322
-0.00042809738808697695,1.323
0.00019092901773664335,1.324
0.00042956127063113064,1.325
0.0003840108747015,1.326
0.00017071860342262932,1.327
-9.898892850079854e-05,1.328
-0.00033963087670002134,1.329
-0.0005011362440184963,1.33
-0.0005584692845540354,1.331
-0.0005025915295341747,1.332
-0.00034997601089679296,1.333
-0.0001478497232147985,1.334
4.376454449188616e-05,1.335
0.0001794264321644478,1.336
0.00024999308806642503,1.337
0.0002840585558105201,1.338
0.00031972296422212005,1.339
0.00037045273926060484,1.34
0.00041520418805166286,1.341
0.00041411704244648814,1.342
0.0003371879893056157,1.343
0.00018545283923609374,1.344
-1.8874193118483738e-05,1.345
-0.0002573176932479483,1.346
-0.0005107637063956174,1.347
-0.0007339073868050035,1.348
-0.0008589905409729058,1.349
-0.0008337969853488535,1.35
-0.0006511523459536914,1.351
-0.0003447459470598315,1.352
2.8220436004720254e-05,1.353
0.00039668635625444233,1.354
0.0006895559357984655,1.355
0.0008529645303353622,1.356
0.0008552669267466512,1.357
0.000690074106096058,1.358
0.00038586544618678424,1.359
3.706320304182586e-06,1.36
-0.0003855321573184336,1.361
-0.0007217514327684059,1.362
-0.0009590436805830868,1.363
-0.0010703680675664998,1.364
-0.0010608749837711815,1.365
-0.0009687625400608094,1.366
-0.0008489508477242667,1.367
-0.0007526342705980148,1.368
-0.0007069859270673293,1.369
-0.0007072443697427069,1.37
-0.0007330065963821917,1.371
-0.0007676603145962122,1.372
-0.0007962145478951269,1.373
-0.0007884862865641852,1.374
-0.0006938859977979059,1.375
-0.00046084973795074374,1.376
-6.548113399993104e-05,1.377
0.00047066729803168193,1.378
0.0010829684034999905,1.379
0.0016831370659388997,1.38
0.0021747500313252775,1.381
0.002453639742159559,1.382
0.00242149297956916,1.383
0.002038345221524811,1.384
0.0013710547172000886,1.385
0.0005751549054606363,1.386
-0.0001754556855267196,1.387
-0.0007530827960675111,1.388
-0.0011084578745034113,1.389
-0.0012766338328364464,1.39
-0.0013743188584532753,1.391
-0.0015787335395643436,1.392
-0.002050326116889755,1.393
-0.0028147714834595478,1.394
-0.003685445309312135,1.395
-0.004294048723921621,1.396
-0.00423561554594041,1.397
-0.00325990661030447,1.398
-0.0013957523243038647,1.399
0.0010592528128592832,1.4
0.003647345271447046,1.401
0.005867684840090327,1.402
0.007260124403497415,1.403
0.007484885947252782,1.404
0.006407016924974857,1.405
0.004132797494220554,1.406
0.0009826489001186958,1.407
-0.0025557500414300958,1.408
-0.0058877956926498025,1.409
-0.00841107364905594,1.41
-0.009643836943533261,1.411
-0.009331360406090177,1.412
-0.007491171691301261,1.413
-0.0044178076709129425,1.414
-0.0006604393638093767,1.415
0.0030718549591835756,1.416
0.0060817321779992745,1.417
0.007842116828211775,1.418
0.008084220421572818,1.419
0.006846137183901625,1.42
0.0044777268805097,1.421
0.001554119956120823,1.422
-0.0012816315321594438,1.423
-0.0034738931104013613,1.424
-0.00466030231952683,1.425
-0.004723687542587225,1.426
-0.0037968538951255277,1.427
-0.0022108517106365095,1.428
-0.0003897327859660231,1.429
0.0012718446864516228,1.43
0.002497303145301913,1.431
0.0031536700552271158,1.432
0.003233085489335438,1.433
0.00282383845438037,1.434
0.002078942392084102,1.435
0.0011760164892487956,1.436
0.0002744065041752992,1.437
-0.0005135432309074226,1.438
-0.001132736680608775,1.439
-0.0015865938723663825,1.44
-0.0019282619881285212,1.441
-0.0022234411137317532,1.442
-0.0024960510384162415,1.443
-0.002709069269435072,1.444
-0.0027936925518323155,1.445
-0.0026888641540119894,1.446
-0.0023724763244339555,1.447
-0.0018749039204338101,1.448
-0.0012611737556234223,1.449
-0.0006045997443817139,1.45
2.3418055311815253e-05,1.451
0.0005587745413528632,1.452
0.000957623469588283,1.453
0.0012093594217852351,1.454
0.001331035708474617,1.455
0.001346584400673619,1.456
0.0012785095382523597,1.457
0.0011534095638177596,1.458
0.0009989934223757256,1.459
0.0008315809450161147,1.46
0.000649906688489394,1.461
0.0004402170427381673,1.462
0.00018745330970774263,1.463
-0.000111681354544898,1.464
-0.0004401812685750027,1.465
-0.0007605385717246478,1.466
-0.0010105783016730115,1.467
-0.0011010833308551316,1.468
-0.0009537896689110109,1.469
-0.0005716054871942124,1.47
-6.868386713780982e-05,1.471
0.0003762458683904404,1.472
0.0006026493389550148,1.473
0.0005365206452168625,1.474
0.00022285701860642217,1.475
-0.0001942168431552289,1.476
-0.0005441581743324885,1.477
-0.0007143812103345282,1.478
-0.0006853509421662468,1.479
-0.000498673008702322,1.48
-0.00021965848977774144,1.481
6.543328970395592e-05,1.482
0.00027003603483740225,1.483
0.00035638688500324385,1.484
0.0003450077801885286,1.485
0.0002820415586138797,1.486
0.0002147105172561873,1.487
0.00018314487765477884,1.488
0.00021262484802293474,1.489
0.0003021044319653011,1.49
0.00042220191721147363,1.491
0.0005267347988605185,1.492
0.0005624493599160502,1.493
0.00048095917445869964,1.494
0.0002644572105432553,1.495
-5.859307665696142e-05,1.496
-0.0004282783392506556,1.497
-0.0007819194431455895,1.498
-0.0010785472082732869,1.499
-0.0013072479365924664,1.5
-0.0014741181595667103,1.501
-0.0015830023163527392,1.502
-0.0016262142752275655,1.503
-0.0015896397062516992,1.504
-0.0014651070665875814,1.505
-0.0012522366400230017,1.506
-0.0009468126938012958,1.507
-0.0005435373583109852,1.508
-6.901639533608202e-05,1.509
0.00039207969923333,1.51
0.0007202551338138108,1.511
0.000817715308350315,1.512
0.0006481999893912326,1.513
0.00023532110683321074,1.514
-0.00036309742954764783,1.515
-0.0010697464713287695,1.516
-0.0017827927934464802,1.517
-0.002368587273191168,1.518
-0.002662179672224829,1.519
-0.0024815388648542712,1.52
-0.0016709904394378082,1.521
-0.00018450170647807152,1.522
0.001817900862795564,1.523
0.003944272122943826,1.524
0.0056826605991109206,1.525
0.006593064289846776,1.526
0.006455869377521444,1.527
0.005322434798208316,1.528
0.0034747758412390986,1.529
0.0013163444348679245,1.53
-0.0007583218314108439,1.531
-0.002458300931256528,1.532
-0.0036343853102757,1.533
-0.004274957669526941,1.534
-0.004467269016510388,1.535
-0.004332832710190103,1.536
-0.003973186192934008,1.537
-0.0034537395586450165,1.538
-0.002812163934712141,1.539
-0.0020670528956291514,1.54
-0.0012354807232940609,1.541
-0.0003653027597255561,1.542
0.0004558782776917398,1.543
0.0011351565408827071,1.544
0.001617160181903384,1.545
0.0018944096383453238,1.546
0.001985185647214804,1.547
0.0019118692642271715,1.548
0.0016958156138078555,1.549
0.0013647470499412563,1.55
0.0009690578219880855,1.551
0.0005837133663698416,1.552
0.0002738651706537884,1.553
5.4320463475243436e-05,1.554
-0.000108525035725746,1.555
-0.00025784047746455586,1.556
-0.0004187951238990112,1.557
-0.0006000313262531525,1.558
-0.0008029509097269452,1.559
-0.0010277998843663792,1.56
-0.0012784472249708723,1.561
-0.0015609699034013762,1.562
-0.0018742425599880207,1.563
-0.002198192089383671,1.564
-0.00248677422211873,1.565
-0.002674531311831858,1.566
-0.002697227374213606,1.567
-0.0025111645152005157,1.568
-0.0021001739184913623,1.569
-0.0014744761413481655,1.57
-0.0006648973115332874,1.571
0.00028947456987962793,1.572
0.0013528236102721058,1.573
0.0024818641832061853,1.574
0.003591696167787869,1.575
0.004536032928275498,1.576
0.005129512190707241,1.577
0.005203562595391975,1.578
0.004673948136793107,1.579
0.003591749097391361,1.58
0.0021433015920393618,1.581
0.0005863815558730414,1.582
-0.0008338492600256128,1.583
-0.0019442746407883785,1.584
-0.0026873901542836635,1.585
-0.0031343432511199932,1.586
-0.003426764531222245,1.587
-0.0036774496695090204,1.588
-0.0039008178532849787,1.589
-0.004004514991006812,1.59
-0.003836075455680135,1.591
-0.003259718476687595,1.592
-0.002223986165681448,1.593
-0.0007963036772712839,1.594
0.0008361027719969108,1.595
0.002404714302193905,1.596
0.0036300898065427054,1.597
0.004289323325753421,1.598
0.004265724440472783,1.599
0.0035834352210916795,1.6
0.00240961006835723,1.601
0.0010091520702127641,1.602
-0.0003338124883519708,1.603
-0.001391204371471387,1.604
-0.0020365476408403327,1.605
-0.002263517006392501,1.606
-0.0021729753257256523,1.607
-0.0019202581363375046,1.608
-0.001648768078410879,1.609
-0.0014441693232643395,1.61
-0.0013229994970736763,1.611
-0.001251827726582477,1.612
-0.0011770215776365637,1.613
-0.0010527808144857665,1.614
-0.0008609346518931796,1.615
-0.0006012611560375615,1.616
-0.00027133188228621504,1.617
0.00011919266798001156,1.618
0.0005297058972545109,1.619
0.0009025153307233182,1.62
0.0011742797568177036,1.621
0.0012781925470151782,1.622
0.0011721998380463416,1.623
0.0008718743180439504,1.624
0.0004464192193979772,1.625
-1.0657066707935606e-05,1.626
-0.00041221622083021314,1.627
-0.0006983865508689046,1.628
-0.0008358302422751214,1.629
-0.0008087357929477877,1.63
-0.000624926994969167,1.631
-0.00032493175813346907,1.632
2.7969491828303862e-05,1.633
0.00036707591186687196,1.634
0.0006287082131768945,1.635
0.0007515136417158142,1.636
0.0006913170629441227,1.637
0.00044920332189364955,1.638
8.675526088395066e-05,1.639
-0.00028743237624712635,1.64
-0.0005541390512929326,1.641
-0.0006293902605186297,1.642
-0.0005009972717209363,1.643
-0.00023199133897200045,1.644
7.527818347758536e-05,1.645
0.0003296833128080388,1.646
0.0004814254661978397,1.647
0.0005184909493356918,1.648
0.0004451100712563115,1.649
0.00027231271547851327,1.65
3.2523777271970325e-05,1.651
-0.00021341840267033067,1.652
-0.0004040111595300578,1.653
-0.0005147333312207485,1.654
-0.000570007690806145,1.655
-0.0006218959464354933,1.656
-0.0007094789843462194,1.657
-0.0008333468497873459,1.658
-0.0009669401555994812,1.659
-0.0010752667179864323,1.66
-0.001116586886371014,1.661
-0.0010492825885230724,1.662
-0.0008500883905784438,1.663
-0.0005225414982194659,1.664
-9.875378973857939e-05,1.665
0.000358582412658908,1.666
0.0007676402814832209,1.667
0.0010492573169685205,1.668
0.0011391766355405206,1.669
0.0009883103205257076,1.67
0.0005625904865450749,1.671
-0.00014697016023300317,1.672
-0.0010989984543506187,1.673
-0.002169534192454091,1.674
-0.0031475848062354835,1.675
-0.003789908583357212,1.676
-0.003898747091179625,1.677
-0.003363131250220606,1.678
-0.002176247757799244,1.679
-0.0004659043522462418,1.68
0.0014934138480099592,1.681
0.0033403301692443463,1.682
0.004732039513112311,1.683
0.0054222245405028515,1.684
0.005297246741872952,1.685
0.004405061693868881,1.686
0.0029672126563816703,1.687
0.0013244596409035532,1.688
-0.00017977338627375624,1.689
-0.001307109346698781,1.69
-0.001965697680500785,1.691
-0.0021857590650230406,1.692
-0.002067532619269552,1.693
-0.0017389565453623166,1.694
-0.0013296723501272053,1.695
-0.0009479814952214853,1.696
-0.000658820129933953,1.697
-0.00047728166943500155,1.698
-0.00038347433294935837,1.699
-0.0003441472328534355,1.7
-0.00032848883078529856,1.701
-0.00031954842749275854,1.702
-0.0003255566182478706,1.703
-0.00038347479813836255,1.704
-0.0005369822320403936,1.705
-0.0007970546799342575,1.706
-0.0011252096444810018,1.707
-0.0014525500896051837,1.708
-0.0017074769588618672,1.709
-0.0018312897930032595,1.71
-0.001782452811386525,1.711
-0.0015431472435852172,1.712
-0.0011315024414593601,1.713
-0.0005982763544955391,1.714
-1.917476435887069e-06,1.715
0.0006054089155601681,1.716
0.0011654441018277323,1.717
0.0016123436122550505,1.718
0.0019006913149345202,1.719
0.0020223869386612344,1.72
0.001991053582833604,1.721
0.0018234425577930676,1.722
0.0015341888318696692,1.723
0.001137201288198478,1.724
0.0006536997173452522,1.725
0.00011807987932195842,1.726
-0.0004279450997267313,1.727
-0.0009400519019446026,1.728
-0.0013725139848810197,1.729
-0.0016887535180045129,1.73
-0.001872934655875282,1.731
-0.001928694049314561,1.732
-0.0018684108419872697,1.733
-0.0016995889893017728,1.734
-0.0014168296769937379,1.735
-0.0010118571505636897,1.736
-0.0004973546015862448,1.737
7.947134955760973e-05,1.738
0.000647399859613955,1.739
0.0011348338070977877,1.74
0.0014909723970227538,1.741
0.0016949427285185433,1.742
0.0017508609274228845,1.743
0.0016781133856828793,1.744
0.00149930420155509,1.745
0.0012271240167052132,1.746
0.00086807328026207,1.747
0.00044441559471342876,1.748
2.294416576479355e-06,1.749
-0.00041262684901165084,1.75
-0.0007804748068330306,1.751
-0.0010963336596393682,1.752
-0.0013407949374886461,1.753
-0.0014807688459668813,1.754
-0.001507382355947696,1.755
-0.001455677045759731,1.756
-0.0013757248481763035,1.757
-0.0012962091184871398,1.758
-0.0012151247052461594,1.759
-0.001110846787589285,1.76
-0.0009567371457005492,1.761
-0.0007304513252672208,1.762
-0.0004250394958919216,1.763
-6.812885123902753e-05,1.764
0.00026941961148104464,1.765
0.0004985833283840573,1.766
0.0005564552139802987,1.767
0.0004324486567134267,1.768
0.00016739752430887028,1.769
-0.00015896723751686475,1.77
-0.0004494558405910145,1.771
-0.0006216210972870468,1.772
-0.0006322473280135473,1.773
-0.0004812580885294377,1.774
-0.00020753836252746072,1.775
0.00011690678599962626,1.776
0.0004082322994943265,1.777
0.0006074796406231978,1.778
0.0007028900337889834,1.779
0.0007218493005412101,1.78
0.000708247516765611,1.781
0.0006991362135099298,1.782
0.0007069809461233644,1.783
0.0007126009331179543,1.784
0.0006700803686675322,1.785
0.0005271927503734142,1.786
0.00025801249391314374,1.787
-0.0001137930782502478,1.788
-0.0005228697977662013,1.789
-0.0008982609649020504,1.79
-0.0011929245111157098,1.791
-0.0013780272377119105,1.792
-0.0014250845948198209,1.793
-0.001309021453833874,1.794
-0.001025559918888714,1.795
-0.0006081453514441041,1.796
-0.00013447662113240524,1.797
0.00029228584056443716,1.798
0.0005818182992763608,1.799
0.000687192181121348,1.8
0.0006141813797799738,1.801
0.00041463171011742314,1.802
0.00016737861012986927,1.803
-4.875246901636589e-05,1.804
-0.00017742261635448952,1.805
-0.0001993420038095807,1.806
-0.0001396543644219371,1.807
-5.9626732291663656e-05,1.808
-3.24269616970979e-05,1.809
-0.00011741462396913351,1.81
-0.00034427622315971013,1.811
-0.0007040180028245683,1.812
-0.0011441617672085483,1.813
-0.001575692037205159,1.814
-0.0018891123539755,1.815
-0.001974386010115254,1.816
-0.0017564649859958263,1.817
-0.0012393153002898168,1.818
-0.0005171766055840653,1.819
0.00026318242293733635,1.82
0.0009543344118402055,1.821
0.001444398771603599,1.822
0.0016814481302785214,1.823
0.0016829868369019022,1.824
0.001515773813332033,1.825
0.0012566890923335055,1.826
0.0009624118962166828,1.827
0.0006615063094570164,1.828
0.0003642152600293223,1.829
7.785548235473736e-05,1.83
-0.0001809992938657424,1.831
-0.00037996622301012895,1.832
-0.0004767889158182481,1.833
-0.0004429514777231112,1.834
-0.0002873522629176441,1.835
-5.883451022453672e-05,1.836
0.0001679465250102767,1.837
0.0003116549584792421,1.838
0.00030962830698754525,1.839
0.0001432674988663076,1.84
-0.00015365258547319656,1.841
-0.0005095817607071132,1.842
-0.0008485102792712004,1.843
-0.0011243503514833555,1.844
-0.001324688600301977,1.845
-0.0014429077440425127,1.846
-0.0014614186688919246,1.847
-0.0013673353305927911,1.848
-0.0011727578932778128,1.849
-0.0009161745438974654,1.85
-0.000649050822501055,1.851
-0.00041844897899011746,1.852
-0.00025738142789524766,1.853
-0.00018481961258506622,1.854
-0.0002057845525056444,1.855
-0.0003062895408238723,1.856
-0.000444070908319074,1.857
-0.0005499930947151045,1.858
-0.0005553669527114211,1.859
-0.00042842279009770766,1.86
-0.0001896744997748228,1.861
0.00010739303631587639,1.862
0.00041136737179808087,1.863
0.0006831644375131672,1.864
0.0008834538841695599,1.865
0.0009756979053147057,1.866
0.0009426546491600262,1.867
0.00079053412255991,1.868
0.0005481751781488648,1.869
0.0002746113323053635,1.87
5.7724645445664734e-05,1.871
-1.2359834696806717e-05,1.872
0.0001149097493878309,1.873
0.00041690584679106074,1.874
0.000797897695768683,1.875
0.0011281480336847282,1.876
0.0012956622885163668,1.877
0.0012366413084392415,1.878
0.0009369271232139762,1.879
0.00042707123731163053,1.88
-0.00021532391108660643,1.881
-0.0008718144199295816,1.882
-0.0014136262463598616,1.883
-0.0017433251383208047,1.884
-0.0018250671536253467,1.885
-0.0016967285587886534,1.886
-0.0014564506163692165,1.887
-0.0012198335548242686,1.888
-0.0010691833189367768,1.889
-0.0010227693152527432,1.89
-0.0010377748683951579,1.891
-0.001041223285443438,1.892
-0.0009670269439899039,1.893
-0.0007819315131863759,1.894
-0.0004937562500991174,1.895
-0.0001400199869969596,1.896
0.0002252738709710637,1.897
0.0005325612246171214,1.898
0.000709430278730324,1.899
0.000714721346388745,1.9
0.0005614761636920362,1.901
0.00031102805562414166,1.902
5.091658991665323e-05,1.903
-0.0001324225677442332,1.904
-0.00018383573795416357,1.905
-0.0001039522155387931,1.906
4.935678822511771e-05,1.907
0.00019487108919884696,1.908
0.00027918997192084947,1.909
0.00029720028129957875,1.91
0.00026845769438530094,1.911
0.00021482945742330048,1.912
0.00015929494086791018,1.913
0.00011812285937452845,1.914
8.950665617818784e-05,1.915
6.19687452327198e-05,1.916
2.8911798974520396e-05,1.917
-1.1008697548618517e-05,1.918
-6.01190873332997e-05,1.919
-0.00012011284046917003,1.92
-0.00018838977942500345,1.921
-0.0002640437921775062,1.922
-0.0003506134427936767,1.923
-0.00044381967556202237,1.924
-0.0005246790454557535,1.925
-0.0005692988083304453,1.926
-0.0005581693502823795,1.927
-0.0004822261596068321,1.928
-0.00034791052495927467,1.929
-0.00016915272319883507,1.93
4.113799896865439e-05,1.931
0.0002598245635939495,1.932
0.0004413234790477231,1.933
0.000531899363453678,1.934
0.0005017675548211097,1.935
0.00036054586068613715,1.936
0.00014529431716624124,1.937
-9.744836800520002e-05,1.938
-0.0003251338039982047,1.939
-0.0005105889064647481,1.94
-0.0006463316261593315,1.941
-0.0007419192777434569,1.942
-0.0008229515138509745,1.943
-0.0009297375890757202,1.944
-0.0011054309342233238,1.945
-0.0013740940027712094,1.946
-0.001715471233472312,1.947
-0.00205195849634919,1.948
-0.0022714556153742398,1.949
-0.002274320082801291,1.95
-0.0020005167277170597,1.951
-0.001429744440405621,1.952
-0.0005856863486718876,1.953
0.0004553334765907633,1.954
0.0015747464233776777,1.955
0.002633275993565596,1.956
0.0034880229957041206,1.957
0.0040061487137184265,1.958
0.004079291266150675,1.959
0.0036523513438049523,1.96
0.002768823290668672,1.961
0.0015887082340216132,1.962
0.0003393442696306275,1.963
-0.0007658629227597032,1.964
-0.0015802194763693315,1.965
-0.0020416983679736192,1.966
-0.0021743432630128615,1.967
-0.0020669874856959337,1.968
-0.0018304800801179153,1.969
-0.0015592144018070392,1.97
-0.0013104689988764505,1.971
-0.0011012043189100127,1.972
-0.0009212331125487398,1.973
-0.0007509785639937811,1.974
-0.0005707156291974047,1.975
-0.0003616059332273527,1.976
-0.000108299438905299,1.977
0.0001849285091303283,1.978
0.00047109272987633135,1.979
0.0006634205767527432,1.98
0.0006777828282044197,1.981
0.00047750610541769046,1.982
8.239622709396078e-05,1.983
-0.00044501641983337456,1.984
-0.001011748387276123,1.985
-0.0015104904723284337,1.986
-0.0018427238855039242,1.987
-0.0019435423244873891,1.988
-0.0018013324454211315,1.989
-0.0014534193753609585,1.99
-0.0009578679431751772,1.991
-0.0003696939273303909,1.992
0.00026252955077797407,1.993
0.0008837296049435684,1.994
0.001416778236435947,1.995
0.0017689597438198513,1.996
0.001870699355503927,1.997
0.0017147424847000147,1.998
0.0013606822698881233,1.999
0.0009113754457996073,2.0
0.00048096592354391894,2.001
0.0001592991968314281,2.002
-1.8096562153947305e-05,2.003
-7.263084194356856e-05,2.004
-5.546533353739498e-05,2.005
-1.7350096039057852e-05,2.006
3.926416214680684e-06,2.007
-1.6439246122185766e-05,2.008
-8.533030163844791e-05,2.009
-0.00018749469338451595,2.01
-0.0002978848796758188,2.011
-0.0003944232168049264,2.012
-0.00045981180272960964,2.013
-0.00048505715776860276,2.014
-0.00047632358928591874,2.015
-0.00045943420542821393,2.016
-0.00047703494272620395,2.017
-0.0005743366534229264,2.018
-0.0007781387488166181,2.019
-0.0010773992484276109,2.02
-0.0014170568298270036,2.021
-0.0017100273825137488,2.022
-0.0018562362066340476,2.023
-0.00176852785352147,2.024
-0.0014131067873549166,2.025
-0.0008423188491406947,2.026
-0.0001842562968388689,2.027
0.00041194446056201943,2.028
0.0008368591305128625,2.029
0.0010473605227055084,2.03
0.0010579384652759675,2.031
0.0009246781203964709,2.032
0.0007273690772786305,2.033
0.0005359307303193667,2.034
0.00037953581976833315,2.035
0.00025567655861731705,2.036
0.00016693550448927872,2.037
0.00013278837185730182,2.038
0.00016511005756995648,2.039
0.00024775510623687813,2.04
0.00034459344526190116,2.041
0.00041942279150013043,2.042
0.00044737598138678593,2.043
0.00041695434713365524,2.044
0.0003291378769242118,2.045
0.00019629222507997913,2.046
3.93566795957084e-05,2.047
-0.0001238898007603338,2.048
-0.0002992766143417476,2.049
-0.0005203622167074635,2.05
-0.0008160098064184782,2.051
-0.0011670264047683244,2.052
-0.0014980187387228243,2.053
-0.0017137218807203483,2.054
-0.001745685973536718,2.055
-0.0015769264082287158,2.056
-0.0012432809453331996,2.057
-0.0008219146352105912,2.058
-0.0004011869400278962,2.059
-3.755696136929581e-05,2.06
0.0002583968390651853,2.061
0.0004928660633048835,2.062
0.0006604970220444975,2.063
0.0007454791916776464,2.064
0.0007336855255164719,2.065
0.0006159431925798739,2.066
0.0003936007300521379,2.067
0.00010085612376889227,2.068
-0.00018379311320791873,2.069
-0.0003711915690916493,2.07
-0.0004141439553602003,2.071
-0.0003269342021638774,2.072
-0.00016533748157087583,2.073
2.92829349188273e-06,2.074
0.00011938547922365992,2.075
0.00015365915607408294,2.076
0.00011963769626803237,2.077
6.505180835996073e-05,2.078
3.1161296216153584e-05,2.079
2.544328052827118e-05,2.08
3.7209717992512926e-05,2.081
6.821540591649627e-05,2.082
0.00013202099205484553,2.083
0.00022214098807768687,2.084
0.0002987914734096813,2.085
0.0003175532113039092,2.086
0.00026043620037227884,2.087
0.00013665506510893472,2.088
-3.299333497946055e-05,2.089
-0.00022757170926081382,2.09
-0.0004254053554100743,2.091
-0.0005961915872592021,2.092
-0.0007047670384508437,2.093
-0.0007295664136209633,2.094
-0.0006737633919180001,2.095
-0.0005579081761269694,2.096
-0.0004053333569087179,2.097
-0.00023592816166877813,2.098
-7.223048561545565e-05,2.099
5.39031989080497e-05,2.1
0.00010439296738441151,2.101
4.361387643974369e-05,2.102
-0.00015448462814708606,2.103
-0.0005005777557262734,2.104
-0.0009801282907053474,2.105
-0.0015380280835206378,2.106
-0.0020647179131525637,2.107
-0.0024024572587234413,2.108
-0.002391937646827659,2.109
-0.0019420990506623388,2.11
-0.0010763286186584657,2.111
7.197927789374099e-05,2.112
0.0013046219201402556,2.113
0.0024099642344680436,2.114
0.0031984161755799962,2.115
0.00352729107785407,2.116
0.0033273985590925397,2.117
0.002632309530378535,2.118
0.001586880467915097,2.119
0.00041114859233706293,2.12
-0.0006731912532336362,2.121
-0.0015152705186155919,2.122
-0.0020628450249918972,2.123
-0.002340726793619731,2.124
-0.0024060787572137685,2.125
-0.0023066008930938456,2.126
-0.002064810898843621,2.127
-0.0016881165248804585,2.128
-0.001189224190043755,2.129
-0.0006086964292535246,2.13
-1.8882355061286782e-05,2.131
0.0005039414689112163,2.132
0.0009104311405056692,2.133
0.0011826043978189781,2.134
0.0013170846190509117,2.135
0.0013062972172692203,2.136
0.0011367698096595945,2.137
0.0008091997351662661,2.138
0.000357957644314737,2.139
-0.00014895303758953794,2.14
-0.000623985264905567,2.141
-0.0009803576135675245,2.142
-0.0011556406462149213,2.143
-0.0011311800937906587,2.144
-0.0009401313649327733,2.145
-0.0006577692310878007,2.146
-0.00037076927404981665,2.147
-0.00013854330387305815,2.148
2.4601217715083826e-05,2.149
0.00013511643761317967,2.15
0.00021747073910945768,2.151
0.0002935585406103723,2.152
0.0003784347533214021,2.153
0.0004765664924369522,2.154
0.0005803406692635223,2.155
0.0006693613222832582,2.156
0.0007148783392029951,2.157
0.0006885132508761267,2.158
0.0005632652556562237,2.159
0.0003143445553179204,2.16
-6.560871408344163e-05,2.161
-0.0005469727381587742,2.162
-0.0010571869091866306,2.163
-0.0014961180011027165,2.164
-0.001769362280434844,2.165
-0.0018222869360539386,2.166
-0.0016550717776772062,2.167
-0.0013156783002443743,2.168
-0.0008825478153251543,2.169
-0.00044365087396262923,2.17
-6.947018534162006e-05,2.171
0.0002090060397821685,2.172
0.00039480917901553697,2.173
0.0004949668403570527,2.174
0.0004985239798398524,2.175
0.00038560869680453363,2.176
0.0001562667481830093,2.177
-0.00015270282008648798,2.178
-0.00047731418270421553,2.179
-0.0007444724003061654,2.18
-0.0008873465931599723,2.181
-0.0008622176658766355,2.182
-0.0006589553472833269,2.183
-0.0003005044976943673,2.184
0.00016280396614475905,2.185
0.0006598065162037181,2.186
0.0011045634257245136,2.187
0.0014137348138211733,2.188
0.0015393816238900493,2.189
0.0014863109216638973,2.19
0.001294698523250792,2.191
0.0010117206000384645,2.192
0.0006712847940029639,2.193
0.00028842407461805643,2.194
-0.0001243083139665154,2.195
-0.0005331417593812665,2.196
-0.0008752838403771438,2.197
-0.0010810738408069038,2.198
-0.0011171011622823769,2.199
-0.0010078045668125753,2.2
-0.0008169538447354556,2.201
-0.0006159481361865578,2.202
-0.0004608386007332912,2.203
-0.0003834212666858056,2.204
-0.0003932877141251371,2.205
-0.0004775317395716663,2.206
-0.0006021654888321528,2.207
-0.0007324322418988684,2.208
-0.0008509204872672354,2.209
-0.0009478143380384043,2.21
-0.00100748889145087,2.211
-0.0010164931508303593,2.212
-0.0009809554342764854,2.213
-0.0009232490794171112,2.214
-0.0008504594723933752,2.215
-0.0007393026905771097,2.216
-0.0005605163570074296,2.217
-0.0003000171786470675,2.218
3.554253256662007e-05,2.219
0.0004072641724170603,2.22
0.0007502475824730717,2.221
0.0010090684365801992,2.222
0.0011604705394175107,2.223
0.0012049500326916144,2.224
0.0011501331088455272,2.225
0.0010003492341535945,2.226
0.0007548107567489634,2.227
0.0004224850192496105,2.228
4.414879441582006e-05,2.229
-0.00030834508360670805,2.23
-0.0005600527551658523,2.231
-0.0006612830778173915,2.232
-0.0006012630529488519,2.233
-0.00041212727115651215,2.234
-0.00016044091669978767,2.235
7.701719293383267e-05,2.236
0.0002384783194312867,2.237
0.0002917483485859522,2.238
0.0002418713701997378,2.239
0.000127313621089113,2.24
-6.3472563337194944e-06,2.241
-0.00013642146653232667,2.242
-0.0002623350047581355,2.243
-0.0003815318888171384,2.244
-0.0004792440549963604,2.245
-0.000538823756426787,2.246
-0.0005574678559183174,2.247
-0.0005549031753065791,2.248
-0.0005598434546401576,2.249
-0.0005859615943359321,2.25
-0.0006264108820480019,2.251
-0.0006619026447960896,2.252
-0.0006673810202483436,2.253
-0.0006220398279691758,2.254
-0.000519583419263538,2.255
-0.0003625890426808948,2.256
-0.0001471627286266475,2.257
0.00013332992717621627,2.258
0.00045917544778543626,2.259
0.0007627047783267362,2.26
0.0009474747804038422,2.261
0.0009350121239821127,2.262
0.0006998258315556026,2.263
0.00027828176195521747,2.264
-0.00024409922027499088,2.265
-0.0007598195111460064,2.266
-0.0011687621047528041,2.267
-0.0014019134736456952,2.268
-0.001438827026513693,2.269
-0.0013088490801929848,2.27
-0.001069397855676037,2.271
-0.0007822595285755656,2.272
-0.000502222309636283,2.273
-0.00026824070308219044,2.274
-9.45582925094293e-05,2.275
3.7934491075859955e-05,2.276
0.00018250596286921138,2.277
0.0003954015027306004,2.278
0.0006806224352394577,2.279
0.0009588654451194496,2.28
0.001091556157292643,2.281
0.0009526540772916301,2.282
0.0005137626840027489,2.283
-0.00011437939571958462,2.284
-0.0007191788778768421,2.285
-0.0010756144535676987,2.286
-0.0010426822929929104,2.287
-0.0006257260542064454,2.288
3.485493900517764e-05,2.289
0.0007334278012832453,2.29
0.0012725788128436465,2.291
0.001515094329288272,2.292
0.0014075063966620758,2.293
0.0009746515106071591,2.294
0.00030523480563950794,2.295
-0.0004613857387941899,2.296
-0.0011578659878008618,2.297
-0.0016265514592937282,2.298
-0.0017645098749226682,2.299
-0.0015631831035921688,2.3
-0.0011237775348871344,2.301
-0.0006160310987517891,2.302
-0.00018443943719173654,2.303
0.00011492373756525771,2.304
0.0002885539927583256,2.305
0.0003452351953431409,2.306
0.00027694809244896814,2.307
8.222540949664984e-05,2.308
-0.0002143054824599742,2.309
-0.000569163227911875,2.31
-0.0009323702259144978,2.311
-0.0012486095425920836,2.312
-0.0014593195827856612,2.313
-0.0015136985686049734,2.314
-0.0013851742247809886,2.315
-0.0010868016152638152,2.316
-0.0006713892844105174,2.317
-0.00021074026290559145,2.318
0.0002301179955667423,2.319
0.0006102392085882716,2.32
0.0009161618178816908,2.321
0.0011475648357330082,2.322
0.0013000950023197527,2.323
0.001367283877247508,2.324
0.0013533379842258517,2.325
0.0012707929006609876,2.326
0.0011273888964325519,2.327
0.000925754304013657,2.328
0.0006730489808202966,2.329
0.0003841250225237613,2.33
7.916816610429843e-05,2.331
-0.00021803820376495303,2.332
-0.0004873247139246937,2.333
-0.0007222671517711258,2.334
-0.0009263504483218686,2.335
-0.001098808633078713,2.336
-0.0012274944792992199,2.337
-0.0012903645299473742,2.338
-0.001265356203572606,2.339
-0.0011493407028609706,2.34
-0.0009691834461835239,2.341
-0.0007723603989768972,2.342
-0.0006092469588799524,2.343
-0.0005131373071865612,2.344
-0.0004775730110000014,2.345
-0.00045269612545901345,2.346
-0.00037273762958530917,2.347
-0.00019428312667122552,2.348
7.624794343827327e-05,2.349
0.0003816909409964126,2.35
0.0006460853368419887,2.351
0.0008132633307685179,2.352
0.0008591167765453367,2.353
0.0007814251363101641,2.354
0.0005922938317424955,2.355
0.00032086846425880054,2.356
1.4047298806458576e-05,2.357
-0.0002740508779322666,2.358
-0.0005006044556690892,2.359
-0.0006456453453860235,2.36
-0.0007040695760932306,2.361
-0.0006743826732188489,2.362
-0.000566497630036552,2.363
-0.0004170348850359598,2.364
-0.00028488408209341443,2.365
-0.00022048418645788858,2.366
-0.0002342075514360031,2.367
-0.0002977925845279153,2.368
-0.00037598802009232733,2.369
-0.0004475523955439515,2.37
-0.0004913813941998703,2.371
-0.00046528932162886473,2.372
-0.0003201650432314636,2.373
-4.281505629342603e-05,2.374
0.0003205193303736858,2.375
0.0006810260312155228,2.376
0.0009406547356369765,2.377
0.0010173330194679212,2.378
0.0008662617590792222,2.379
0.0005051704633279873,2.38
2.1907798939067158e-05,2.381
-0.0004611894726491595,2.382
-0.000844289497457128,2.383
-0.0010801276386099004,2.384
-0.0011651444597896088,2.385
-0.0011156968541312148,2.386
-0.0009510385280012049,2.387
-0.0006905251280194259,2.388
-0.00036287828288974686,2.389
-1.2820594891867486e-05,2.39
0.0003075994090221974,2.391
0.000550363834807465,2.392
0.0006782911403673093,2.393
0.0006776434588644991,2.394
0.0005652721587543654,2.395
0.0003769641607501114,2.396
0.00015057586469298392,2.397
-7.757471623995268e-05,2.398
-0.0002641418876967168,2.399
-0.00036185032396490084,2.4
-0.0003418255506527399,2.401
-0.00021276949627156702,2.402
-2.1858430474662948e-05,2.403
0.0001654334451826554,2.404
0.000296274394075065,2.405
0.00034060032338372825,2.406
0.00027251001881247437,2.407
6.237628222028997e-05,2.408
-0.00030028034497591095,2.409
-0.0007879377925061204,2.41
-0.001344734796870231,2.411
-0.001902782881561871,2.412
-0.002385778214607843,2.413
-0.0027098393202406343,2.414
-0.0027919120963418313,2.415
-0.0025671435229366398,2.416
-0.002019223811544505,2.417
-0.0012112710260324961,2.418
-0.00028443496094014546,2.419
0.0005854864645453388,2.42
0.0012448123576500388,2.421
0.0016052076541158077,2.422
0.0016645684570270392,2.423
0.0014915550808263529,2.424
0.0011761675908939224,2.425
0.0007866821498985594,2.426
0.0003611390836333318,2.427
-7.7442277447848e-05,2.428
-0.0005002464289017662,2.429
-0.000851545920611712,2.43
-0.0010310942160945639,2.431
-0.0008943990414758834,2.432
-0.0002884915792443314,2.433
0.0008818963669824615,2.434
0.0025950152147056157,2.435
0.00469397909760644,2.436
0.00690762733784302,2.437
0.008879528236002575,2.438
0.010193921075906108,2.439
0.010421702189832448,2.44
0.009195083543077706,2.441
0.0062989946363347805,2.442
0.0017681285202885823,2.443
-0.004021916077671,2.444
-0.01030005393123388,2.445
-0.015966833912983727,2.446
-0.019849791370697954,2.447
-0.021069456399231308,2.448
-0.019343096602157373,2.449
-0.015093446970897578,2.45
-0.009310421219639568,2.451
-0.003209648449772181,2.452
0.002149564379092394,2.453
0.006107472961772441,2.454
0.008449865572081997,2.455
0.009311597736820734,2.456
0.009029092610023631,2.457
0.00800472232693257,2.458
0.006607641674732944,2.459
0.005129719250497701,2.46
0.003784845179227556,2.461
0.0027109859515693996,2.462
0.001959138874114987,2.463
0.0014890289133895642,2.464
0.001202688269766843,2.465
0.0010057428342845698,2.466
0.0008405074755609311,2.467
0.0006746866133274556,2.468
0.00048489218802426673,2.469
0.0002500007121597071,2.47
-5.322442310990924e-05,2.471
-0.0004384972394039317,2.472
-0.0008842763732101214,2.473
-0.0013254069263447866,2.474
-0.0016772118518829625,2.475
-0.0018732572641456718,2.476
-0.0018867272392221928,2.477
-0.001730094629735604,2.478
-0.0014514860129700433,2.479
-0.0011281629731291804,2.48
-0.0008416670016984876,2.481
-0.0006482722995660925,2.482
-0.000574249664042967,2.483
-0.0006281719396103574,2.484
-0.0008027999526494669,2.485
-0.0010642599247134108,2.486
-0.00134373513886244,2.487
-0.0015470693442413879,2.488
-0.001583559128207259,2.489
-0.0013983734985000148,2.49
-0.0009932584082431013,2.491
-0.00042742339512584385,2.492
0.00019741873134461563,2.493
0.0007618072271521586,2.494
0.0011625477934881013,2.495
0.00134357801313453,2.496
0.0013056922742080593,2.497
0.0010959367822596694,2.498
0.0007869570368833162,2.499
0.00044895293187076303,2.5
0.00012952000172695334,2.501
-0.00014124140919511994,2.502
-0.0003374818280867949,2.503
-0.0004354022338496164,2.504
-0.00041750090197720724,2.505
-0.0002818901992470829,2.506
-5.643588484551305e-05,2.507
0.00019640138767564586,2.508
0.0003987245077166329,2.509
0.0004928407563537236,2.51
0.00046468312661481035,2.511
0.0003401461760918693,2.512
0.0001662463302102133,2.513
-9.49329185675251e-06,2.514
-0.00015906654907783322,2.515
-0.0002867243653126271,2.516
-0.00041514981178497417,2.517
-0.0005526061424094639,2.518
-0.000684531372052544,2.519
-0.0007952006497744156,2.52
-0.000879109026453119,2.521
-0.0009303567771560791,2.522
-0.0009314975939879135,2.523
-0.0008565524275932927,2.524
-0.0006904318739450364,2.525
-0.0004494408787467295,2.526
-0.00018130035931141815,2.527
5.4030470770397e-05,2.528
0.00021096560515900797,2.529
0.0002811194315812891,2.53
0.00029161229027465394,2.531
0.00027381889745494944,2.532
0.0002375576484047454,2.533
0.00018083925344907162,2.534
0.00010764160702562555,2.535
2.407115797522816e-05,2.536
-6.543585436845507e-05,2.537
-0.0001513230109342235,2.538
-0.00022049909101943085,2.539
-0.0002686125157206882,2.54
-0.0003058752146626428,2.541
-0.00034366789408866733,2.542
-0.00038119030057398454,2.543
-0.0004155699598606549,2.544
-0.00045241916895451565,2.545
-0.0004918423751112491,2.546
-0.0005139013656183973,2.547
-0.00048809062625273874,2.548
-0.00039603921894099386,2.549
-0.0002513743905070275,2.55
-9.876289685832186e-05,2.551
1.741372463640278e-05,2.552
8.723005255279636e-05,2.553
0.00013908119425797144,2.554
0.00021313770186351744,2.555
0.00033237618838832957,2.556
0.00048789544781759986,2.557
0.0006323531490432123,2.558
0.0006919805186193378,2.559
0.0006060853053884186,2.56
0.0003660178868612763,2.561
2.4670823876733918e-05,2.562
-0.0003254601060458757,2.563
-0.0005906807354586456,2.564
-0.0007088839177220623,2.565
-0.000665393268416789,2.566
-0.0004963217819961962,2.567
-0.0002778561908446885,2.568
-9.683949094404707e-05,2.569
-1.3793248477403456e-05,2.57
-3.886791929957489e-05,2.571
-0.00013680923048749636,2.572
-0.00025885580790940686,2.573
-0.00037461273110375064,2.574
-0.000478799499537456,2.575
-0.0005755516770377453,2.576
-0.0006602661758464751,2.577
-0.0007163391093113799,2.578
-0.0007262569753793386,2.579
-0.000682749147643725,2.58
-0.0005937526604642784,2.581
-0.00048413396719367854,2.582
-0.0003913671683868226,2.583
-0.0003473488349269669,2.584
-0.00035485390310536363,2.585
-0.0003840809827824368,2.586
-0.0003941250726925873,2.587
-0.0003563877602492966,2.588
-0.00026431046553931225,2.589
-0.00012836509319401313,2.59
3.8253970874531e-05,2.591
0.0002248666493324527,2.592
0.00041123458504477794,2.593
0.0005631602550347823,2.594
0.000649317560288788,2.595
0.0006552218302648002,2.596
0.0005829095181397014,2.597
0.00044908167248851295,2.598
0.0002858965956377004,2.599
0.00014111523100907,2.6
7.173654528236202e-05,2.601
0.00012045176437303613,2.602
0.00028002474210694157,2.603
0.00047820744690373,2.604
0.0006111136273601404,2.605
0.0006061940148989863,2.606
0.0004586740766420841,2.607
0.00021646184183057683,2.608
-5.645820619904457e-05,2.609
-0.0003055692146931657,2.61
-0.0004955383654965592,2.611
-0.000614441676259682,2.612
-0.0006784660516286241,2.613
-0.0007268964280997645,2.614
-0.000795541893816508,2.615
-0.0008871970138995083,2.616
-0.0009728429731257252,2.617
-0.0010245141510234297,2.618
-0.0010443650108176463,2.619
-0.0010590376847140455,2.62
-0.0010915755926919754,2.621
-0.0011417482850860877,2.622
-0.0011831432913545455,2.623
-0.0011741185942773331,2.624
-0.0010757682968070218,2.625
-0.0008629921342156291,2.626
-0.0005289282218192611,2.627
-9.438063511381384e-05,2.628
0.00038473916661857694,2.629
0.000828591754686774,2.63
0.0011620394929059974,2.631
0.0013398962104723235,2.632
0.0013484584359701032,2.633
0.001189682604055315,2.634
0.0008748415944408785,2.635
0.0004409809528941513,2.636
-3.233046440334821e-05,2.637
-0.0004398898476552577,2.638
-0.0006940077229952952,2.639
-0.000758839494852175,2.64
-0.0006578301633378438,2.641
-0.00045120303339980404,2.642
-0.00020360503268339263,2.643
2.6626066743459798e-05,2.644
0.00018502211455450075,2.645
0.0002320519452164828,2.646
0.00016209941770499645,2.647
1.0669460015367828e-05,2.648
-0.00015728984449968602,2.649
-0.00027156066536544645,2.65
-0.00027760613999848623,2.651
-0.00015062801145730153,2.652
9.06427891368228e-05,2.653
0.0003840879579335068,2.654
0.0006483154264373596,2.655
0.0008069531898783564,2.656
0.0007982752564933061,2.657
0.0005886152749486974,2.658
0.00019500520237824705,2.659
-0.00031149668231681186,2.66
-0.0008312845228932557,2.661
-0.0012631018889070736,2.662
-0.0015248221742347812,2.663
-0.0015757426304958207,2.664
-0.0014261474217329615,2.665
-0.0011280617465358471,2.666
-0.000754509480089258,2.667
-0.0003724286246269128,2.668
-2.973531672716923e-05,2.669
0.00023476086836720454,2.67
0.0003889165806797265,2.671
0.0004245551568638927,2.672
0.0003682423324855214,2.673
0.0002769115169530157,2.674
0.0002240125639196722,2.675
0.00027128032010215837,2.676
0.00043346039213309,2.677
0.000658947605364348,2.678
0.0008473319021849564,2.679
0.0008983749675191968,2.68
0.0007567456560158901,2.681
0.00042837275811536963,2.682
-3.334385371163553e-05,2.683
-0.0005653220201671366,2.684
-0.0011275185057808106,2.685
-0.0017003336166209772,2.686
-0.0022628951102224805,2.687
-0.002783732053602361,2.688
-0.0032217190045701416,2.689
-0.0035220395639770827,2.69
-0.003612809179595511,2.691
-0.0034247528838406284,2.692
-0.0029319215851315215,2.693
-0.0021778766754040335,2.694
-0.0012704157304371574,2.695
-0.00035690642372473297,2.696
0.0004082328017529491,2.697
0.0008985615310247575,2.698
0.0010510483706641627,2.699
0.0008951809405903737,2.7
0.0005646353871628023,2.701
0.000280656106580901,2.702
0.00030250454152590126,2.703
0.0008546753549204495,2.704
0.002048158704729473,2.705
0.003830791520229341,2.706
0.006011511619221778,2.707
0.008351650540842609,2.708
0.010650215757570462,2.709
0.012744914995098357,2.71
0.014420495065318324,2.711
0.015311441784483347,2.712
0.014898795870874542,2.713
0.01262786855119638,2.714
0.008113104698502405,2.715
0.0013517660326336422,2.716
-0.007142713474819159,2.717
-0.016328014131992294,2.718
-0.024766145874667255,2.719
-0.030915795478637036,2.72
-0.03351948528886016,2.721
-0.0319725101890129,2.722
-0.026550108712570606,2.723
-0.018372777613239685,2.724
-0.00907441783384415,2.725
-0.00029918508207830356,2.726
0.006740615010189288,2.727
0.0114703512272782,2.728
0.013903057423182638,2.729
0.014443542266548079,2.73
0.013676150475153252,2.731
0.012188580400914145,2.732
0.010447653731653886,2.733
0.008753721946254523,2.734
0.007257153610729046,2.735
0.005991226825807386,2.736
0.004922812772232893,2.737
0.004020551075666388,2.738
0.003288215825114869,2.739
0.0027402318839459335,2.74
0.0023557374507707954,2.741
0.0020597713845904955,2.742
0.001757548388636386,2.743
0.0013924426828263495,2.744
0.0009715719034577721,2.745
0.0005401847031036,2.746
0.0001363743228141855,2.747
-0.00023002098298123831,2.748
-0.0005762363473780068,2.749
-0.0009520746534900611,2.75
-0.0014382902823313203,2.751
-0.0021132718927208234,2.752
-0.003013735553098766,2.753
-0.004121689264544471,2.754
-0.00536915264524279,2.755
-0.006643683456236671,2.756
-0.007798845653993813,2.757
-0.008681795170477652,2.758
-0.009169210221805195,2.759
-0.009182016911707782,2.76
-0.00867214884055014,2.761
-0.007599801861523518,2.762
-0.0059173410200860045,2.763
-0.0035861288399891395,2.764
-0.0006468524489023936,2.765
0.0026969724730221386,2.766
0.006068089067092563,2.767
0.009002102169580566,2.768
0.011060396789300543,2.769
0.011917818254342242,2.77
0.011433988621288863,2.771
0.009688532098815244,2.772
0.006954475398657364,2.773
0.003642928122421205,2.774
0.0002445979848741535,2.775
-0.002746768096224864,2.776
-0.004918199922783145,2.777
-0.005993809839872238,2.778
-0.005866765272322227,2.779
-0.004629431095036642,2.78
-0.002585399723878106,2.781
-0.00020701707093584396,2.782
0.0019738142752707567,2.783
0.0035138061449588574,2.784
0.004181132517100632,2.785
0.003994926239965197,2.786
0.003176712064370533,2.787
0.002050872693817784,2.788
0.0009332002795509516,2.789
4.901751512262901e-05,2.79
-0.000491212992379436,2.791
-0.0006842461626372376,2.792
-0.0006236454707445822,2.793
-0.0004713062732161821,2.794
-0.00040650981895868266,2.795
-0.000578161904253769,2.796
-0.0010680999740025298,2.797
-0.0018699785975317721,2.798
-0.002905037894366945,2.799
-0.004066107284105911,2.8
-0.005251281923931295,2.801
-0.006370923641834816,2.802
-0.007337607934853627,2.803
-0.008050616372609228,2.804
-0.00838605807405415,2.805
-0.008200738878350397,2.806
-0.007347787248760932,2.807
-0.005706382038425735,2.808
-0.0032386112547537396,2.809
-6.216755829006337e-05,2.81
0.0035115383722329006,2.811
0.007014881170568514,2.812
0.009934865703049587,2.813
0.011856375705449602,2.814
0.012570501208396702,2.815
0.012103997204261153,2.816
0.010679303355445346,2.817
0.008631342943608235,2.818
0.006305893203190615,2.819
0.003969578239121156,2.82
0.0017568443506423997,2.821
-0.00033101265501230253,2.822
-0.0023637190974786794,2.823
-0.004368160049376833,2.824
-0.006242238537849409,2.825
-0.007780237718165763,2.826
-0.008764312564553194,2.827
-0.00902129906877072,2.828
-0.008445495406613641,2.829
-0.0070343021283203735,2.83
-0.004921209161405374,2.831
-0.002367455722391807,2.832
0.0002866452288084996,2.833
0.002689607313016621,2.834
0.004546948659098,2.835
0.005669074455013375,2.836
0.005991297805991567,2.837
0.005576720121761042,2.838
0.004605841423635887,2.839
0.003333157151667823,2.84
0.0019989685751134723,2.841
0.0007413580102966085,2.842
-0.0004277669887472023,2.843
-0.001576882177105989,2.844
-0.002775136994721478,2.845
-0.004018175103009698,2.846
-0.005202442971879746,2.847
-0.006158014764459591,2.848
-0.0066975719561353855,2.849
-0.006643883287569244,2.85
-0.005842010732819718,2.851
-0.004186063867587139,2.852
-0.0016884801131426721,2.853
0.0014206586267977326,2.854
0.004650744352471548,2.855
0.007358334292389547,2.856
0.008976095741905403,2.857
0.00921074590058688,2.858
0.008109058561191335,2.859
0.006012580556347186,2.86
0.003437295995333843,2.861
0.0009116350768099967,2.862
-0.001162460987735376,2.863
-0.0025840455047485117,2.864
-0.003357987638728018,2.865
-0.003635431309461369,2.866
-0.003621491441555406,2.867
-0.003490843558378658,2.868
-0.0033378101309546014,2.869
-0.0031767277629181387,2.87
-0.002976571236066686,2.871
-0.0026850073658803426,2.872
-0.002237291552606318,2.873
-0.0016023482306797667,2.874
-0.000856622500395232,2.875
-0.0001938464157938017,2.876
0.00014239223619295224,2.877
-6.483764999479084e-05,2.878
-0.000938144068444478,2.879
-0.002441446634393553,2.88
-0.004343131743995982,2.881
-0.006232503451831524,2.882
-0.007603629940602651,2.883
-0.007985650447791284,2.884
-0.007061627376158413,2.885
-0.004729374746936535,2.886
-0.001104950507984519,2.887
0.003493024047045581,2.888
0.008568381073310562,2.889
0.013509236684797272,2.89
0.017681848652660006,2.891
0.020525374617377988,2.892
0.02163283116642522,2.893
0.020803151850653425,2.894
0.018043480980456786,2.895
0.013533926572562268,2.896
0.00759893260534759,2.897
0.0006997887938452798,2.898
-0.006575688786621407,2.899
-0.01353766582786018,2.9
-0.019438013660308687,2.901
-0.02355873980111247,2.902
-0.025354608057343173,2.903
-0.02460928781405226,2.904
-0.02153294786926617,2.905
-0.016730945633111744,2.906
-0.011032010167632897,2.907
-0.00526440180129937,2.908
-8.46065836339341e-05,2.909
0.0041085824276574,2.91
0.007171888562719903,2.911
0.009137337918131457,2.912
0.01011519656297613,2.913
0.010243539970105447,2.914
0.009679988426016589,2.915
0.008600534971680982,2.916
0.007197204156664524,2.917
0.005671812921373377,2.918
0.004212710283974285,2.919
0.0029605850774509345,2.92
0.001980690755291568,2.921
0.0012440499421550527,2.922
0.0006325714200225424,2.923
-5.935503305933622e-06,2.924
-0.0007708827421062625,2.925
-0.001645153658354086,2.926
-0.0024976329477323605,2.927
-0.0031475533560048506,2.928
-0.0034387799075681932,2.929
-0.003283816193660605,2.93
-0.002679704015853459,2.931
-0.0017171387860465735,2.932
-0.000586353911660391,2.933
0.00044787040435952206,2.934
0.0011196110759095995,2.935
0.0012520399827156525,2.936
0.000812554568008417,2.937
-7.631125715122423e-05,2.938
-0.0011649828861557676,2.939
-0.002154623227718935,2.94
-0.002790040365294125,2.941
-0.002919523619362972,2.942
-0.002515686001377577,2.943
-0.0016629677780277661,2.944
-0.0005285238144611207,2.945
0.0006619103547860069,2.946
0.001655494870054308,2.947
0.0022358979892039724,2.948
0.0022957428201115238,2.949
0.0018601833782880915,2.95
0.0010463525628614015,2.951
1.3427550642607647e-05,2.952
-0.001036934353749097,2.953
-0.0018421453702948973,2.954
-0.0021316174912733407,2.955
-0.0017501693228092162,2.956
-0.0007551111234968459,2.957
0.0005792848571847131,2.958
0.0018451514129163415,2.959
0.0026363376017074264,2.96
0.002685841876200696,2.961
0.0019473845390229495,2.962
0.0005840127204133356,2.963
-0.0011109071134026522,2.964
-0.0027925867312297028,2.965
-0.004114392524862813,2.966
-0.004773621407862377,2.967
-0.004568333139626696,2.968
-0.0034389521796976087,2.969
-0.0014784726821812503,2.97
0.001082027287843106,2.971
0.00391853717980799,2.972
0.006675957030527491,2.973
0.009007862814474566,2.974
0.010587105922682217,2.975
0.011108661416649094,2.976
0.010312828837290008,2.977
0.008054191092649893,2.978
0.0043974010015771945,2.979
-0.00031694652715138084,2.98
-0.005470007113494771,2.981
-0.010248067313371696,2.982
-0.01382620865452501,2.983
-0.015596704694671424,2.984
-0.015340232259294163,2.985
-0.013277508634584044,2.986
-0.009993782482391354,2.987
-0.006257715855780079,2.988
-0.0027909457629477197,2.989
-7.934186466133137e-05,2.99
0.0017017792143559024,2.991
0.0026423449042415155,2.992
0.0029840972354012157,2.993
0.003008953064584268,2.994
0.00296556715711474,2.995
0.003025897125713538,2.996
0.0032660774652054016,2.997
0.003669877134376374,2.998
0.004141179071836897,2.999
0.004537996555782751,3.0
0.0047320361314464885,3.001
0.004647958427004935,3.002
0.004264397790051017,3.003
0.0036077897143221914,3.004
0.0027552771368584417,3.005
0.0018312223658025943,3.006
0.0009750334928868837,3.007
0.00029005104324644087,3.008
-0.00019132259061207084,3.009
-0.0005051031747575849,3.01
-0.0007185731411775406,3.011
-0.000890005262049414,3.012
-0.0010555126603327442,3.013
-0.0012356089761506419,3.014
-0.0014419172593255444,3.015
-0.0016782126591439557,3.016
-0.0019437581503194941,3.017
-0.002243689121542857,3.018
-0.00258911279010979,3.019
-0.0029774705081276813,3.02
-0.0033726460654585045,3.021
-0.003702983299460147,3.022
-0.003883915556722238,3.023
-0.0038563370770512704,3.024
-0.0036040401820309955,3.025
-0.0031289909677572154,3.026
-0.0024216209397643533,3.027
-0.001469515517433734,3.028
-0.0002896054059304523,3.029
0.0010564456995773306,3.03
0.0024689626577363254,3.031
0.003818069977819562,3.032
0.004957590358696822,3.033
0.0057668524707105125,3.034
0.006194015545524536,3.035
0.006263489900008587,3.036
0.006055367002147449,3.037
0.0056606462230288975,3.038
0.005122126192292135,3.039
0.004409801632045316,3.04
0.0034498916321724625,3.041
0.002163850424750993,3.042
0.0004798411411343751,3.043
-0.0016468337007350558,3.044
-0.004159726977091995,3.045
-0.006831274826973195,3.046
-0.009288131614647303,3.047
-0.011122447069287016,3.048
-0.01199910606792808,3.049
-0.011708626884405725,3.05
-0.01019533287207845,3.051
-0.007592471741382734,3.052
-0.004245018698027203,3.053
-0.0006788714619711526,3.054
0.0025016348959214824,3.055
0.004765011795955865,3.056
0.005799278958588962,3.057
0.005587223286321479,3.058
0.0043832413383695585,3.059
0.0026327785848861388,3.06
0.000875199150999472,3.061
-0.0003693167615440742,3.062
-0.0007270683689643683,3.063
-7.153293184711552e-05,3.064
0.0014537082194402181,3.065
0.0034927425701217394,3.066
0.005579986597786182,3.067
0.007258615979261558,3.068
0.008189760720241843,3.069
0.008215059571694132,3.07
0.0073522794700675645,3.071
0.005749465042994357,3.072
0.003636407707215048,3.073
0.0012830108461242382,3.074
-0.0010483100437193625,3.075
-0.003153527099596768,3.076
-0.004918063140355233,3.077
-0.006322839616274437,3.078
-0.0074324899922094895,3.079
-0.008348398990954476,3.08
-0.009124453364664937,3.081
-0.009702293406983786,3.082
-0.00991659509041754,3.083
-0.009548361920522108,3.084
-0.008385408116484921,3.085
-0.006301142458712577,3.086
-0.003355531520356518,3.087
0.00015379969369240615,3.088
0.0037479342096448697,3.089
0.006885700330669341,3.09
0.009079753628260906,3.091
0.010004284361865234,3.092
0.009592744519048091,3.093
0.008077239636885444,3.094
0.0059239000725304644,3.095
0.0036892796401357965,3.096
0.0018751839126980134,3.097
0.0008257544923298087,3.098
0.0006656586118804698,3.099
0.0012743187939017455,3.1
0.002302127160778031,3.101
0.00326013512825949,3.102
0.003684320725035228,3.103
0.0032779591027534824,3.104
0.0019508167351975454,3.105
-0.00020527074737046,3.106
-0.0029523835658166056,3.107
-0.005954148592978364,3.108
-0.008825001675530101,3.109
-0.0111788946699061,3.11
-0.01270086968850735,3.111
-0.013224621473797039,3.112
-0.012755986782126392,3.113
-0.011415193127388356,3.114
-0.009342585282633183,3.115
-0.00664266869681291,3.116
-0.003396229474261722,3.117
0.0002973056572602304,3.118
0.004292759072861018,3.119
0.008389745346678992,3.12
0.012333300788509678,3.121
0.01583232829008398,3.122
0.01859076145234883,3.123
0.020335795613473335,3.124
0.02083832267376264,3.125
0.019927350312225204,3.126
0.01750741054902305,3.127
0.013590206337412081,3.128
0.008321162137256026,3.129
0.001976976368488963,3.13
-0.005041985115410133,3.131
-0.012206185207949305,3.132
-0.018861062351505288,3.133
-0.024262100424586073,3.134
-0.027660864910202268,3.135
-0.02846044583680119,3.136
-0.02641794726360324,3.137
-0.021808760949040502,3.138
-0.015429262792460506,3.139
-0.008377202311471658,3.14
-0.0017136716512858555,3.141
0.0037967382438804354,3.142
0.007767216963660849,3.143
0.0101379236874363,3.144
0.011084454355431829,3.145
0.01093412174807413,3.146
0.01009206378976685,3.147
0.008967786416899624,3.148
0.007892418475136977,3.149
0.007040640526994622,3.15
0.006406880096690319,3.151
0.0058588160354253165,3.152
0.005236915062438231,3.153
0.004452359142877963,3.154
0.0035378387867896913,3.155
0.0026218034739590047,3.156
0.001847330615120931,3.157
0.0012974241423150202,3.158
0.0009608009941159257,3.159
0.0007356430771475435,3.16
0.00047116006977032307,3.161
2.632882389407175e-05,3.162
-0.0006895198754176527,3.163
-0.0016873373730793865,3.164
-0.002868426185799359,3.165
-0.004019440817276701,3.166
-0.004845548180133209,3.167
-0.005035886843902053,3.168
-0.004349557966978777,3.169
-0.002699872753694682,3.17
-0.00023165246805907704,3.171
0.002628203786509189,3.172
0.005210636962031129,3.173
0.006767248564099923,3.174
0.0067080593409026504,3.175
0.004821832906498653,3.176
0.0013928140587198521,3.177
-0.002843188612607615,3.178
-0.006906130838851245,3.179
-0.009861184845671708,3.18
-0.01107906378186511,3.181
-0.010405457608359684,3.182
-0.008204948417756909,3.183
-0.005241503461289894,3.184
-0.0024049141026252453,3.185
-0.0003832256647398976,3.186
0.0005544497434832887,3.187
0.0005533465875799898,3.188
-4.082697215406942e-06,3.189
-0.0007111693604110292,3.19
-0.0012870140010441018,3.191
-0.001616410581913686,3.192
-0.00168940195571526,3.193
-0.00152964154854053,3.194
-0.001191082301638257,3.195
-0.0007667356704083962,3.196
-0.00031807269218183363,3.197
0.00021085510050756391,3.198
0.0009622273144748514,3.199
0.0020336695030371776,3.2
0.003386517276111173,3.201
0.004851402868795367,3.202
0.006176861682080412,3.203
0.007080917886676582,3.204
0.007319545992558388,3.205
0.006779229351488932,3.206
0.005553373584316897,3.207
0.0039476383192718735,3.208
0.002402963867730902,3.209
0.0013771995179128554,3.21
0.0012372412564099228,3.211
0.0021808329798236404,3.212
0.004192486237353929,3.213
0.007051576206463969,3.214
0.010367034002623796,3.215
0.013583902835701066,3.216
0.015984351551612486,3.217
0.01673658642073637,3.218
0.014992750336549546,3.219
0.010044233955931747,3.22
0.0015776796630265278,3.221
-0.01000184499938834,3.222
-0.023368785909941323,3.223
-0.0364063883264641,3.224
-0.04669860552397652,3.225
-0.05219497079542033,3.226
-0.051759321796654024,3.227
-0.0453935871407774,3.228
-0.03412699534813465,3.229
-0.019706547913715858,3.23
-0.0041968471078373685,3.231
0.010447950844823353,3.232
0.02273240865344286,3.233
0.03179421104943894,3.234
0.03738786500382863,3.235
0.039728043681736214,3.236
0.039294034747487994,3.237
0.03667518456674128,3.238
0.03246644101797797,3.239
0.02717660986723662,3.24
0.021139462480302743,3.241
0.014502612987870702,3.242
0.007341924905673547,3.243
-0.00018553371580503473,3.244
-0.007752848085211468,3.245
-0.014852981802177164,3.246
-0.020846164280815035,3.247
-0.025044471076564708,3.248
-0.02682106679501324,3.249
-0.025762539633631516,3.25
-0.02185588142938555,3.251
-0.015615628550608525,3.252
-0.008046202475994222,3.253
-0.00042567337347688646,3.254
0.006013386743702622,3.255
0.010390657139537757,3.256
0.012349869688268298,3.257
0.012032138815999429,3.258
0.009904340273231409,3.259
0.006553175712784893,3.26
0.0025301377010176446,3.261
-0.001705563110077909,3.262
-0.005753422370963726,3.263
-0.009216505880909777,3.264
-0.011694559666236358,3.265
-0.012835052242321118,3.266
-0.01240813978952074,3.267
-0.010376000481842734,3.268
-0.006938887620968726,3.269
-0.0025347918917930827,3.27
0.0022361972549214053,3.271
0.006745322680158269,3.272
0.010438625385136744,3.273
0.012880979770276253,3.274
0.01382856857465552,3.275
0.013352517395438288,3.276
0.011880031390024262,3.277
0.01004317663972115,3.278
0.008410357762684041,3.279
0.0072892578891433964,3.28
0.006700116497325709,3.281
0.006434725535002566,3.282
0.006088680595257472,3.283
0.005101300362143866,3.284
0.0028918181889692695,3.285
-0.0009299443186736076,3.286
-0.006373375297809825,3.287
-0.012963965047667036,3.288
-0.019763461572718286,3.289
-0.025536511339644817,3.29
-0.02904167287962657,3.291
-0.029368838144821417,3.292
-0.026232054196318112,3.293
-0.020114426090368655,3.294
-0.012144993163059456,3.295
-0.0036870518109975827,3.296
0.00417826324147319,3.297
0.010969242051004526,3.298
0.01672845572947668,3.299
0.021659172988620065,3.3
0.02578049891052517,3.301
0.028815831154358693,3.302
0.0302949792159991,3.303
0.029722676348233612,3.304
0.026715506395901683,3.305
0.02111339016382368,3.306
0.01307338814786155,3.307
0.003108905591640752,3.308
-0.00793156822364078,3.309
-0.018916836338876173,3.31
-0.028503780435059207,3.311
-0.03525807114540242,3.312
-0.03791688672783164,3.313
-0.035826072962696756,3.314
-0.02935095689452101,3.315
-0.019923854826770192,3.316
-0.009587977717699139,3.317
-0.00028589435588360283,3.318
0.006687395056180987,3.319
0.010873750751570413,3.32
0.012573249472828082,3.321
0.012628870507968497,3.322
0.01213622790240639,3.323
0.012108855501518506,3.324
0.013159274704145277,3.325
0.015295612604141022,3.326
0.0179008173329908,3.327
0.0199197353573246,3.328
0.020248901991639538,3.329
0.018183579456989077,3.33
0.01367493449701226,3.331
0.0073049635808003525,3.332
6.983207278687782e-05,3.333
-0.006910268540203013,3.334
-0.012638783045600841,3.335
-0.01639853661500503,3.336
-0.01787980949115531,3.337
-0.017287824273399185,3.338
-0.015300265286934598,3.339
-0.012806987062209719,3.34
-0.010546919880711634,3.341
-0.008825589048870972,3.342
-0.007470528135119579,3.343
-0.006077177429342655,3.344
-0.00436651243858052,3.345
-0.0023679007460476378,3.346
-0.0003311502850786005,3.347
0.0014733123697560071,3.348
0.0028642822440127728,3.349
0.003738257691953868,3.35
0.004027802225893062,3.351
0.003695694903560714,3.352
0.0027656514777926224,3.353
0.0013419578514845978,3.354
-0.000396128440509223,3.355
-0.002185736801301434,3.356
-0.0036606598343951915,3.357
-0.00438513038599429,3.358
-0.003983563445065164,3.359
-0.0023114392629900904,3.36
0.0004486629708048865,3.361
0.003834127820894186,3.362
0.007285172529991573,3.363
0.010386301331674735,3.364
0.013023314892331906,3.365
0.015341514037665082,3.366
0.017518824438763066,3.367
0.019495487911181275,3.368
0.020845960015174816,3.369
0.020896398940123767,3.37
0.01900560255843264,3.371
0.014797510800905262,3.372
0.008224234206929892,3.373
-0.000480012570427862,3.374
-0.010825269841426031,3.375
-0.022009897435731934,3.376
-0.03285301334041402,3.377
-0.04184798732458663,3.378
-0.04741702787260405,3.379
-0.04833552473546542,3.38
-0.04415779997674164,3.381
-0.035424591687463966,3.382
-0.02353618107153209,3.383
-0.010333564883724083,3.384
0.0024196303921068057,3.385
0.013400793802411926,3.386
0.02186655707333424,3.387
0.02768510403233568,3.388
0.031275510644489773,3.389
0.03336203956353525,3.39
0.03460462117013252,3.391
0.03530295561390163,3.392
0.03529553258858295,3.393
0.034055801657780625,3.394
0.03092768256254075,3.395
0.025387968842100685,3.396
0.017234687269261143,3.397
0.006677408517805149,3.398
-0.005637858556995655,3.399
-0.018608807265167712,3.4
-0.030693341624353648,3.401
-0.04012828124049206,3.402
-0.045384755373009344,3.403
-0.045636999415553624,3.404
-0.041026359487409424,3.405
-0.0326698760437267,3.406
-0.022394339059210254,3.407
-0.01217715361252986,3.408
-0.0035049813021969423,3.409
0.0029948607205515553,3.41
0.007545278856577177,3.411
0.010935339226554042,3.412
0.014079022195906673,3.413
0.017597283891887448,3.414
0.021583722831651917,3.415
0.025563132438967698,3.416
0.02858091190666386,3.417
0.029423264901093572,3.418
0.026982035916662265,3.419
0.020669606281641165,3.42
0.01074052735800707,3.421
-0.0015630943234475044,3.422
-0.014090373071152924,3.423
-0.02415075157998407,3.424
-0.02919599242989261,3.425
-0.027660240839760052,3.426
-0.019614898070676078,3.427
-0.006898071629369553,3.428
0.00738565357883641,3.429
0.01978489219267099,3.43
0.02743606975331409,3.431
0.028686275226066735,3.432
0.02333915682415478,3.433
0.012593670674413367,3.434
-0.0012875193966620448,3.435
-0.015536574499834487,3.436
-0.027532195957560287,3.437
-0.035324245029911355,3.438
-0.03787112232242186,3.439
-0.03506897534493062,3.44
-0.027748727291812027,3.441
-0.01758451702524875,3.442
-0.006697351014865627,3.443
0.003002077103663339,3.444
0.010345787253486428,3.445
0.01501329492383716,3.446
0.017288691076061413,3.447
0.01773293166438735,3.448
0.016924292389365138,3.449
0.015286493271611416,3.45
0.013022805197880493,3.451
0.010215040382668801,3.452
0.007029240285764775,3.453
0.0038033461511474916,3.454
0.0009296278455695528,3.455
-0.0012829563819439969,3.456
-0.0026311644211957767,3.457
-0.003005147300443106,3.458
-0.002418857415346684,3.459
-0.0010259053294502003,3.46
0.0009278832625263634,3.461
0.003150248983600079,3.462
0.005286060340784807,3.463
0.006866874788234343,3.464
0.007308252454856916,3.465
0.006037465512390274,3.466
0.0027302051553758726,3.467
-0.002465076375960856,3.468
-0.008813878755489904,3.469
-0.015060772725230803,3.47
-0.019714121861148178,3.471
-0.021480439459766285,3.472
-0.019667505251687634,3.473
-0.014388576706221113,3.474
-0.00647376034114558,3.475
0.0028936794147129716,3.476
0.012573576926372561,3.477
0.02159918006471218,3.478
0.029060528747698947,3.479
0.03397640970723355,3.48
0.03526376323378175,3.481
0.03186144218242998,3.482
0.02310804894283605,3.483
0.009278103583080339,3.484
-0.00800379407835082,3.485
-0.025704394788395573,3.486
-0.03989948944966273,3.487
-0.0469797996012012,3.488
-0.04519080133394337,3.489
-0.03568026490210452,3.49
-0.022250732383707523,3.491
-0.009756525323020945,3.492
-0.002094438345557347,3.493
-0.0008821569489554621,3.494
-0.005160603152938639,3.495
-0.011951018138031542,3.496
-0.0174043015448754,3.497
-0.01815437345544421,3.498
-0.01241551306907082,3.499
-0.0004588955967751463,3.5
0.01562993534283262,3.501
0.03272569835276302,3.502
0.04763941320523093,3.503
0.057927772177882995,3.504
0.062276965728079,3.505
0.060446462327073694,3.506
0.05297591899173087,3.507
0.04090341957224452,3.508
0.025588986775950055,3.509
0.008566226787695613,3.51
-0.00863221921755336,3.511
-0.024625202703386806,3.512
-0.03829070995823911,3.513
-0.04882635816741868,3.514
-0.055640621001781465,3.515
-0.05806739152311452,3.516
-0.05532804520842053,3.517
-0.04712993522828326,3.518
-0.03445602444244572,3.519
-0.019590694165030884,3.52
-0.005158191757345985,3.521
0.00695737749825443,3.522
0.015936227156389867,3.523
0.021626499365886214,3.524
0.024035999668919453,3.525
0.023177282870318717,3.526
0.019259094141631104,3.527
0.012915261310969104,3.528
0.0052495466490756985,3.529
-0.0023359196457104535,3.53
-0.008429968449047615,3.531
-0.011874847638223348,3.532
-0.011963172934123578,3.533
-0.008614479017559358,3.534
-0.002533911349932481,3.535
0.00479340198587706,3.536
0.01153896620397897,3.537
0.01634067492647263,3.538
0.018866119615929832,3.539
0.01964054304634618,3.54
0.01944011199916677,3.541
0.018856012214113357,3.542
0.018134322157148674,3.543
0.017065390142436077,3.544
0.014942036119551139,3.545
0.010775105797671354,3.546
0.0038019322077307333,3.547
-0.005912048234915945,3.548
-0.017120072674725893,3.549
-0.0275132281180721,3.55
-0.03429455414474195,3.551
-0.035063176974943315,3.552
-0.028737103552704608,3.553
-0.016073096414475768,3.554
0.0005196526742738743,3.555
0.017664522361655288,3.556
0.031753050596077685,3.557
0.039596246549874994,3.558
0.039074445963319264,3.559
0.029676270349278534,3.56
0.012697100998232382,3.561
-0.008946569955322397,3.562
-0.031161422746969262,3.563
-0.049366602257320355,3.564
-0.05953027186483972,3.565
-0.05936153868730081,3.566
-0.04903192637219716,3.567
-0.030949750761054103,3.568
-0.008843178911740707,3.569
0.013225301955723398,3.57
0.03162883085482956,3.571
0.0437279003851284,3.572
0.04817532906203945,3.573
0.04498444615250315,3.574
0.03540170043997199,3.575
0.02156740633541299,3.576
0.006042409616793927,3.577
-0.008586498719297498,3.578
-0.019992585940004852,3.579
-0.026505847595406546,3.58
-0.027596293879468173,3.581
-0.024006974862666373,3.582
-0.017298145068240657,3.583
-0.009148293777923443,3.584
-0.0009181343390737418,3.585
0.00638295271400258,3.586
0.012004705779660702,3.587
0.015521526763912153,3.588
0.016994149776398407,3.589
0.01699343140680453,3.59
0.016385677677159115,3.591
0.015944533107687068,3.592
0.01593774008515589,3.593
0.015866212870179388,3.594
0.014507834611253942,3.595
0.010318644898145464,3.596
0.0021084162100631757,3.597
-0.010199293057852717,3.598
-0.025005441503071,3.599
-0.03902681494772898,3.6
-0.04808870425887235,3.601
-0.04857689896222803,3.602
-0.03891409621778742,3.603
-0.02028689792870114,3.604
0.00367864312776665,3.605
0.027994049282691478,3.606
0.04764627629228829,3.607
0.05877297953430914,3.608
0.05941227066339406,3.609
0.049753935986873186,3.61
0.03187022636679932,3.611
0.009050359321304572,3.612
-0.014884144899254116,3.613
-0.03606690117415935,3.614
-0.05104569678406628,3.615
-0.057382215633767344,3.616
-0.054300329286399426,3.617
-0.043064565685433584,3.618
-0.026695147874306702,3.619
-0.008997218706548923,3.62
0.006570783956036445,3.621
0.017657177501764786,3.622
0.0232714488882949,3.623
0.023651857866590967,3.624
0.01992690498705335,3.625
0.013725030126978918,3.626
0.006806599386488445,3.627
0.0007490216874394285,3.628
-0.003290457884112171,3.629
-0.004715932470535273,3.63
-0.0035145709323382507,3.631
-0.00014389606002535176,3.632
0.0046980267792010874,3.633
0.010325016336431061,3.634
0.016162649990726148,3.635
0.02163661343048755,3.636
0.02602372791001446,3.637
0.028457171414412896,3.638
0.02811030624683268,3.639
0.02443215608842257,3.64
0.017315005998714755,3.641
0.007206007016808038,3.642
-0.0048985933304363585,3.643
-0.017703546492612136,3.644
-0.029938739586987426,3.645
-0.040475211756512273,3.646
-0.04830407048848439,3.647
-0.052608235988307175,3.648
-0.05282190948244878,3.649
-0.04842957843617397,3.65
-0.0387944852625676,3.651
-0.02358816336610748,3.652
-0.0036038849955335366,3.653
0.01894369524972232,3.654
0.04094754257092332,3.655
0.059137962027974146,3.656
0.07042633145025791,3.657
0.07208802451365724,3.658
0.06234057482385663,3.659
0.04135391420456486,3.66
0.012063999600724733,3.661
-0.020017503071334854,3.662
-0.04827961930511586,3.663
-0.06715174191166609,3.664
-0.07370423207341761,3.665
-0.06789045897939247,3.666
-0.05175863344414106,3.667
-0.028588340266846174,3.668
-0.002365163981433221,3.669
0.022747383499264105,3.67
0.04318127805900876,3.671
0.05665103487574355,3.672
0.06237588086691408,3.673
0.060835849074575704,3.674
0.05329940252615808,3.675
0.041373906655860264,3.676
0.026682221369215168,3.677
0.01067148379550277,3.678
-0.005418858534555621,3.679
-0.020482410101841084,3.68
-0.033505195649108366,3.681
-0.043563944562729245,3.682
-0.04983020268615641,3.683
-0.05171178902356692,3.684
-0.04912095244960011,3.685
-0.042633692070098844,3.686
-0.03338175786436798,3.687
-0.02266739394869036,3.688
-0.011519305310530626,3.689
-0.00046754397573574617,3.69
0.010428425258453335,3.691
0.021324677095779752,3.692
0.03216574855304071,3.693
0.04232287693313236,3.694
0.05047004310063955,3.695
0.054690815129374175,3.696
0.0528731295554981,3.697
0.04347647062142895,3.698
0.0264591302879464,3.699
0.0038386541895616294,3.7
-0.020524846014334453,3.701
-0.04184645964162078,3.702
-0.05565224348050425,3.703
-0.05899805713933216,3.704
-0.051381713768276015,3.705
-0.03500196164196165,3.706
-0.014150177594510762,3.707
0.006019629639954335,3.708
0.020783795874446443,3.709
0.026886700238733675,3.71
0.02327946485779554,3.711
0.01142841000700307,3.712
-0.0049989819500364414,3.713
-0.02106347898858644,3.714
-0.031853293428344684,3.715
-0.03377950269635921,3.716
-0.025418810608718825,3.717
-0.0076991683187700895,3.718
0.01626400544793602,3.719
0.041521226783837545,3.72
0.06222225101539269,3.721
0.0731348048968403,3.722
0.07096362539641995,3.723
0.05494213420245673,3.724
0.026947881245907655,3.725
-0.00860240945953337,3.726
-0.04525538282772148,3.727
-0.07556563547747279,3.728
-0.09258158494602507,3.729
-0.0916559896389983,3.73
-0.0721798907659393,3.731
-0.03817457014736896,3.732
0.0030456648281744513,3.733
0.043359103945695254,3.734
0.07590457369783964,3.735
0.09609255990559923,3.736
0.10183640843939926,3.737
0.09332710799467284,3.738
0.0725902990854661,3.739
0.0429522807843512,3.74
0.008302176033192454,3.741
-0.02773270775653509,3.742
-0.06203267894183299,3.743
-0.0912867421890801,3.744
-0.11112234760638265,3.745
-0.11633809539655432,3.746
-0.10268608424140027,3.747
-0.06943181240853877,3.748
-0.021254269516351888,3.749
0.03198901082771814,3.75
0.0780741056899722,3.751
0.10635190546134772,3.752
0.11070626387336088,3.753
0.09066720896778814,3.754
0.05108969046493333,3.755
0.0008722441773831964,3.756
-0.049068665988117634,3.757
-0.08821962314771935,3.758
-0.10892629564587904,3.759
-0.10834378937840036,3.76
-0.08883139645356176,3.761
-0.05635757465380876,3.762
-0.018062646885687827,3.763
0.019582812005174293,3.764
0.05166599107539801,3.765
0.07502982573691686,3.766
0.0880329472213814,3.767
0.09020961231919243,3.768
0.08211034031786323,3.769
0.06524248820280251,3.77
0.04193694375067318,3.771
0.015182414216524285,3.772
-0.011554789993215424,3.773
-0.034729625739049405,3.774
-0.05149057843785374,3.775
-0.060596222941450555,3.776
-0.06285764110840426,3.777
-0.06043537720369053,3.778
-0.055093483369893434,3.779
-0.04675414724767921,3.78
-0.03368339833331627,3.781
-0.014099156990561822,3.782
0.012119984020417104,3.783
0.04259404215325379,3.784
0.07262506083414637,3.785
0.09618374443523632,3.786
0.10734248615594973,3.787
0.10177400199929444,3.788
0.0780336555011466,3.789
0.03842999434759662,3.79
-0.010772976201998104,3.791
-0.06030893760911315,3.792
-0.10027451058216245,3.793
-0.12314357074345181,3.794
-0.12587821773439276,3.795
-0.11002599232465647,3.796
-0.08006338035575981,3.797
-0.04140691346932936,3.798
0.0006545831982216788,3.799
0.0411988309278869,3.8
0.07588038066410746,3.801
0.1013905687361347,3.802
0.11594582437891354,3.803
0.11946401009854303,3.804
0.11321427615510728,3.805
0.09913478525027535,3.806
0.07924951500776098,3.807
0.05545083109971559,3.808
0.02956164748819403,3.809
