VaMe,time
0.000943968442271322,0.001
0.009737453982315167,0.002
0.01814794322134435,0.003
0.025947295266909483,0.004
0.03304467918090734,0.005
0.03937320528602693,0.006
0.04463725515804555,0.007
0.04814444795378512,0.008
0.04892744782401136,0.009
0.04609537757925519,0.01
0.039185803956763764,0.011
0.02834866128441684,0.012
0.01437335317698762,0.013
-0.001291691291356101,0.014
-0.0165296837971244,0.015
-0.028846159902959058,0.016
-0.03611105936629506,0.017
-0.037375227911116166,0.018
-0.033172101032202736,0.019
-0.02516136262753461,0.02
-0.015488229082310427,0.021
-0.006210264111388116,0.022
0.0011008638173214862,0.023
0.005572170894765202,0.024
0.007087813198736979,0.025
0.0062023643186103405,0.026
0.003892756912808136,0.027
0.0011952474857610078,0.028
-0.001146304320870733,0.029
-0.0028352945285115934,0.03
-0.003888305427457085,0.031
-0.004371511657259984,0.032
-0.004241490110219601,0.033
-0.0033475554624817928,0.034
-0.0015502449611665328,0.035
0.0010939635064417894,0.036
0.0042044643906331055,0.037
0.007133859194682491,0.038
0.009201055293653514,0.039
0.00994283366567597,0.04
0.009214986795893158,0.041
0.007140605867826956,0.042
0.004035157825083467,0.043
0.00035314330795204894,0.044
-0.00340351900528015,0.045
-0.006808769639782838,0.046
-0.009576959461556511,0.047
-0.011533415596408504,0.048
-0.012549037822608914,0.049
-0.01250313426872761,0.05
-0.01129342677748974,0.051
-0.008880527919307463,0.052
-0.005359764675938532,0.053
-0.0010542525532379345,0.054
0.0034417198855435623,0.055
0.007363054990910466,0.056
0.009988992366809514,0.057
0.010842764432197094,0.058
0.009809598347176311,0.059
0.007177382936621856,0.06
0.003589320503392829,0.061
-9.415928240314429e-05,0.062
-0.0029952834528376507,0.063
-0.004432451241422326,0.064
-0.0040780555813016576,0.065
-0.002014824811944503,0.066
0.0012650073604766098,0.067
0.004863915694874997,0.068
0.0075756640635563435,0.069
0.008211382668852029,0.07
0.006107291357121673,0.071
0.0015252273993723252,0.072
-0.00437068767566716,0.073
-0.009979564846759824,0.074
-0.013886238044217706,0.075
-0.015319979289300891,0.076
-0.014277128439728731,0.077
-0.011349902448904305,0.078
-0.007416458320052644,0.079
-0.003343466774695398,0.08
0.0001851119415446585,0.081
0.002714456264423941,0.082
0.0040200098587074165,0.083
0.004107741156480181,0.084
0.0032095451259123017,0.085
0.0017437577971871317,0.086
0.00022806501676775673,0.087
-0.0008300642151818947,0.088
-0.0010307246724512561,0.089
-0.00015344480015779097,0.09
0.001771674174599034,0.091
0.004387724646417724,0.092
0.006997066014457977,0.093
0.008671840574721914,0.094
0.008469454626011948,0.095
0.005711562158852676,0.096
0.000302963008702579,0.097
-0.007001899293596685,0.098
-0.014577482469243347,0.099
-0.02030070696380854,0.1
-0.022274302545563868,0.101
-0.01962749518740767,0.102
-0.012970490588237411,0.103
-0.004187958765502361,0.104
0.004327170648164345,0.105
0.010570182213376215,0.106
0.013560424814844402,0.107
0.013503305870389979,0.108
0.011482411400703526,0.109
0.008941610723301956,0.11
0.00724630481528791,0.111
0.007421599662611132,0.112
0.01001412424027906,0.113
0.01496754603446229,0.114
0.021465849572470566,0.115
0.027863209818818842,0.116
0.03188005161434808,0.117
0.03114309584693641,0.118
0.0239628963366972,0.119
0.01005298385013663,0.12
-0.009103413010229017,0.121
-0.030368955080276577,0.122
-0.04956783100829555,0.123
-0.06252215507307542,0.124
-0.06627336975090671,0.125
-0.060073114940173956,0.126
-0.0456765564398067,0.127
-0.02672536625408359,0.128
-0.007468337320265021,0.129
0.008549963292137438,0.13
0.019252356580751195,0.131
0.024166044905556166,0.132
0.024154977607357866,0.133
0.02088918036500183,0.134
0.016229336574317167,0.135
0.011732550459814388,0.136
0.008336414810674144,0.137
0.006282184261362906,0.138
0.0053261293637171195,0.139
0.005053385285733453,0.14
0.005062207558014272,0.141
0.005015097429118727,0.142
0.00467114619625759,0.143
0.003940386948309385,0.144
0.002914090820848472,0.145
0.0018311475941594356,0.146
0.0010091319382480616,0.147
0.0007711001088877657,0.148
0.001335880093212908,0.149
0.0026616707005355307,0.15
0.004338948941727353,0.151
0.005654188224744094,0.152
0.005834454065786575,0.153
0.00434481603058901,0.154
0.0010934564964364133,0.155
-0.003508239352517007,0.156
-0.00862185560569349,0.157
-0.013180212963047265,0.158
-0.016169951026629804,0.159
-0.01689237780350886,0.16
-0.015099751381642441,0.161
-0.01103412315053253,0.162
-0.005429404200701097,0.163
0.000598553543586908,0.164
0.0058629926231596316,0.165
0.009497099161925744,0.166
0.011188546769045151,0.167
0.011162286060458921,0.168
0.009971851064829984,0.169
0.008216111739386814,0.17
0.006303726285845084,0.171
0.004344737532904365,0.172
0.0022016388742440844,0.173
-0.000355034370991045,0.174
-0.0035064748364861996,0.175
-0.007301787703358014,0.176
-0.011595476841710617,0.177
-0.015973556815797322,0.178
-0.0196971517930077,0.179
-0.02180351494563876,0.18
-0.02142069820222736,0.181
-0.01810206520980325,0.182
-0.012021046682015212,0.183
-0.004049996055061898,0.184
0.004342452942882622,0.185
0.011479867763194148,0.186
0.016024238265467155,0.187
0.01741457128646516,0.188
0.016000292168985825,0.189
0.0128282768762327,0.19
0.009209345542281864,0.191
0.006264024765748977,0.192
0.0046115847504881536,0.193
0.004282425706190595,0.194
0.004842857886580676,0.195
0.005643237456692424,0.196
0.006065699448290386,0.197
0.005681847332892478,0.198
0.00431013881064019,0.199
0.002009325316383161,0.2
-0.0009627512968545509,0.201
-0.004211241276573847,0.202
-0.0072809168947648144,0.203
-0.009736359844881476,0.204
-0.011235982824905129,0.205
-0.011590570187500359,0.206
-0.010788640919521388,0.207
-0.00899864342080912,0.208
-0.006574104787418835,0.209
-0.00404551673023194,0.21
-0.002050753906286501,0.211
-0.0011655974479732362,0.212
-0.0016563017805055862,0.213
-0.003277249528924656,0.214
-0.005256327663918648,0.215
-0.006517305253767149,0.216
-0.006104333781789368,0.217
-0.0036532220224825334,0.218
0.0003870486959122681,0.219
0.004958915187127191,0.22
0.008880559333828081,0.221
0.011298121460149713,0.222
0.011894188995399919,0.223
0.0108553675899496,0.224
0.008701611543803249,0.225
0.006053231557059952,0.226
0.0034158338233284038,0.227
0.0010624078403392322,0.228
-0.0009757114031661244,0.229
-0.0028303257634336287,0.23
-0.004657904676111278,0.231
-0.0065107279779991435,0.232
-0.008288752876355028,0.233
-0.009770397932759172,0.234
-0.010650850688310242,0.235
-0.01056184269110681,0.236
-0.009153259897091438,0.237
-0.006271266003006442,0.238
-0.0021420531363041946,0.239
0.0025600168711351298,0.24
0.006862642752623811,0.241
0.00983689618134008,0.242
0.010909892769463804,0.243
0.009987857069426358,0.244
0.007424422151228979,0.245
0.003888571496784698,0.246
0.00015651746314950573,0.247
-0.003104194844445971,0.248
-0.00547935257226745,0.249
-0.0068498445237335365,0.25
-0.007344083303047144,0.251
-0.007225870134822534,0.252
-0.00675658717148932,0.253
-0.00608895069036006,0.254
-0.005228831892992048,0.255
-0.004068650202226771,0.256
-0.0024814366296482967,0.257
-0.0004477599890607319,0.258
0.0018537891397651055,0.259
0.004060498659459743,0.26
0.005724188800344878,0.261
0.006427023209301808,0.262
0.005886588190277708,0.263
0.004040607821166861,0.264
0.0010853856194465374,0.265
-0.0025429792229718514,0.266
-0.0062219219265836675,0.267
-0.009202750256621518,0.268
-0.010677969799730581,0.269
-0.009881150876717959,0.27
-0.006235477437920899,0.271
0.000458417671896426,0.272
0.009803424443072483,0.273
0.020597603210560547,0.274
0.030818756065161584,0.275
0.03800988729089396,0.276
0.039979648287287166,0.277
0.03544424628865702,0.278
0.024315048531826262,0.279
0.007640703355478824,0.28
-0.012584435998539445,0.281
-0.03359159680013471,0.282
-0.05205029990165114,0.283
-0.06454177480862476,0.284
-0.0684004847580648,0.285
-0.06265582813174972,0.286
-0.048552282502509224,0.287
-0.029274151121073982,0.288
-0.008927038246543997,0.289
0.008766214248163118,0.29
0.021452873505506728,0.291
0.02844673051417538,0.292
0.03042523695523372,0.293
0.028874499938527125,0.294
0.025516095307967526,0.295
0.02181206262237022,0.296
0.018657786741984397,0.297
0.016349580759304684,0.298
0.014746726622469893,0.299
0.013456379430698075,0.3
0.011985006167382769,0.301
0.009895845036646362,0.302
0.006958753333814211,0.303
0.003227968220242948,0.304
-0.0009772594152503446,0.305
-0.0051654682837542765,0.306
-0.00880133704756104,0.307
-0.011434865541536934,0.308
-0.012805259591952537,0.309
-0.012885845201524235,0.31
-0.011847273969595524,0.311
-0.009983120957733715,0.312
-0.007668522554402317,0.313
-0.0053335462918547485,0.314
-0.0033812921972147417,0.315
-0.0020708911207683684,0.316
-0.0014341785558351864,0.317
-0.0012566387079650308,0.318
-0.0011615172197834947,0.319
-0.000785161874755884,0.32
8.090730245153828e-05,0.321
0.001443775936570326,0.322
0.0030974534254808303,0.323
0.004644136295122967,0.324
0.005617278466406184,0.325
0.005672794922041332,0.326
0.0047230664986405435,0.327
0.0029500351511023404,0.328
0.0007257523202905159,0.329
-0.0015074407523166162,0.33
-0.0033571202889241133,0.331
-0.004572396176291981,0.332
-0.005089935548151974,0.333
-0.005045306304953459,0.334
-0.004760526543585183,0.335
-0.0046623089890281445,0.336
-0.005095250981073662,0.337
-0.006126821915173551,0.338
-0.007493009448975866,0.339
-0.008699767257847811,0.34
-0.009183939082825006,0.341
-0.008473579004676251,0.342
-0.006344009613565427,0.343
-0.0029258110201050153,0.344
0.0013223664555131365,0.345
0.0057771000180348265,0.346
0.00984535836051754,0.347
0.013082779019864094,0.348
0.01520015257825437,0.349
0.01602977826256219,0.35
0.015527375533166847,0.351
0.013792087662909965,0.352
0.01105739379747634,0.353
0.0076299523879575105,0.354
0.003789637468027329,0.355
-0.00029379432428586736,0.356
-0.004569226841236166,0.357
-0.009013638868514669,0.358
-0.01348652314660226,0.359
-0.017641942182390655,0.36
-0.02097503680627714,0.361
-0.022955746612737315,0.362
-0.023140574928065247,0.363
-0.021216540022226036,0.364
-0.017021778308202062,0.365
-0.010610161745209871,0.366
-0.0023969228932822053,0.367
0.006675497210416357,0.368
0.015145656573103173,0.369
0.021370280514735926,0.37
0.024091960398668195,0.371
0.02292274396224833,0.372
0.01845228276666436,0.373
0.011942346246720682,0.374
0.004845391186274461,0.375
-0.0015733513516332776,0.376
-0.006410214371987667,0.377
-0.00914649793313153,0.378
-0.009602630032543642,0.379
-0.007875191217589997,0.38
-0.004283420390442846,0.381
0.0006485427950597165,0.382
0.006194536633701776,0.383
0.011493305599946319,0.384
0.015681207459141915,0.385
0.01799447438996347,0.386
0.017809519212596735,0.387
0.014689181261493793,0.388
0.008481211039061852,0.389
-0.0005627421080915138,0.39
-0.011694980309389836,0.391
-0.023619910262539207,0.392
-0.0345331641371248,0.393
-0.04235296321353119,0.394
-0.04519669273963313,0.395
-0.0420449881913957,0.396
-0.03329942921037065,0.397
-0.020770080877102845,0.398
-0.00698894281058024,0.399
0.005699236413112183,0.4
0.01577226353544369,0.401
0.02270084569676563,0.402
0.026706377487626363,0.403
0.02831883714900482,0.404
0.0280006846953891,0.405
0.02600280627735468,0.406
0.022441478666470022,0.407
0.01746940432504073,0.408
0.011408982519069173,0.409
0.004770907258064129,0.41
-0.001822985091129872,0.411
-0.007732713107762339,0.412
-0.012371149004190271,0.413
-0.015258020002307898,0.414
-0.016058386846619165,0.415
-0.01464431337521552,0.416
-0.011211054786857015,0.417
-0.006346355340369171,0.418
-0.0009303865369361163,0.419
0.004083960637689382,0.42
0.00786918651067437,0.421
0.009845750383393507,0.422
0.0097562721996322,0.423
0.007695363329643972,0.424
0.0040769085833182355,0.425
-0.0004352589165652777,0.426
-0.005004611677208793,0.427
-0.00873915599589997,0.428
-0.010868736655083026,0.429
-0.01092345767235383,0.43
-0.008836209318503657,0.431
-0.004964704464152329,0.432
-7.870445307767528e-05,0.433
0.004719124063745148,0.434
0.008244391192437037,0.435
0.009640662301120437,0.436
0.008721339284777288,0.437
0.006024745867723688,0.438
0.0025933646666339697,0.439
-0.0004064273278723928,0.44
-0.00212877647537044,0.441
-0.002412414454574472,0.442
-0.0018934037721148296,0.443
-0.0017671932051395328,0.444
-0.0032262438710152605,0.445
-0.006794955534813723,0.446
-0.011964348575649519,0.447
-0.01737937126755662,0.448
-0.021381127114188467,0.449
-0.02252735531939554,0.45
-0.019937956541277935,0.451
-0.013510169142090698,0.452
-0.004032938850743282,0.453
0.006900668174216747,0.454
0.017313531596104548,0.455
0.025467936887514073,0.456
0.03029601949172474,0.457
0.03142053101590098,0.458
0.028937339361836605,0.459
0.02319683114313805,0.46
0.014682358767051484,0.461
0.004034647925657447,0.462
-0.007794205499768192,0.463
-0.01942696994835172,0.464
-0.029190403490719007,0.465
-0.03547983600748179,0.466
-0.03715846407689622,0.467
-0.03384039387957338,0.468
-0.026010999484430183,0.469
-0.014934085861663313,0.47
-0.0023420906404295035,0.471
0.009937514220911194,0.472
0.02026919590508539,0.473
0.027414201856232504,0.474
0.030666876806179317,0.475
0.029905210278393886,0.476
0.025577929613640835,0.477
0.018629655675836358,0.478
0.010352852692662909,0.479
0.0021660588073987622,0.48
-0.004683183809957987,0.481
-0.009399721477838869,0.482
-0.011757366270548695,0.483
-0.012033149726348304,0.484
-0.010839864518978278,0.485
-0.008905466801045711,0.486
-0.00686490036533405,0.487
-0.005158171383286124,0.488
-0.004049307928528915,0.489
-0.003678079341009246,0.49
-0.0040655653669432875,0.491
-0.005092288918909314,0.492
-0.006508145363026075,0.493
-0.007984790737463816,0.494
-0.009172762239519794,0.495
-0.009733225244005297,0.496
-0.009352895831098733,0.497
-0.007768271248082922,0.498
-0.004820345778718353,0.499
-0.000547533266055963,0.5
0.004712703025427512,0.501
0.010278980908484284,0.502
0.015195053411096154,0.503
0.018437975542231873,0.504
0.019233667067247086,0.505
0.01734717394669119,0.506
0.013184480954851818,0.507
0.007656357147013022,0.508
0.0018719145182705108,0.509
-0.003215453755930671,0.51
-0.007054737695783571,0.511
-0.00953691634707421,0.512
-0.010864041965771915,0.513
-0.011361152502084344,0.514
-0.011319807574779019,0.515
-0.010912007946558852,0.516
-0.010183059999555837,0.517
-0.009117715828906161,0.518
-0.007744744063525969,0.519
-0.0061957087311134305,0.52
-0.004657097521949566,0.521
-0.0032734650561959586,0.522
-0.0021125382233426826,0.523
-0.0012105967560398388,0.524
-0.0006264676924009553,0.525
-0.0004391270776871593,0.526
-0.0006725335915806231,0.527
-0.00119652917398839,0.528
-0.001686187789692482,0.529
-0.0016827375635654817,0.53
-0.000728355928527401,0.531
0.0014943886383648598,0.532
0.005052607250554711,0.533
0.009684215760347656,0.534
0.014811756602852158,0.535
0.019727805707634476,0.536
0.023859636617550885,0.537
0.026861027753591418,0.538
0.0284335074582855,0.539
0.028066724541899804,0.54
0.02494467184553376,0.541
0.01814486844279866,0.542
0.007121569755935378,0.543
-0.0076910566539839425,0.544
-0.024480837702400136,0.545
-0.04021249246092581,0.546
-0.05144141616017556,0.547
-0.05551274717299501,0.548
-0.051588197765875914,0.549
-0.04095040243064514,0.55
-0.026424077177973664,0.551
-0.011284982053288964,0.552
0.0017492435131063527,0.553
0.011075431567483286,0.554
0.016277849938137648,0.555
0.01786974033334585,0.556
0.01689683505035719,0.557
0.014550264203678581,0.558
0.011865515118267448,0.559
0.009546025823177776,0.56
0.007914662208653127,0.561
0.006957308779042245,0.562
0.006418871048353375,0.563
0.0059418746432785005,0.564
0.0052331390713404695,0.565
0.004186787417120345,0.566
0.002898666887647648,0.567
0.0015894605682997887,0.568
0.000502942860884482,0.569
-0.00015863452737493729,0.57
-0.0002556928837493139,0.571
0.0002689489873071365,0.572
0.0013589731989308088,0.573
0.0028216531207803405,0.574
0.004332061880665181,0.575
0.005477078217124197,0.576
0.0058349714519794595,0.577
0.005075543006019241,0.578
0.00304582852525274,0.579
-0.00019866502636551003,0.58
-0.0044072494146504765,0.581
-0.009156899881504975,0.582
-0.013884255999611511,0.583
-0.017952274599535745,0.584
-0.020747793301420812,0.585
-0.021756236664819597,0.586
-0.020588294828776065,0.587
-0.01702798381489125,0.588
-0.011159688457624262,0.589
-0.003492901326199464,0.59
0.005036317804037221,0.591
0.013189867974350705,0.592
0.019619949622489793,0.593
0.023129200335248023,0.594
0.02299321027314767,0.595
0.01923922243110841,0.596
0.01272646566319152,0.597
0.0049218231168876286,0.598
-0.0025535226224977178,0.599
-0.008334215873907471,0.6
-0.011510648036753194,0.601
-0.011709569070878723,0.602
-0.00916976011627845,0.603
-0.0047616447438083315,0.604
0.00018576700706954686,0.605
0.0042602564695954975,0.606
0.006383440428764199,0.607
0.006094531763968308,0.608
0.003611608458090566,0.609
-0.00031161812026252986,0.61
-0.0046452067634851135,0.611
-0.008377161696302562,0.612
-0.010773316915377307,0.613
-0.011521589322322088,0.614
-0.010709526366427993,0.615
-0.008680043155696452,0.616
-0.005866800533202985,0.617
-0.0026767199178974453,0.618
0.0005491313081482572,0.619
0.003507147459069635,0.62
0.005904343258384771,0.621
0.007489288288758028,0.622
0.008127405948791144,0.623
0.007861780115937831,0.624
0.0069100210488522214,0.625
0.005591069541345589,0.626
0.004211201607941607,0.627
0.0029580695282951765,0.628
0.0018551225754874809,0.629
0.0008016287401462467,0.63
-0.0003297651921950534,0.631
-0.0015975767509681846,0.632
-0.002939699057769965,0.633
-0.0041778339857722726,0.634
-0.005068609577198027,0.635
-0.005381633605981612,0.636
-0.004993375815959347,0.637
-0.003976686576609615,0.638
-0.002637117861925361,0.639
-0.0014542733357520016,0.64
-0.0009389705873893198,0.641
-0.0014540356642700107,0.642
-0.003062920901225211,0.643
-0.0054849619881135415,0.644
-0.008176731689127541,0.645
-0.010476761469141158,0.646
-0.011766725742419545,0.647
-0.011619399754713893,0.648
-0.009871962859331375,0.649
-0.006602201639811699,0.65
-0.002076245825999399,0.651
0.0032575447921513196,0.652
0.008753586122667254,0.653
0.013636178213137689,0.654
0.01719000377024953,0.655
0.018969314002180132,0.656
0.01888461896519868,0.657
0.017140885946123105,0.658
0.01409742096289926,0.659
0.010132492725773608,0.66
0.005566152971616001,0.661
0.0006378876651313038,0.662
-0.004468260504030676,0.663
-0.009544790367534474,0.664
-0.01428299789700633,0.665
-0.01826460176037137,0.666
-0.02101254479819377,0.667
-0.02207044499943572,0.668
-0.021119630530092682,0.669
-0.018105918343226494,0.67
-0.013283741281907072,0.671
-0.007137581962290264,0.672
-0.00025905625315028727,0.673
0.006701141362461229,0.674
0.01300351747030359,0.675
0.017847035450415476,0.676
0.020527980595170314,0.677
0.020657562639106807,0.678
0.018316401379636853,0.679
0.014048473950959227,0.68
0.008685790940654563,0.681
0.0031084030903878444,0.682
-0.001949132208148358,0.683
-0.0060078715557678455,0.684
-0.008869114372195869,0.685
-0.010562443387618968,0.686
-0.01125209214025089,0.687
-0.011145517768652071,0.688
-0.010430403140965654,0.689
-0.009250783396160225,0.69
-0.007720556254561157,0.691
-0.0059591582989524956,0.692
-0.004123479180373162,0.693
-0.002401672654413184,0.694
-0.0009651190766531864,0.695
9.071994679489732e-05,0.696
0.0007954312729334588,0.697
0.0013170721920666138,0.698
0.0019046630409124748,0.699
0.0027695945127929516,0.7
0.003986543784071066,0.701
0.005477580893086613,0.702
0.007038692905356154,0.703
0.008366630031454481,0.704
0.00912224106892058,0.705
0.009029165473624088,0.706
0.007936091846425528,0.707
0.00580203046440011,0.708
0.002638062258231729,0.709
-0.0015133760366364797,0.71
-0.0065111667931250445,0.711
-0.012006462931668526,0.712
-0.017384511077195245,0.713
-0.021813401256603356,0.714
-0.024396865767351426,0.715
-0.02437349152758584,0.716
-0.021283793595311237,0.717
-0.015082613655378262,0.718
-0.006242908243885232,0.719
0.004155646213153809,0.72
0.01449282105644862,0.721
0.02295608894830622,0.722
0.028066619612050415,0.723
0.029104048225153854,0.724
0.02624675142195089,0.725
0.020421942285096417,0.726
0.012959753865480912,0.727
0.005207616949257027,0.728
-0.0017593792769738546,0.729
-0.007302921224899608,0.73
-0.011268447977601743,0.731
-0.01388451876452823,0.732
-0.015529891011013396,0.733
-0.01647941530954885,0.734
-0.016759100595962063,0.735
-0.016178326548207788,0.736
-0.014503142775893573,0.737
-0.01165296134336832,0.738
-0.007793212571568257,0.739
-0.003279035702372894,0.74
0.0014696822277028925,0.741
0.006053111785825184,0.742
0.010105434938092092,0.743
0.013267359727398275,0.744
0.015168047227993656,0.745
0.015465560830910711,0.746
0.01394499696384224,0.747
0.010641288791334682,0.748
0.005946802666311607,0.749
0.0006199833765030074,0.75
-0.004362472566110709,0.751
-0.00805222664054098,0.752
-0.009779240907411708,0.753
-0.009342728023008316,0.754
-0.007085226672638204,0.755
-0.003785554234991054,0.756
-0.0003737399982821575,0.757
0.0023825207185207936,0.758
0.004045547992295186,0.759
0.004510057683217807,0.76
0.003905363229301681,0.761
0.002451082219002963,0.762
0.0003474782131039744,0.763
-0.002244194845829682,0.764
-0.005156832806493773,0.765
-0.008156448982712679,0.766
-0.010912756178421823,0.767
-0.013024997371905527,0.768
-0.014069474002159318,0.769
-0.01363993908274513,0.77
-0.011420008437526963,0.771
-0.007344587685914018,0.772
-0.0018062766562182099,0.773
0.004262159237434082,0.774
0.009576644230722802,0.775
0.012942160825502948,0.776
0.013720932407576962,0.777
0.012027884389912301,0.778
0.008567464949721293,0.779
0.004310161797800633,0.78
0.0002030708789812042,0.781
-0.0030438488526406226,0.782
-0.0050670842533027715,0.783
-0.005811893112723104,0.784
-0.005410106770540157,0.785
-0.004093728048446438,0.786
-0.0021797497175995717,0.787
-7.923605990235803e-05,0.788
0.0017262685415509096,0.789
0.0027790972020565645,0.79
0.0027966314337565927,0.791
0.0018028305790200511,0.792
0.00015611649687986904,0.793
-0.0015662454789709148,0.794
-0.00278563490506163,0.795
-0.003114427605204161,0.796
-0.0024183532934160296,0.797
-0.0007646796380012334,0.798
0.0016473724107464445,0.799
0.004502116357648979,0.8
0.007358161875295517,0.801
0.009691884484034815,0.802
0.010999809569295317,0.803
0.010914894673927839,0.804
0.00930126341394854,0.805
0.006263747588456387,0.806
0.002039278760359422,0.807
-0.0031074705223580095,0.808
-0.008848931922202968,0.809
-0.01467526712784667,0.81
-0.019843758070215156,0.811
-0.02349898130748605,0.812
-0.02493968044405939,0.813
-0.02385532608521943,0.814
-0.020380119346935986,0.815
-0.014990093597708557,0.816
-0.008351938861646079,0.817
-0.0011883608034951136,0.818
0.005815361399155678,0.819
0.012031166243116374,0.82
0.016857107786426843,0.821
0.019741636170840317,0.822
0.020304898487742366,0.823
0.01848270695274507,0.824
0.014611355371573083,0.825
0.009407265540036023,0.826
0.003825235784111222,0.827
-0.0011762179337063078,0.828
-0.004880665716232382,0.829
-0.006962345909045263,0.83
-0.007491865725186858,0.831
-0.006839652829153542,0.832
-0.005528361663980141,0.833
-0.004076278693028034,0.834
-0.00286857436319171,0.835
-0.0020833437292631955,0.836
-0.001694070419273688,0.837
-0.0015258068011867645,0.838
-0.0013135385875632391,0.839
-0.0007654750597488864,0.84
0.0003373360956816948,0.841
0.002024204273106735,0.842
0.004070466433156873,0.843
0.006057787274288787,0.844
0.007549363077159284,0.845
0.008263271753098655,0.846
0.008122574021026518,0.847
0.007169321509763969,0.848
0.005445921370252193,0.849
0.002938220114720014,0.85
-0.0003990787106010024,0.851
-0.004532354048374221,0.852
-0.00918251036000117,0.853
-0.013700388316915463,0.854
-0.017118055874162697,0.855
-0.018436472600846028,0.856
-0.017052770047754465,0.857
-0.013116382244904771,0.858
-0.007596976194746767,0.859
-0.0019846320337064487,0.86
0.0022433637315473843,0.861
0.004137340046346357,0.862
0.0035423637453458126,0.863
0.001039590267081305,0.864
-0.002328279613412382,0.865
-0.0053997263282081955,0.866
-0.007208227438351827,0.867
-0.0071684133065665024,0.868
-0.005094904032258642,0.869
-0.0011607540391063145,0.87
0.004093084427386349,0.871
0.009753003591041724,0.872
0.01465965769599167,0.873
0.01767549246415511,0.874
0.017979763694287536,0.875
0.015285231934395311,0.876
0.009930489882006252,0.877
0.0028259595775895646,0.878
-0.004741214486223274,0.879
-0.011399212462043121,0.88
-0.015991393510776122,0.881
-0.017763212554838734,0.882
-0.0164023192774392,0.883
-0.012019630082618698,0.884
-0.005141278676027716,0.885
0.00329479945791437,0.886
0.012001502737883717,0.887
0.01954806008631652,0.888
0.024681611268328588,0.889
0.02661780031282997,0.89
0.02518696817109363,0.891
0.020810891696945614,0.892
0.014331150061259967,0.893
0.006746239597962719,0.894
-0.0010538612039971843,0.895
-0.008467277419549793,0.896
-0.015215173647851512,0.897
-0.021224960689328828,0.898
-0.026424725232336004,0.899
-0.030563081161864965,0.9
-0.03315777129627287,0.901
-0.03361587120600066,0.902
-0.03149098700843421,0.903
-0.02674916243995284,0.904
-0.01986786910268128,0.905
-0.011702544562536143,0.906
-0.0032409263873178686,0.907
0.00460825788289159,0.908
0.01116553048191905,0.909
0.01608175092980573,0.91
0.019360210810761322,0.911
0.021284468121794613,0.912
0.022271119526948623,0.913
0.022667139528921763,0.914
0.02253515826958653,0.915
0.02153699563240023,0.916
0.019038940944166017,0.917
0.014451602352488949,0.918
0.007665234793354734,0.919
-0.0006637619508975277,0.92
-0.00918605120362546,0.921
-0.01625524235489936,0.922
-0.020426990857020256,0.923
-0.02091760331893163,0.924
-0.017893170231914,0.925
-0.012409320776923178,0.926
-0.006002724028860638,0.927
-0.0001662157457511124,0.928
0.0040477777931208,0.929
0.006183874905377481,0.93
0.006338738363007511,0.931
0.005029487997242559,0.932
0.0030232498528140186,0.933
0.0011044651550678685,0.934
-0.0001650883614309778,0.935
-0.0005774546175295812,0.936
-0.00025883418212578526,0.937
0.00045795033690084147,0.938
0.001201752208523216,0.939
0.0017038515847893581,0.94
0.0018578846980486998,0.941
0.001709449220360564,0.942
0.001412697873841726,0.943
0.001139510044588385,0.944
0.000956231345277243,0.945
0.0007660209145248759,0.946
0.0003520632813398311,0.947
-0.000544573685281388,0.948
-0.0021491927484533213,0.949
-0.0045740742967897725,0.95
-0.007738212311668899,0.951
-0.01129865871141525,0.952
-0.014646187516718402,0.953
-0.017022327242950084,0.954
-0.01771947234754811,0.955
-0.016266087046215124,0.956
-0.012540144936110895,0.957
-0.006806862452807337,0.958
0.0003090569485274221,0.959
0.007919038286373574,0.96
0.01503247812717562,0.961
0.02073683667417884,0.962
0.024326705277815608,0.963
0.02537623988362708,0.964
0.023791328969756623,0.965
0.019817311752724383,0.966
0.013948659659874733,0.967
0.006764508514907697,0.968
-0.0012056176711807065,0.969
-0.00949552621322499,0.97
-0.01760351688599494,0.971
-0.02485812125382958,0.972
-0.030348393193205137,0.973
-0.033038122773518,0.974
-0.032076747613139105,0.975
-0.02712012561190553,0.976
-0.018471992806766133,0.977
-0.00705441913377469,0.978
0.005678387476140229,0.979
0.017866634584017976,0.98
0.027527018521942958,0.981
0.03302471575604352,0.982
0.033551285289072336,0.983
0.029379357055692935,0.984
0.021786437144542824,0.985
0.012658724312445092,0.986
0.003908518127892905,0.987
-0.0030487298403862055,0.988
-0.00755203137278981,0.989
-0.009670975970724933,0.99
-0.009989834477294545,0.991
-0.009290422427195293,0.992
-0.008260564858135056,0.993
-0.007343082437590753,0.994
-0.006733592960407083,0.995
-0.006458843969387667,0.996
-0.006469685251082223,0.997
-0.006700815267581288,0.998
-0.007081756667803596,0.999
-0.007534634526949321,1.0
-0.00797958329453042,1.001
-0.008330552155862071,1.002
-0.008487004783201637,1.003
-0.00834197969966466,1.004
-0.007798029779758018,1.005
-0.0067747053294848255,1.006
-0.005216309681968763,1.007
-0.0031142295454855977,1.008
-0.0005367554881798207,1.009
0.002356148027349653,1.01
0.005318127970133159,1.011
0.008025322183102495,1.012
0.010094590734486904,1.013
0.011145686830466066,1.014
0.010924434925919461,1.015
0.009434999370821581,1.016
0.006984733011204834,1.017
0.004109720395831958,1.018
0.001438781914762283,1.019
-0.00044270554247654236,1.02
-0.0011112425903702051,1.021
-0.00039773203736497427,1.022
0.0015787669588993203,1.023
0.004456888904309526,1.024
0.007726636052766191,1.025
0.010822022158949458,1.026
0.013178495206884074,1.027
0.014245196097778615,1.028
0.01349547844677526,1.029
0.010485942371701801,1.03
0.004956117389588131,1.031
-0.0030518847828808183,1.032
-0.01306835190836427,1.033
-0.024107270089971048,1.034
-0.03466648104716052,1.035
-0.04287697631879239,1.036
-0.046859524397668106,1.037
-0.04524781100993837,1.038
-0.0376802203903513,1.039
-0.02501719857031785,1.04
-0.009164323896131773,1.041
0.007416888864912282,1.042
0.02229027157805494,1.043
0.0335236444767468,1.044
0.03997708992833186,1.045
0.04138844293467256,1.046
0.03828585205970845,1.047
0.031767798318479396,1.048
0.023208963190916778,1.049
0.013984607225178804,1.05
0.005258290353096273,1.051
-0.0021748892628478318,1.052
-0.007950495146052793,1.053
-0.012057932957738205,1.054
-0.0146685762748574,1.055
-0.01598505976720733,1.056
-0.016187223224070308,1.057
-0.015437846461614876,1.058
-0.013899879904970982,1.059
-0.011765850220130476,1.06
-0.009270475843848734,1.061
-0.006639687643136129,1.062
-0.00401625546405688,1.063
-0.0014583092641353265,1.064
0.0009809112038119123,1.065
0.0031792694882346044,1.066
0.004944188628438886,1.067
0.00608026955491337,1.068
0.006477708289264671,1.069
0.00616377971048054,1.07
0.00529483802633437,1.071
0.004103623122787959,1.072
0.002822592035512003,1.073
0.001614549589105016,1.074
0.000549169072584941,1.075
-0.00036655084832484244,1.076
-0.0011341269590820313,1.077
-0.0017218043542889952,1.078
-0.0020610977530371357,1.079
-0.00208624878630758,1.08
-0.0017812519127645842,1.081
-0.0012041484431185058,1.082
-0.0004997632196158221,1.083
0.00010686731868029501,1.084
0.0003703714764037203,1.085
0.00011880228656973668,1.086
-0.0006820543292515223,1.087
-0.0019202158130073453,1.088
-0.0033668105866116564,1.089
-0.00472479726593932,1.09
-0.0056883722643457915,1.091
-0.006007785412597485,1.092
-0.005552556128532857,1.093
-0.004355363490512028,1.094
-0.0026318818101094725,1.095
-0.0007823655830356982,1.096
0.000657467478080599,1.097
0.0011691995823464663,1.098
0.00047923718053432586,1.099
-0.0012859367399738954,1.1
-0.0036242733684220783,1.101
-0.005815643524492691,1.102
-0.0071183807650329785,1.103
-0.006949160405963892,1.104
-0.005020666189064915,1.105
-0.0014313437003501293,1.106
0.003303701369220009,1.107
0.008315842192017045,1.108
0.012575837610373343,1.109
0.015185994430137902,1.11
0.015652772913643503,1.111
0.014006885918899871,1.112
0.010720938992681645,1.113
0.0064947638602981346,1.114
0.0020359077300440022,1.115
-0.0020791886854871853,1.116
-0.005456507661801363,1.117
-0.007885232849898715,1.118
-0.009319905355049606,1.119
-0.009856230779364594,1.12
-0.009695622046421428,1.121
-0.009084823002567778,1.122
-0.008240627404583187,1.123
-0.007296506927694681,1.124
-0.006285362478023887,1.125
-0.005142653142645214,1.126
-0.0037326488219612355,1.127
-0.001920697319667342,1.128
0.0003125554633969553,1.129
0.002771802405686126,1.13
0.005044879403678189,1.131
0.00662651407360113,1.132
0.007109678738585455,1.133
0.00634760804742591,1.134
0.004507646213042395,1.135
0.0020107914659268492,1.136
-0.0005921610845116654,1.137
-0.002777234032563263,1.138
-0.004203303931975142,1.139
-0.0047910800359699975,1.14
-0.004678274989913567,1.141
-0.0041006561746000664,1.142
-0.003296772300138908,1.143
-0.0024690908096681374,1.144
-0.0017700648798811293,1.145
-0.0013071827800265141,1.146
-0.001151763038309364,1.147
-0.0013131485988833493,1.148
-0.0017062718464469144,1.149
-0.0021611945268592337,1.15
-0.0024635160894895744,1.151
-0.0023985227019195183,1.152
-0.0017930003566994364,1.153
-0.0005692299612714272,1.154
0.0011844755232712006,1.155
0.0031889324530434125,1.156
0.005061760678107589,1.157
0.0064637596755851515,1.158
0.0071845317484705955,1.159
0.007134524466315834,1.16
0.006300005167592666,1.161
0.0047211136180744994,1.162
0.00251549212328861,1.163
-8.218890112087743e-05,1.164
-0.0027168743302648955,1.165
-0.00497996460929868,1.166
-0.006537502038211622,1.167
-0.007239023311836922,1.168
-0.007124799117276506,1.169
-0.006354679866848056,1.17
-0.0051486920244019265,1.171
-0.0037754233763375587,1.172
-0.002537404633110771,1.173
-0.0016949456902686923,1.174
-0.0013534560693944538,1.175
-0.0014134316484643232,1.176
-0.001640782289909741,1.177
-0.0018145743608781674,1.178
-0.0018419004257313348,1.179
-0.001752407203552932,1.18
-0.0016144871226029586,1.181
-0.001465773452402818,1.182
-0.001279598640109365,1.183
-0.0009688167097635497,1.184
-0.0004291964868047791,1.185
0.000405387093799587,1.186
0.0015302107602055974,1.187
0.002866483300191385,1.188
0.004259615327731446,1.189
0.0054816659739672586,1.19
0.006287693560879867,1.191
0.0065084501104041995,1.192
0.006101996222997503,1.193
0.0051520253219403764,1.194
0.003841566901186635,1.195
0.002400505065021747,1.196
0.0010349426652839075,1.197
-0.00012527962222633768,1.198
-0.001049324048141074,1.199
-0.0018143401758232607,1.2
-0.002587096018820554,1.201
-0.003541363404111245,1.202
-0.00472658479820883,1.203
-0.005984226166630289,1.204
-0.006997346721205444,1.205
-0.0074340192152108605,1.206
-0.007071929085001557,1.207
-0.00586252369521161,1.208
-0.00395982014528753,1.209
-0.0017034112749433048,1.21
0.0004572350237493345,1.211
0.0020510449770672866,1.212
0.002657964992836826,1.213
0.001978838087205263,1.214
-9.898223154042915e-05,1.215
-0.0034454062017223335,1.216
-0.007646921531058431,1.217
-0.012010949187083815,1.218
-0.01564712749147454,1.219
-0.017629818599593745,1.22
-0.017203672721879008,1.221
-0.013956268410878731,1.222
-0.007909331781755454,1.223
0.0004354700690924416,1.224
0.010054039549644293,1.225
0.0194400652435984,1.226
0.026879488837434597,1.227
0.030941433396134446,1.228
0.03092224018824612,1.229
0.027008325054484167,1.23
0.02014534893359032,1.231
0.011715128594359619,1.232
0.0031445632564105117,1.233
-0.00442033785123069,1.234
-0.0102815415285249,1.235
-0.014182402977537457,1.236
-0.0161865461517555,1.237
-0.01652533754491197,1.238
-0.015486947429460319,1.239
-0.013383886811042607,1.24
-0.010566563714394923,1.241
-0.0074272279224558806,1.242
-0.004373983596755101,1.243
-0.0017898668632726385,1.244
2.853639107308018e-06,1.245
0.0007969588685826397,1.246
0.0005837682505863739,1.247
-0.00041711737736629126,1.248
-0.0018389668627178868,1.249
-0.0032862606516485017,1.25
-0.004407421999850081,1.251
-0.004925002509002361,1.252
-0.004645460129451395,1.253
-0.003470845520704955,1.254
-0.0014406903504809044,1.255
0.0012241448832167354,1.256
0.004129197515728201,1.257
0.00676974549212027,1.258
0.0086389110266449,1.259
0.009377291740652988,1.26
0.008905747707059472,1.261
0.007445532051040411,1.262
0.005411076997417431,1.263
0.0032527658035969593,1.264
0.0013171966051678994,1.265
-0.0002616380571209025,1.266
-0.0016234657690759164,1.267
-0.003135041108028895,1.268
-0.005217941922609402,1.269
-0.008132835985904259,1.27
-0.01180917158394432,1.271
-0.015764455103265018,1.272
-0.01915214276766775,1.273
-0.02095485643550647,1.274
-0.020270080254855896,1.275
-0.016577836627850524,1.276
-0.009904490208294885,1.277
-0.0008928984912928993,1.278
0.009193971319964871,1.279
0.018630405464665812,1.28
0.02565270958639072,1.281
0.029002306258788347,1.282
0.028274485696938235,1.283
0.023947145437048956,1.284
0.017172615867432604,1.285
0.009431348958788117,1.286
0.0021394671304882334,1.287
-0.003669064463490371,1.288
-0.007496931921667858,1.289
-0.009368401137248973,1.29
-0.00968261916860149,1.291
-0.008999449426364868,1.292
-0.007854237994423245,1.293
-0.0066585821197845466,1.294
-0.005670981715229864,1.295
-0.005009050431930374,1.296
-0.004691112943954703,1.297
-0.004694009291489451,1.298
-0.00500042413231979,1.299
-0.005601378398618626,1.3
-0.006451438600338082,1.301
-0.0074278818485877555,1.302
-0.00833018000792604,1.303
-0.008897726964613039,1.304
-0.008846211852768094,1.305
-0.0079503899595462,1.306
-0.006128738014341737,1.307
-0.003468721688184398,1.308
-0.0002099441555282418,1.309
0.003285961654985579,1.31
0.006583825008751497,1.311
0.00924912725667744,1.312
0.010942704937067942,1.313
0.011498741194287718,1.314
0.010940472981502336,1.315
0.009442611400477394,1.316
0.007283690761257362,1.317
0.004802852138694482,1.318
0.002343546119986717,1.319
0.00017827867098219909,1.32
-0.0015423762569715224,1.321
-0.0027796040586097323,1.322
-0.0035687691717849732,1.323
-0.003989353710804372,1.324
-0.004133378558813108,1.325
-0.004076410597442071,1.326
-0.003874466168659294,1.327
-0.003578516948973736,1.328
-0.0032330806025488686,1.329
-0.002861612239068853,1.33
-0.002469871307903746,1.331
-0.002064282608436571,1.332
-0.0016592629487090084,1.333
-0.001274943901443245,1.334
-0.0009462520884014385,1.335
-0.0007377239504430114,1.336
-0.0007289251814014537,1.337
-0.0009610841564676629,1.338
-0.0013900114003214648,1.339
-0.0018893687062467748,1.34
-0.0022985113670900407,1.341
-0.0024778181304889665,1.342
-0.0023366708426433838,1.343
-0.0018403546181244759,1.344
-0.0010226207251627984,1.345
1.0219225966901445e-05,1.346
0.0011023053908682371,1.347
0.0020760151414508194,1.348
0.0027449188156967006,1.349
0.002937626633201181,1.35
0.0025636313912595675,1.351
0.0016841642396528854,1.352
0.0005125666100183197,1.353
-0.0006689061541925716,1.354
-0.001611911212521269,1.355
-0.0021630071287096096,1.356
-0.0022798353108398803,1.357
-0.0020233298659981967,1.358
-0.0015289061759603054,1.359
-0.0009595660414858958,1.36
-0.00045534723807889854,1.361
-9.701314064376168e-05,1.362
0.00010052662816709232,1.363
0.00016605343148464076,1.364
0.0001419255644522743,1.365
6.662434259276074e-05,1.366
-2.977917673193536e-05,1.367
-0.0001265256828250972,1.368
-0.00021321205309391187,1.369
-0.00029378889615837116,1.37
-0.0003907146644874129,1.371
-0.0005364698045979608,1.372
-0.0007481947514460215,1.373
-0.0010095679533088653,1.374
-0.0012825906618678766,1.375
-0.0015279475827059664,1.376
-0.0017082028270806304,1.377
-0.0017865346968904696,1.378
-0.001735965805001918,1.379
-0.001551184793586019,1.38
-0.0012509478327425003,1.381
-0.0008727637073274561,1.382
-0.0004726071079444733,1.383
-0.00012897578501354324,1.384
7.160390905168619e-05,1.385
7.544437047045751e-05,1.386
-0.00010005929268602873,1.387
-0.00036162207290184914,1.388
-0.0005773350618379573,1.389
-0.0006391873534847528,1.39
-0.0005139635677142654,1.391
-0.000257792876208139,1.392
7.363724165573241e-06,1.393
0.00014241511801956614,1.394
4.192573960430993e-05,1.395
-0.00032585792852446904,1.396
-0.0008967584474460554,1.397
-0.0015246012605722404,1.398
-0.0020311090143710748,1.399
-0.0022631100184679815,1.4
-0.00213806282306185,1.401
-0.0016703215087689569,1.402
-0.0009628769374854446,1.403
-0.00016099127664350328,1.404
0.0005991032356451931,1.405
0.0012032148871376322,1.406
0.0015399993938129777,1.407
0.0015050976206372516,1.408
0.00105507334177278,1.409
0.0002624494686324823,1.41
-0.0006887299832771027,1.411
-0.0015682434436034764,1.412
-0.002185751914813157,1.413
-0.00245035707727992,1.414
-0.0023775314097957624,1.415
-0.0020623609732285365,1.416
-0.0016390814804193524,1.417
-0.0012287266325011793,1.418
-0.0009000559940297228,1.419
-0.0006606855893371298,1.42
-0.0004638410551342397,1.421
-0.00022850075911955918,1.422
0.00012945200071819033,1.423
0.0006696709157110841,1.424
0.0013964347263396245,1.425
0.0022219917648518407,1.426
0.0029587829980167336,1.427
0.00335533174178266,1.428
0.0031521911297355616,1.429
0.002155430384046764,1.43
0.0003249717923452833,1.431
-0.0021684229370071825,1.432
-0.00495345783544558,1.433
-0.007526620185583398,1.434
-0.009358702036602369,1.435
-0.010019625710656581,1.436
-0.009286624024519635,1.437
-0.0072025680627156655,1.438
-0.004072277209830841,1.439
-0.00039365048283409465,1.44
0.003259142126493516,1.441
0.006343158507457804,1.442
0.008416566363668608,1.443
0.009206487457528022,1.444
0.008673718758069512,1.445
0.007023971667061616,1.446
0.004651407726937642,1.447
0.0020335119571393383,1.448
-0.0003904538667287042,1.449
-0.0023082365155187795,1.45
-0.003564484015824072,1.451
-0.004150895702847726,1.452
-0.004176123562177779,1.453
-0.003816468570681278,1.454
-0.0032621329543268086,1.455
-0.002682059923536448,1.456
-0.0022070056018708667,1.457
-0.0019139066217378885,1.458
-0.0018100751342537127,1.459
-0.0018360848578430752,1.46
-0.0018938898261263398,1.461
-0.001884713444692722,1.462
-0.0017444935755449964,1.463
-0.001465390199025735,1.464
-0.0010937431970838164,1.465
-0.0007112174669682654,1.466
-0.00040363326551101674,1.467
-0.00022386746752495922,1.468
-0.0001662001431815617,1.469
-0.0001617148449091521,1.47
-9.962790794834316e-05,1.471
0.00012522136117299831,1.472
0.0005545676209277639,1.473
0.0011258809594386155,1.474
0.0016725614150935484,1.475
0.001970514110990404,1.476
0.0018226347632213868,1.477
0.0011577039656479318,1.478
8.752744280068523e-05,1.479
-0.0011218856503469432,1.48
-0.0021466560454959983,1.481
-0.0027234084207052264,1.482
-0.002742610856425089,1.483
-0.00227295856737858,1.484
-0.0015203596859297162,1.485
-0.0007547020362199098,1.486
-0.0002132656608862998,1.487
-8.589430422129398e-06,1.488
-0.00010713746561325085,1.489
-0.0003913108945242535,1.49
-0.0007364096432437863,1.491
-0.0010480281144640772,1.492
-0.0012677859922316786,1.493
-0.0013702422823190794,1.494
-0.0013576059210379395,1.495
-0.0012553343701041688,1.496
-0.0011093912923479175,1.497
-0.0009732241891385089,1.498
-0.0008803118558195217,1.499
-0.0008254789786336646,1.5
-0.0007728883999043475,1.501
-0.0006816906352839973,1.502
-0.0005292843701766981,1.503
-0.0003142148851030849,1.504
-4.466436353873539e-05,1.505
0.00026132156864818216,1.506
0.0005658155335219488,1.507
0.000818915051835831,1.508
0.0009809923928307631,1.509
0.0010319663199212913,1.51
0.0009669774263662202,1.511
0.0007936787149410471,1.512
0.0005341962862732374,1.513
0.00022515679616160963,1.514
-9.511845247595812e-05,1.515
-0.0004089496350446493,1.516
-0.0007258436776842131,1.517
-0.001064510132916969,1.518
-0.0014323770379813649,1.519
-0.0018150403907766827,1.52
-0.0021718541645557653,1.521
-0.002443186106310339,1.522
-0.0025716073208074453,1.523
-0.0025211723069280515,1.524
-0.0022797090941504322,1.525
-0.0018520629240637147,1.526
-0.0012662400321206604,1.527
-0.000590050005813823,1.528
6.72060634963758e-05,1.529
0.0005760466452183766,1.53
0.0008167569658967716,1.531
0.0007101370263434581,1.532
0.00024894737916840773,1.533
-0.0004899460732100518,1.534
-0.0013686858705170162,1.535
-0.002221547793620439,1.536
-0.0028741840513801646,1.537
-0.003170706350695015,1.538
-0.0030283066619478088,1.539
-0.002478325373598348,1.54
-0.0016451557156557124,1.541
-0.0006866917566542835,1.542
0.000247087178841881,1.543
0.0010296971889973772,1.544
0.0015745393425809153,1.545
0.0018509736260903294,1.546
0.001881987357825094,1.547
0.0017277790919636494,1.548
0.0014676636047133975,1.549
0.0011796787931213446,1.55
0.000919076878691815,1.551
0.0007086149734978762,1.552
0.0005438222202541993,1.553
0.00040283553952343996,1.554
0.00025603615184842886,1.555
7.190749764049832e-05,1.556
-0.00018207717613173376,1.557
-0.000530141201354842,1.558
-0.0009675151234210578,1.559
-0.0014495798132088352,1.56
-0.0018995045368436578,1.561
-0.002223627431064315,1.562
-0.0023333668388743024,1.563
-0.0021791363429019984,1.564
-0.0017881387506673663,1.565
-0.0012750679756892693,1.566
-0.0007999563184963634,1.567
-0.0004995575283976235,1.568
-0.0004406417635965976,1.569
-0.0006060638469078514,1.57
-0.000913132086055636,1.571
-0.001267455033962637,1.572
-0.0016117758197535669,1.573
-0.0019200024903811585,1.574
-0.0021570103222420794,1.575
-0.002266442316807686,1.576
-0.0022012261987812286,1.577
-0.001953691154214357,1.578
-0.0015549789944281924,1.579
-0.0010573850375953937,1.58
-0.0005197126950174684,1.581
9.488849738309435e-07,1.582
0.00045365748652249546,1.583
0.0008006262827243347,1.584
0.001026245226042524,1.585
0.0011321449673496833,1.586
0.0011206091489597164,1.587
0.000986573461462335,1.588
0.0007219611830346628,1.589
0.0003215169613477808,1.59
-0.00022354945617260097,1.591
-0.0009274663194898036,1.592
-0.0017739752672961762,1.593
-0.002675255005803185,1.594
-0.0034740805288212746,1.595
-0.0039666935796059,1.596
-0.0039282851345369355,1.597
-0.003174633333675785,1.598
-0.0016677909504756675,1.599
0.00039997664575372796,1.6
0.0026227207838690637,1.601
0.004499463187462956,1.602
0.005592083357100701,1.603
0.005662954979157613,1.604
0.004743002037723052,1.605
0.00310246076319152,1.606
0.0011516356617596408,1.607
-0.000684276384224545,1.608
-0.002084460030877444,1.609
-0.002904816809090209,1.61
-0.0031807502518105654,1.611
-0.0030761341326230253,1.612
-0.002800805934977291,1.613
-0.002526706776606255,1.614
-0.0023431478632654286,1.615
-0.0022611448326072363,1.616
-0.0022416100873515555,1.617
-0.002230692300797777,1.618
-0.00219642012369357,1.619
-0.002140646410820347,1.62
-0.0020709857652377096,1.621
-0.001965645659106164,1.622
-0.0017705423788129675,1.623
-0.0014351084118699475,1.624
-0.0009547528458226258,1.625
-0.0003767809251194532,1.626
0.00022371253387542872,1.627
0.0007600888612251262,1.628
0.0011407763741110967,1.629
0.0012861308600519315,1.63
0.001156026890665741,1.631
0.0007720237070642531,1.632
0.00021662125095970133,1.633
-0.00039515072037044573,1.634
-0.0009506544020337818,1.635
-0.0013515419759535323,1.636
-0.0015107977587948034,1.637
-0.0013718735792991744,1.638
-0.0009486364390863994,1.639
-0.0003402965674402969,1.64
0.0003017391497401943,1.641
0.0008269626497941926,1.642
0.0011252576150998983,1.643
0.0011434566663369719,1.644
0.000882417013032579,1.645
0.00038553859547195456,1.646
-0.00027441793791506863,1.647
-0.0010139433345965198,1.648
-0.0017594332237074448,1.649
-0.0024504767685126112,1.65
-0.0030215937795265435,1.651
-0.0033952611537019202,1.652
-0.0035018243473317946,1.653
-0.0033025077523192504,1.654
-0.0027994241826073073,1.655
-0.0020305575738167156,1.656
-0.0010607383645222224,1.657
1.806281530029527e-05,1.658
0.0010903791966319575,1.659
0.002032811549052533,1.66
0.0027301710728453122,1.661
0.0030924434450910745,1.662
0.0030748700673898822,1.663
0.002687801708902236,1.664
0.001986059865839816,1.665
0.001057032220711485,1.666
2.342463466108028e-05,1.667
-0.000966180477660753,1.668
-0.0017753384432716724,1.669
-0.0023173233359139677,1.67
-0.0025703455422600037,1.671
-0.0025754777794041272,1.672
-0.0024174559042404852,1.673
-0.002192444455800789,1.674
-0.0019850113555021634,1.675
-0.0018571778199423725,1.676
-0.0018328959336723228,1.677
-0.0018861469344205297,1.678
-0.0019529888635131387,1.679
-0.0019597356452770998,1.68
-0.001846581959122157,1.681
-0.0015829596605710034,1.682
-0.0011740107564538562,1.683
-0.0006508874081032783,1.684
-5.664487377943152e-05,1.685
0.0005533359938741366,1.686
0.0011080001405704702,1.687
0.0015276112924703807,1.688
0.001737812770261905,1.689
0.0016971874119197771,1.69
0.0014251952319754742,1.691
0.00099450715639915,1.692
0.00048904748069845,1.693
-3.552802846070065e-05,1.694
-0.0005600272272426935,1.695
-0.001078148573589538,1.696
-0.001565535921549244,1.697
-0.001965227605463388,1.698
-0.0021973279091447107,1.699
-0.002189917489116039,1.7
-0.0019211956727615657,1.701
-0.0014500887469738356,1.702
-0.0009106194610008562,1.703
-0.0004695009345658731,1.704
-0.00027032171567795886,1.705
-0.000389315652553341,1.706
-0.0008154321596415409,1.707
-0.0014591551895277717,1.708
-0.002182455340127643,1.709
-0.0028256933339493935,1.71
-0.003222784891473416,1.711
-0.0032181037195706344,1.712
-0.0026908791537461727,1.713
-0.0015861294654090437,1.714
5.87475419824092e-05,1.715
0.0021149348870083545,1.716
0.004391784021014173,1.717
0.006664139591897883,1.718
0.008671449052191952,1.719
0.010098542837946955,1.72
0.010576383549285426,1.721
0.0097347906832235,1.722
0.007299501880117779,1.723
0.003204331874661195,1.724
-0.0022921764190706167,1.725
-0.008521427517563813,1.726
-0.014448511293815944,1.727
-0.018902074812754133,1.728
-0.020919762609335073,1.729
-0.02006681351989968,1.73
-0.016590123471233273,1.731
-0.011327150263124374,1.732
-0.005406821314631172,1.733
0.00011511956346134616,1.734
0.004526007507077842,1.735
0.007534590673472424,1.736
0.009179578283047133,1.737
0.00968350729122507,1.738
0.009341228138012496,1.739
0.008441774936062496,1.74
0.0072087186426238415,1.741
0.0057876384319003075,1.742
0.004282914076613994,1.743
0.0027886357681576454,1.744
0.0013821391280365862,1.745
0.00010737344109110084,1.746
-0.001014557589884314,1.747
-0.0019501460186935747,1.748
-0.0026385441831482405,1.749
-0.003018187509910481,1.75
-0.0030635984893197746,1.751
-0.0028057257004914255,1.752
-0.0023354753521984796,1.753
-0.0017899400164026577,1.754
-0.0013175433939695241,1.755
-0.0010324780839463775,1.756
-0.0009815680010360366,1.757
-0.0011366939427709315,1.758
-0.0014128434286057468,1.759
-0.0017042041139339967,1.76
-0.0019174443337320645,1.761
-0.0019881951841221293,1.762
-0.001889894922851563,1.763
-0.0016417960575128778,1.764
-0.0013042594361653372,1.765
-0.000950827025130573,1.766
-0.0006306336558310156,1.767
-0.00034780776099858663,1.768
-7.456140519544253e-05,1.769
0.00020896459702998194,1.77
0.0004824479174094855,1.771
0.0006880839236696261,1.772
0.0007593102141501576,1.773
0.0006518359253983955,1.774
0.0003622043735426011,1.775
-7.100214767494109e-05,1.776
-0.0005810646721039074,1.777
-0.0010925151093264262,1.778
-0.001535015043545179,1.779
-0.0018519035392433269,1.78
-0.0020108374897451764,1.781
-0.002011471865296169,1.782
-0.0018780012702856448,1.783
-0.0016421509982368397,1.784
-0.0013338034787801537,1.785
-0.0009822798389848204,1.786
-0.0006165752114199877,1.787
-0.00026050774468811054,1.788
6.444263792568879e-05,1.789
0.000328765898887795,1.79
0.0004985150870657418,1.791
0.0005497612298094935,1.792
0.00047392240432643257,1.793
0.0002813334395385741,1.794
1.2761842448590186e-05,1.795
-0.0002584473049259656,1.796
-0.00045054901243065076,1.797
-0.0005115911777028787,1.798
-0.00044616420880590093,1.799
-0.0003152417743866202,1.8
-0.00020556284967302352,1.801
-0.00018822145625615007,1.802
-0.00029693038476873927,1.803
-0.0005280713396731783,1.804
-0.0008440499896528107,1.805
-0.001177368915927116,1.806
-0.0014495329317815698,1.807
-0.001605390348191084,1.808
-0.001636868746124974,1.809
-0.00157323228728872,1.81
-0.0014504548463669521,1.811
-0.0012914100292010155,1.812
-0.0011059779296061227,1.813
-0.0008966260999466475,1.814
-0.0006677415851560246,1.815
-0.00044161565552939196,1.816
-0.0002571777532675519,1.817
-0.00013933583138192596,1.818
-7.768502456764032e-05,1.819
-4.916883041659989e-05,1.82
-5.4179581750979865e-05,1.821
-0.00011585548583546934,1.822
-0.0002462410921063038,1.823
-0.0004193786658541796,1.824
-0.0005757952667665232,1.825
-0.00065142454843359,1.826
-0.0006108623649003512,1.827
-0.0004681149531865783,1.828
-0.000276438238355888,1.829
-9.468721546738719e-05,1.83
3.0191125240370208e-05,1.831
5.729756903266863e-05,1.832
-4.3234731205446086e-05,1.833
-0.0002715198533657296,1.834
-0.0005953232018990677,1.835
-0.0009583186181519852,1.836
-0.0012832519282528604,1.837
-0.0014878253744814805,1.838
-0.0015179335901546343,1.839
-0.0013733154946833541,1.84
-0.0011079003956893355,1.841
-0.0008097354721383355,1.842
-0.0005740173655434192,1.843
-0.0004699094731013475,1.844
-0.0005109797635790404,1.845
-0.0006581547688072975,1.846
-0.0008532060372429843,1.847
-0.0010455563114459782,1.848
-0.0011991081330696455,1.849
-0.0012929704799541776,1.85
-0.001314118077514206,1.851
-0.001243701586195402,1.852
-0.0010583669496809001,1.853
-0.0007511440540790921,1.854
-0.00035297402986676156,1.855
6.799597937983857e-05,1.856
0.00043522182272115494,1.857
0.0006952841422324479,1.858
0.0008212247349792247,1.859
0.0007979779589439576,1.86
0.0006218533552020787,1.861
0.0003146470759965407,1.862
-6.484429894307016e-05,1.863
-0.0004277100455826192,1.864
-0.0006888465754721105,1.865
-0.0008064054877496001,1.866
-0.0007981069306886473,1.867
-0.0007303619128335416,1.868
-0.0006859556134099744,1.869
-0.0007230862716403998,1.87
-0.0008513338193800818,1.871
-0.0010391747612358419,1.872
-0.0012388965277466404,1.873
-0.0014047307144715204,1.874
-0.0014980935011430468,1.875
-0.0014905544626890445,1.876
-0.0013733840962104624,1.877
-0.0011671825301078432,1.878
-0.0009168269050381738,1.879
-0.0006759735144727418,1.88
-0.0004954126802010538,1.881
-0.0004148743626743273,1.882
-0.00045426618358194223,1.883
-0.0006049256786574798,1.884
-0.0008237168168517429,1.885
-0.0010375122837441605,1.886
-0.0011669386911499061,1.887
-0.0011576948319975077,1.888
-0.0009894404403046817,1.889
-0.0006705856306587987,1.89
-0.00024909275034470235,1.891
0.00018139292392641308,1.892
0.0005141219964838155,1.893
0.0006814610985442833,1.894
0.000680657978805348,1.895
0.0005584174579311708,1.896
0.0003756928339559239,1.897
0.0001736400559877512,1.898
-4.526373488383155e-05,1.899
-0.00030912793525955624,1.9
-0.0006497441245893462,1.901
-0.0010788385434845683,1.902
-0.001572233820307844,1.903
-0.0020553520752476123,1.904
-0.0024069025655066526,1.905
-0.002501955217878011,1.906
-0.0022704682768324054,1.907
-0.0017270788253953874,1.908
-0.0009658423073277915,1.909
-0.00013896300619293904,1.91
0.0005814080738186976,1.911
0.0010638387256181828,1.912
0.001267595548279753,1.913
0.0012373770485518674,1.914
0.0010499136662688053,1.915
0.0007644833750451125,1.916
0.00040978785808808355,1.917
-3.4582706662126617e-06,1.918
-0.0004644732001970669,1.919
-0.0009485165710068535,1.92
-0.0014102291218594026,1.921
-0.001789972228950683,1.922
-0.0020373763528422524,1.923
-0.0021311501019389742,1.924
-0.002077530946143908,1.925
-0.001906285706290005,1.926
-0.0016687152733367338,1.927
-0.001419597964240054,1.928
-0.0011924453392336265,1.929
-0.0009882756657875267,1.93
-0.0007832586059959011,1.931
-0.0005518160509367052,1.932
-0.0002922607430619385,1.933
-3.9399136998977016e-05,1.934
0.0001449022482876512,1.935
0.00019676683516269423,1.936
7.446239918847347e-05,1.937
-0.0002211511596948713,1.938
-0.0006277163362205232,1.939
-0.0010195922344239613,1.94
-0.0012465946627807953,1.941
-0.0012071553124884888,1.942
-0.0009019069763933278,1.943
-0.0004249614687354652,1.944
8.53164149853705e-05,1.945
0.0004941118973045715,1.946
0.000704079229969743,1.947
0.0006808101612768006,1.948
0.0004621592820337213,1.949
0.00013602846545534208,1.95
-0.00020300428893345898,1.951
-0.0004939198564309802,1.952
-0.0007293439556138613,1.953
-0.0009402808819218208,1.954
-0.0011540974483659448,1.955
-0.0013603471075877927,1.956
-0.0015074491256906028,1.957
-0.0015320003472425602,1.958
-0.0013989674851953428,1.959
-0.0011166241035153587,1.96
-0.0007236274019867524,1.961
-0.0002742227233450777,1.962
0.00016850343788341298,1.963
0.0005342823071693548,1.964
0.0007515313230806335,1.965
0.0007604706470692729,1.966
0.0005262736824373689,1.967
5.334668984738138e-05,1.968
-0.0006069782934186884,1.969
-0.0013669717746923504,1.97
-0.0021236183184604423,1.971
-0.0027720324736584157,1.972
-0.003205654437209538,1.973
-0.003325027276512149,1.974
-0.0030628620229308052,1.975
-0.0024049539250092676,1.976
-0.0014053287869661185,1.977
-0.0002019673662887503,1.978
0.000987935647466246,1.979
0.001918907735427393,1.98
0.0024010940663738954,1.981
0.002366401823025849,1.982
0.0018797340016522418,1.983
0.0011015798538130156,1.984
0.00023035243586728526,1.985
-0.0005535740071309276,1.986
-0.0011294858796815901,1.987
-0.001454992980526087,1.988
-0.001562556346035508,1.989
-0.0015372550032278082,1.99
-0.0014757446991556476,1.991
-0.0014404078332562126,1.992
-0.0014387097782003677,1.993
-0.0014393069857916983,1.994
-0.0013986314834061706,1.995
-0.0012786086823446934,1.996
-0.001064871897829214,1.997
-0.0007774018468075142,1.998
-0.0004597859118522402,1.999
-0.00016791562152341122,2.0
2.943193903858193e-05,2.001
6.451912910179053e-05,2.002
-8.898702095158542e-05,2.003
-0.0003849165839619615,2.004
-0.0007225708865923714,2.005
-0.0010045560372787547,2.006
-0.0011823431480258795,2.007
-0.0012568309641195292,2.008
-0.0012494496572215382,2.009
-0.0011734864694628413,2.01
-0.0010282041107007363,2.011
-0.000818073019816171,2.012
-0.000568415173854936,2.013
-0.0003138090471248849,2.014
-7.842069887620869e-05,2.015
0.000123480320636237,2.016
0.0002778687050468551,2.017
0.00037057319526613835,2.018
0.0003915566257160992,2.019
0.00034188894743623053,2.02
0.0002433745449722226,2.021
0.0001345846095062058,2.022
4.206426594718503e-05,2.023
-4.4678785803824715e-05,2.024
-0.00016212874933349363,2.025
-0.00034518662310741363,2.026
-0.0006135652614344097,2.027
-0.000969568848638526,2.028
-0.0013932065580015821,2.029
-0.0018327283512524334,2.03
-0.0022074573141516868,2.031
-0.00243019219512953,2.032
-0.0024327854028315787,2.033
-0.0021895079373952697,2.034
-0.0017338198108043656,2.035
-0.001150015834392123,2.036
-0.0005434725758308819,2.037
-9.90385865315543e-06,2.038
0.0003859599635475797,2.039
0.0006160312369822772,2.04
0.0006810670705459048,2.041
0.0006028018299696147,2.042
0.00042211995249151577,2.043
0.00019455264353385431,2.044
-2.0744826675832663e-05,2.045
-0.00017482256422020706,2.046
-0.0002484352282213336,2.047
-0.0002674446077957238,2.048
-0.0002921653738911991,2.049
-0.00037955627776699297,2.05
-0.0005440513993204071,2.051
-0.0007477137694673132,2.052
-0.0009254055975930222,2.053
-0.0010246089550521899,2.054
-0.0010299359019121511,2.055
-0.0009579045629009546,2.056
-0.0008450292133703006,2.057
-0.0007439751905669804,2.058
-0.0007098612547590437,2.059
-0.0007761591844522354,2.06
-0.0009385677909438112,2.061
-0.0011510248331200361,2.062
-0.0013353263332798676,2.063
-0.0014136729225717429,2.064
-0.0013501998409334122,2.065
-0.0011646223757530681,2.066
-0.0009144861421803725,2.067
-0.0006742879587387753,2.068
-0.0005160151880280491,2.069
-0.00047890860299941315,2.07
-0.0005453593121590858,2.071
-0.0006553531273366986,2.072
-0.0007492932055459281,2.073
-0.0007918082382642055,2.074
-0.0007637736261643942,2.075
-0.0006599068256568044,2.076
-0.0005031056704813207,2.077
-0.00033860451578427754,2.078
-0.00020669893188327221,2.079
-0.00012923043210188821,2.08
-0.00011103830372016375,2.081
-0.00014081598931521246,2.082
-0.00019231420505737312,2.083
-0.00023800299963249317,2.084
-0.00027352913816471134,2.085
-0.0003209249605468145,2.086
-0.0003998518031019975,2.087
-0.0005024638531198632,2.088
-0.0005973140475675387,2.089
-0.0006535873036635544,2.09
-0.0006631430782621541,2.091
-0.0006432212849392491,2.092
-0.0006234798773565414,2.093
-0.0006305811292834267,2.094
-0.0006744940257566441,2.095
-0.0007413608478852644,2.096
-0.000800390933916321,2.097
-0.0008248445293914536,2.098
-0.0008150488875462557,2.099
-0.0007928071843679546,2.1
-0.0007618860111515396,2.101
-0.0006877423170380345,2.102
-0.0005298532011427177,2.103
-0.00028908657523172676,2.104
-2.4938118291730643e-05,2.105
0.00016598026815084878,2.106
0.00019950801517997483,2.107
5.215153952459813e-05,2.108
-0.0002270625134243408,2.109
-0.0005431440459274384,2.11
-0.0007985815167952976,2.111
-0.0009315368263455941,2.112
-0.000926659108224263,2.113
-0.0007975325762938449,2.114
-0.0005729954714139729,2.115
-0.00030383018368641666,2.116
-6.58105392531555e-05,2.117
5.848372054309699e-05,2.118
9.208688930533305e-06,2.119
-0.00022691604107309216,2.12
-0.0006092904175923348,2.121
-0.001057434045277543,2.122
-0.001482649026428544,2.123
-0.0018181925510658207,2.124
-0.0020280033811435005,2.125
-0.0020992378606514224,2.126
-0.002037479804460453,2.127
-0.0018644970214407972,2.128
-0.0016117696095013473,2.129
-0.0013127860138093062,2.13
-0.00099965919227556,2.131
-0.0007077357819100848,2.132
-0.00047935100968904697,2.133
-0.00034945061028376375,2.134
-0.000314766300402398,2.135
-0.00032258275184679155,2.136
-0.0002957531767387563,2.137
-0.0001645265722121337,2.138
0.00010449482175292624,2.139
0.0004825695629402184,2.14
0.0008843363424747066,2.141
0.0012071875913985991,2.142
0.0013666295234173171,2.143
0.001306340226549995,2.144
0.0009995631918923885,2.145
0.00046157144042530834,2.146
-0.00023568044700654814,2.147
-0.0009736195916828809,2.148
-0.0016271914130459772,2.149
-0.002110395753844976,2.15
-0.0024003060362803603,2.151
-0.0025238232114019815,2.152
-0.002514537210164852,2.153
-0.002377603676013015,2.154
-0.002093081594828507,2.155
-0.0016484167016586476,2.156
-0.0010735272784307829,2.157
-0.00045428649837655957,2.158
9.125937796593438e-05,2.159
0.0004610532131229399,2.16
0.000606254694391438,2.161
0.000535998483693909,2.162
0.0003004736717011051,2.163
-2.8807816006193982e-05,2.164
-0.0003791333105710378,2.165
-0.0006918710386258246,2.166
-0.0009231573979888698,2.167
-0.0010401317246025458,2.168
-0.0010259812480288004,2.169
-0.0008895053118553593,2.17
-0.0006678175682114378,2.171
-0.0004165081712466511,2.172
-0.00019007253917665006,2.173
-2.0693923772127166e-05,2.174
9.0679758741086e-05,2.175
0.00016273213816735306,2.176
0.00021275987712336556,2.177
0.0002441481948164348,2.178
0.0002480725394942453,2.179
0.0002113364365887645,2.18
0.00011950135822821212,2.181
-4.679319745325779e-05,2.182
-0.000305275983605448,2.183
-0.000644427380595006,2.184
-0.0010063078190702685,2.185
-0.0013085909765776906,2.186
-0.0014861251566512888,2.187
-0.001522075550415045,2.188
-0.0014539537190114546,2.189
-0.0013537477850835066,2.19
-0.001298844139955781,2.191
-0.0013434743457178613,2.192
-0.0014901913765845405,2.193
-0.0016773616827992183,2.194
-0.0018032167111848743,2.195
-0.0017814962916075671,2.196
-0.0015886511970548012,2.197
-0.0012641241741693744,2.198
-0.0008819251810613963,2.199
-0.0005274862447325164,2.2
-0.0002692979368636106,2.201
-0.0001268944053128523,2.202
-6.990045154934925e-05,2.203
-4.87671784988842e-05,2.204
-2.8071505905183586e-05,2.205
-4.419081448142257e-06,2.206
1.0032434478134122e-07,2.207
-3.3759274849424754e-05,2.208
-0.00010001618856955762,2.209
-0.00017437659361028816,2.21
-0.0002319564059256584,2.211
-0.00025202979249049865,2.212
-0.0002209212834256072,2.213
-0.00014621253633700432,2.214
-6.389347203390511e-05,2.215
-2.0831443910333315e-05,2.216
-4.89492113203879e-05,2.217
-0.00014929730267188924,2.218
-0.00029023451460804774,2.219
-0.0004217002981102085,2.22
-0.0004978787404090254,2.221
-0.0005029721328519275,2.222
-0.00047157930851975024,2.223
-0.0004778579655160292,2.224
-0.0005904442073864783,2.225
-0.0008282350193483999,2.226
-0.0011489759160974687,2.227
-0.0014744912187625613,2.228
-0.0017316250325090194,2.229
-0.0018770914628509524,2.23
-0.0018891963413622988,2.231
-0.0017468940496851043,2.232
-0.0014355674478211907,2.233
-0.000982957797675713,2.234
-0.00047957864077139827,2.235
-4.739706758743827e-05,2.236
0.00021852824598658403,2.237
0.0002839667449962861,2.238
0.00016957722617806962,2.239
-7.377394039885347e-05,2.24
-0.0003816990275444827,2.241
-0.0006797668131354472,2.242
-0.0008953061054240432,2.243
-0.0009839485329296738,2.244
-0.0009435686239491229,2.245
-0.0008014655402372642,2.246
-0.0005973994543843744,2.247
-0.00037699531564941294,2.248
-0.0001797142202882724,2.249
-1.987774895923259e-05,2.25
0.00011352777802561115,2.251
0.0002309885399004657,2.252
0.00031764011282741115,2.253
0.000337071587211331,2.254
0.00026021472544830867,2.255
9.245403929433423e-05,2.256
-0.0001263112985755595,2.257
-0.00035326122905854443,2.258
-0.0005747526541774644,2.259
-0.0008037805579775944,2.26
-0.0010538143524249691,2.261
-0.001320083814385445,2.262
-0.001577887896590332,2.263
-0.00179830742708418,2.264
-0.0019672842707581075,2.265
-0.0020838269451721797,2.266
-0.0021441262482084092,2.267
-0.0021347512556400597,2.268
-0.002040862029290898,2.269
-0.0018570549869296273,2.27
-0.001585570666402096,2.271
-0.0012332907866247768,2.272
-0.0008211178811581469,2.273
-0.00038816160516402754,2.274
2.067246412497002e-05,2.275
0.0003710549827717995,2.276
0.0006480927554670467,2.277
0.0008555068880628541,2.278
0.0010041239360419375,2.279
0.0010922100720018395,2.28
0.001094197963644965,2.281
0.000976704949258297,2.282
0.0007331929338780257,2.283
0.00040262555736125685,2.284
5.5307375000979695e-05,2.285
-0.0002412662802296212,2.286
-0.0004594686884854495,2.287
-0.0006273657110365607,2.288
-0.0008026911272901406,2.289
-0.0010277356173567277,2.29
-0.001305187578583782,2.291
-0.0015992438833950348,2.292
-0.0018535671588929296,2.293
-0.0020208642506064937,2.294
-0.002084008254578554,2.295
-0.002056337919710836,2.296
-0.0019678032888060153,2.297
-0.0018436844745955902,2.298
-0.0016835575618268047,2.299
-0.001459942284625372,2.3
-0.0011466395859380044,2.301
-0.00075196180983469,2.302
-0.00032654932238612613,2.303
5.940330327452363e-05,2.304
0.00035276273696121174,2.305
0.0005417904816307899,2.306
0.0006528968243557743,2.307
0.0007255999500767155,2.308
0.0007882849117107736,2.309
0.0008485505241637321,2.31
0.0008893474278028178,2.311
0.000869753868245498,2.312
0.0007392357551226483,2.313
0.000463566236354742,2.314
5.375234866815599e-05,2.315
-0.0004253331638253366,2.316
-0.0008862193097028488,2.317
-0.0012614267196943707,2.318
-0.0015163876623992653,2.319
-0.0016449838396201248,2.32
-0.0016758078880333644,2.321
-0.0016667959073107443,2.322
-0.0016669009400118802,2.323
-0.0016804263522789491,2.324
-0.0016660022221566756,2.325
-0.0015643074441984276,2.326
-0.0013395269564901269,2.327
-0.001008140050736856,2.328
-0.000634442733804864,2.329
-0.0003060024181328452,2.33
-0.00010664361686105834,2.331
-9.301847921928887e-05,2.332
-0.0002789183986623788,2.333
-0.0006251217695736625,2.334
-0.0010401201317596807,2.335
-0.0014064121373054475,2.336
-0.0016230163811165213,2.337
-0.001635184651642284,2.338
-0.0014415467514753543,2.339
-0.0010891996672311836,2.34
-0.0006634646683675351,2.341
-0.00026457072797346433,2.342
3.097736618618333e-05,2.343
0.0001984496460355424,2.344
0.0002595641214741532,2.345
0.0002580771265211356,2.346
0.0002415389254483022,2.347
0.00024973567524710634,2.348
0.0003001228455267121,2.349
0.0003759704755622852,2.35
0.0004276138758183065,2.351
0.00039327852246442594,2.352
0.0002362405987678083,2.353
-3.171557508055954e-05,2.354
-0.00036407023923127366,2.355
-0.0007046277036201931,2.356
-0.0009965260709435871,2.357
-0.0011904863661983249,2.358
-0.0012626352013538988,2.359
-0.0012249288484966923,2.36
-0.0011190332163801711,2.361
-0.000998171573052118,2.362
-0.0009036810178978663,2.363
-0.0008481404388895651,2.364
-0.0008204992092384584,2.365
-0.0008099332283207447,2.366
-0.0008176138665362778,2.367
-0.0008451524813390849,2.368
-0.0008861273958183408,2.369
-0.0009321470725526912,2.37
-0.0009745859844052837,2.371
-0.0009925372071855063,2.372
-0.0009501388699887571,2.373
-0.0008241751332735907,2.374
-0.0006353144316085459,2.375
-0.0004437101071493923,2.376
-0.00031123756832796034,2.377
-0.00026182520892675093,2.378
-0.0002698096775204001,2.379
-0.0002858156460957616,2.38
-0.00027590439904240605,2.381
-0.0002432861823784175,2.382
-0.00022581204909388742,2.383
-0.00026780068659795146,2.384
-0.00038415796714478303,2.385
-0.0005563109727348331,2.386
-0.0007521374459498634,2.387
-0.0009373125400857782,2.388
-0.0010823744515484116,2.389
-0.0011727383770451763,2.39
-0.0012149527877670634,2.391
-0.001228657668121616,2.392
-0.0012184025344195524,2.393
-0.001156907162110333,2.394
-0.0010106776389015742,2.395
-0.0007776303738150925,2.396
-0.0004962234110573842,2.397
-0.0002295675498490166,2.398
-3.963091310759629e-05,2.399
4.145279929028357e-05,2.4
2.7044256008731515e-05,2.401
-3.954752558847185e-05,2.402
-0.0001190960940951116,2.403
-0.00019116598032591146,2.404
-0.0002434098510190484,2.405
-0.00026296231469537956,2.406
-0.00024304985521723428,2.407
-0.00019193510862858433,2.408
-0.0001307235686447068,2.409
-8.989534652940716e-05,2.41
-0.00010948054551641157,2.411
-0.00022587280559457164,2.412
-0.00044711620166672564,2.413
-0.0007418865361253865,2.414
-0.0010573466964418153,2.415
-0.0013496958426906236,2.416
-0.001594315972341109,2.417
-0.0017731488324667743,2.418
-0.001867978857777269,2.419
-0.001868394668292485,2.42
-0.0017748801025821524,2.421
-0.0015924644820596591,2.422
-0.0013315156323455112,2.423
-0.001017652412867319,2.424
-0.0006944917858105645,2.425
-0.0004056466500309152,2.426
-0.0001677053977549634,2.427
3.6617410766093955e-05,2.428
0.00023996559060432865,2.429
0.0004594146203248647,2.43
0.0006678464004871986,2.431
0.0007941730742550295,2.432
0.0007634843967693111,2.433
0.0005486764929152334,2.434
0.00019224790566679394,2.435
-0.00021393623230747747,2.436
-0.0005717582835378182,2.437
-0.0008204861914348038,2.438
-0.0009555731074921898,2.439
-0.0010095270492007443,2.44
-0.0010174611244559532,2.441
-0.0009964045545348688,2.442
-0.0009444880903162587,2.443
-0.00085115355277897,2.444
-0.0007112624980032983,2.445
-0.0005381728973099053,2.446
-0.00036884570105364273,2.447
-0.00025474173094189626,2.448
-0.00024097724739916134,2.449
-0.00034649482193696844,2.45
-0.0005540838986776825,2.451
-0.0008155376453656273,2.452
-0.0010727429562438573,2.453
-0.0012799657907975616,2.454
-0.0014135968942773527,2.455
-0.00147153965800088,2.456
-0.0014675869046984237,2.457
-0.001422503344092042,2.458
-0.0013569930422881982,2.459
-0.001292472252524174,2.46
-0.0012542536915078947,2.461
-0.0012602596804689018,2.462
-0.0012992030269487942,2.463
-0.0013312670312892385,2.464
-0.001316992731498531,2.465
-0.001242012939610771,2.466
-0.0011157253082209658,2.467
-0.0009491748125248789,2.468
-0.0007376162598776693,2.469
-0.00046526126712950267,2.47
-0.00012091996208870583,2.471
0.00028651338225895015,2.472
0.0007179962003958071,2.473
0.0011105856316747488,2.474
0.001394469557765364,2.475
0.001508348769445902,2.476
0.001415696768327796,2.477
0.001124664174732099,2.478
0.000699522788394115,2.479
0.00024475267861521566,2.48
-0.0001365327718502302,2.481
-0.0003852757976472524,2.482
-0.0005042857909798612,2.483
-0.0005420230548691823,2.484
-0.0005613787488509882,2.485
-0.000614540279078264,2.486
-0.0007255848227506677,2.487
-0.0008826043001206386,2.488
-0.0010513889309781068,2.489
-0.0012053509726412883,2.49
-0.0013387446990247237,2.491
-0.0014519755457742495,2.492
-0.0015342642942426867,2.493
-0.0015633456477647358,2.494
-0.001517789478329971,2.495
-0.0013852867889855736,2.496
-0.001169154087393355,2.497
-0.0009065015306312441,2.498
-0.0006780494793452122,2.499
-0.0005806369895262821,2.5
-0.0006727462656750785,2.501
-0.0009323508531588793,2.502
-0.0012636413112487386,2.503
-0.0015504827273976748,2.504
-0.001709994630731165,2.505
-0.0017079012403747574,2.506
-0.0015413247330943367,2.507
-0.0012183299826637776,2.508
-0.0007560396219458206,2.509
-0.00019794694342304152,2.51
0.0003711997695196814,2.511
0.0008372418595129185,2.512
0.0010926577862653375,2.513
0.001074480501491319,2.514
0.0007888046350963889,2.515
0.00031082368222016545,2.516
-0.0002479371531273199,2.517
-0.0007813646580796611,2.518
-0.001203517069968379,2.519
-0.0014495662616593468,2.52
-0.001489153887234784,2.521
-0.0013336617552753404,2.522
-0.00102703528768381,2.523
-0.0006423012765145202,2.524
-0.0002744976084656899,2.525
-9.022996006010872e-06,2.526
0.00010617635689459388,2.527
6.266297389776376e-05,2.528
-0.00011062612012268931,2.529
-0.00035236584693486305,2.53
-0.0005960707372734868,2.531
-0.0008038732131060118,2.532
-0.000970505996190411,2.533
-0.0010971386500527205,2.534
-0.0011775624648341317,2.535
-0.0012136189342653327,2.536
-0.0012233049456380238,2.537
-0.0012276353460444426,2.538
-0.0012373939305853005,2.539
-0.001244312172240371,2.54
-0.0012208220768042668,2.541
-0.0011342129337039803,2.542
-0.0009652600211037302,2.543
-0.0007209125668685894,2.544
-0.00043082489326826205,2.545
-0.00012993606238225516,2.546
0.00015248606291348916,2.547
0.00039240844615154,2.548
0.0005725357764900578,2.549
0.0006864307689489095,2.55
0.0007329905093286939,2.551
0.0007052118967682135,2.552
0.0005925637614992036,2.553
0.0003986513472416369,2.554
0.00015182440403117424,2.555
-0.0001081331033930521,2.556
-0.00035128273828939985,2.557
-0.000561925116052924,2.558
-0.0007291380078852679,2.559
-0.0008367390523131652,2.56
-0.0008668424034947072,2.561
-0.0008227190295268095,2.562
-0.0007415763398825371,2.563
-0.0006797839224135284,2.564
-0.0006945790855865877,2.565
-0.0008321135262904332,2.566
-0.00111098936855516,2.567
-0.0015064285614388483,2.568
-0.001949260109663716,2.569
-0.002342011520203605,2.57
-0.002588367491981049,2.571
-0.002636793420893741,2.572
-0.0025123257248002816,2.573
-0.0022904923602045297,2.574
-0.0020359144214142717,2.575
-0.0017721993975927082,2.576
-0.0014849834492539921,2.577
-0.0011345476187903355,2.578
-0.0006895200706532677,2.579
-0.00016535291314032042,2.58
0.000376369995085803,2.581
0.0008571012653434247,2.582
0.0011992949320554385,2.583
0.0013369304661183783,2.584
0.001240568751616432,2.585
0.0009436799368516612,2.586
0.0005360830638203123,2.587
0.0001246495181258956,2.588
-0.0001969226372071919,2.589
-0.0003539795994930059,2.59
-0.00030478811205801126,2.591
-6.647691151723419e-05,2.592
0.00028029292353775367,2.593
0.0006159367826818811,2.594
0.0008208971240181144,2.595
0.0008099402912860161,2.596
0.0005489524454182719,2.597
6.017227594202828e-05,2.598
-0.0005827230229175655,2.599
-0.0012747816000023972,2.6
-0.001908243852939914,2.601
-0.002396593069664293,2.602
-0.002684693208995782,2.603
-0.0027413353733675722,2.604
-0.0025468148301266693,2.605
-0.0021054220338308036,2.606
-0.0014789214888889335,2.607
-0.0007904321766457478,2.608
-0.00018257755209931192,2.609
0.00023224228198768843,2.61
0.00040120823175414974,2.611
0.00033422911634608415,2.612
8.311451366910434e-05,2.613
-0.0002825474241817541,2.614
-0.0006842569931084345,2.615
-0.00104373693542061,2.616
-0.0013055135451998507,2.617
-0.001448077531918164,2.618
-0.0014729065399417117,2.619
-0.0013965224501373765,2.62
-0.001252421734395122,2.621
-0.0010823719505105884,2.622
-0.0009126971976613634,2.623
-0.000740420050085772,2.624
-0.0005462437945679358,2.625
-0.00032178509056389194,2.626
-8.753043509942713e-05,2.627
0.00011293820369128306,2.628
0.00023643650449071225,2.629
0.00026010439263741503,2.63
0.0001848033876215361,2.631
2.992688530085129e-05,2.632
-0.00017110610568999611,2.633
-0.0003745191256884796,2.634
-0.0005297563751911268,2.635
-0.0005941390080196634,2.636
-0.00055590370232269,2.637
-0.000434728518164218,2.638
-0.00026582311150222926,2.639
-9.804101098902381e-05,2.64
1.2626603217224066e-05,2.641
3.0796579858367846e-05,2.642
-4.079500823396813e-05,2.643
-0.00017029305032810932,2.644
-0.00031955530688958564,2.645
-0.0004703234079713189,2.646
-0.0006323812179906704,2.647
-0.0008216740107697349,2.648
-0.0010382026458854074,2.649
-0.0012654074883536308,2.65
-0.0014741387537104596,2.651
-0.0016217489763498201,2.652
-0.001659620289437573,2.653
-0.0015573323717918367,2.654
-0.0013283908254226116,2.655
-0.0010273590696386883,2.656
-0.0007182274642477657,2.657
-0.00045180008885071376,2.658
-0.00026462353284369366,2.659
-0.0001784241028546927,2.66
-0.00019399999765755947,2.661
-0.0002925840364155481,2.662
-0.0004460350190524236,2.663
-0.0006210626138086381,2.664
-0.0007817540986965075,2.665
-0.0009032024122192454,2.666
-0.000983379323018432,2.667
-0.001037936648718674,2.668
-0.0010812263421888344,2.669
-0.0011113108590691564,2.67
-0.001111896885465867,2.671
-0.001064657521898224,2.672
-0.0009632466065857427,2.673
-0.0008189681257034507,2.674
-0.000647838570401602,2.675
-0.0004547170727618352,2.676
-0.0002387658023121604,2.677
-1.3639030543813216e-05,2.678
0.00018596010298820096,2.679
0.00032058871402724023,2.68
0.0003655235417747738,2.681
0.0003200193919450743,2.682
0.00020538537353680683,2.683
5.0993670944221234e-05,2.684
-0.00011971024659696082,2.685
-0.0002933630368246978,2.686
-0.0004666776154653901,2.687
-0.0006395398932746155,2.688
-0.0007978893388848935,2.689
-0.0009061498560183666,2.69
-0.0009238041334180596,2.691
-0.0008344287638032753,2.692
-0.0006676250798809534,2.693
-0.0004931367018749953,2.694
-0.00038530979881984146,2.695
-0.0003863154381655362,2.696
-0.0004951228039622696,2.697
-0.0006833303001952526,2.698
-0.0009142077986218102,2.699
-0.001147579353481876,2.7
-0.0013389063421406138,2.701
-0.001448364901482304,2.702
-0.0014602456483407585,2.703
-0.001391376699185477,2.704
-0.0012774975628812764,2.705
-0.0011490182942810023,2.706
-0.0010123494820551175,2.707
-0.0008576804738237088,2.708
-0.0006885050944559084,2.709
-0.0005312984066888022,2.71
-0.00041330899653452047,2.711
-0.0003411967717932371,2.712
-0.000297971363183448,2.713
-0.0002532998324867771,2.714
-0.00018175732116327306,2.715
-7.260527668748477e-05,2.716
7.60863221933375e-05,2.717
0.00025620148715179076,2.718
0.00043339244140908246,2.719
0.0005452051051602207,2.72
0.0005279784956508177,2.721
0.0003497523285030049,2.722
3.170311182293644e-05,2.723
-0.0003514624903193824,2.724
-0.0007023156478576062,2.725
-0.0009397729962853766,2.726
-0.0010192411450862787,2.727
-0.0009370013092872896,2.728
-0.0007254074195992916,2.729
-0.00044960483959319807,2.73
-0.00020721386728163272,2.731
-0.00010845998891881661,2.732
-0.00023570018742490343,2.733
-0.0006093321667314831,2.734
-0.0011841469203008404,2.735
-0.0018802244742126932,2.736
-0.0026135507776508453,2.737
-0.00329352681198923,2.738
-0.0038118451458839945,2.739
-0.004057452474819488,2.74
-0.003950489338641066,2.741
-0.003471688070724818,2.742
-0.0026716806618045197,2.743
-0.0016566811714495088,2.744
-0.0005599748259000087,2.745
0.0004895402372502988,2.746
0.0013842882041691503,2.747
0.002028000645764793,2.748
0.0023322392568175454,2.749
0.002250839183818418,2.75
0.0018175148797635538,2.751
0.0011538228166674972,2.752
0.00045645375695965663,2.753
-3.606794779702845e-05,2.754
-0.00010240092932836187,2.755
0.00039585759559334656,2.756
0.0014758050990465125,2.757
0.0030300519087040974,2.758
0.004827111397419849,2.759
0.006513480069598286,2.76
0.007651413686505832,2.761
0.007789772774618731,2.762
0.0065464611443839344,2.763
0.003707385431581227,2.764
-0.0006565928713610214,2.765
-0.0060934667864589245,2.766
-0.011759966662062278,2.767
-0.016555535595625333,2.768
-0.019413695597804582,2.769
-0.019662610923727886,2.77
-0.017277545232026365,2.771
-0.01288545439115761,2.772
-0.007515866005616991,2.773
-0.0022206308529294626,2.774
0.0022500775647959657,2.775
0.00558318724696941,2.776
0.007853104128508337,2.777
0.009366186912252628,2.778
0.010475414631803176,2.779
0.011426268446184029,2.78
0.012270182468341015,2.781
0.012851964342657481,2.782
0.012857125317942102,2.783
0.011892185176151317,2.784
0.009587660635173868,2.785
0.005736729799207784,2.786
0.00044959746651534983,2.787
-0.0057392166365666806,2.788
-0.011880415234590385,2.789
-0.016796042456957698,2.79
-0.019422065871838257,2.791
-0.019173533659913453,2.792
-0.01617026646637301,2.793
-0.01121245331207365,2.794
-0.005498538046735683,2.795
-0.00021033674018389783,2.796
0.0038309246960829355,2.797
0.006290039947323789,2.798
0.007239359731558301,2.799
0.006994733119303412,2.8
0.00596062300234906,2.801
0.0045253283580416765,2.802
0.0030052696440139052,2.803
0.0016166479787999592,2.804
0.0004740562695999536,2.805
-0.0003778437043146069,2.806
-0.000924841416599517,2.807
-0.0011699839722761778,2.808
-0.0011500907662090065,2.809
-0.0009496336682218238,2.81
-0.000680738003656188,2.811
-0.0004430499133198974,2.812
-0.00029836623219341434,2.813
-0.00026871298524138283,2.814
-0.00034706022562242564,2.815
-0.0005101617234563008,2.816
-0.0007259924341779061,2.817
-0.000949911683648748,2.818
-0.0011193407067831534,2.819
-0.0011702168007354796,2.82
-0.001069907914550622,2.821
-0.0008382255872561031,2.822
-0.0005451994227232403,2.823
-0.00028711107092675215,2.824
-0.00015105692127223927,2.825
-0.00018752257888440897,2.826
-0.0004011259980200608,2.827
-0.0007570727639453511,2.828
-0.001191581976432997,2.829
-0.0016218367694439662,2.83
-0.0019659525508758467,2.831
-0.0021589514080328806,2.832
-0.0021429149201696376,2.833
-0.0018608790126795126,2.834
-0.0012935326698276712,2.835
-0.0005148138389815351,2.836
0.0002977279479452757,2.837
0.0009263871111246104,2.838
0.001206796809329579,2.839
0.0010845821224306014,2.84
0.0006193855914706515,2.841
-4.1313372057561154e-05,2.842
-0.0007108576326081677,2.843
-0.001230414219765535,2.844
-0.0015216761851888465,2.845
-0.0015903066415124691,2.846
-0.0014916407706021919,2.847
-0.0012980238289745038,2.848
-0.001081291857929392,2.849
-0.0008998527779117492,2.85
-0.0007855411296163691,2.851
-0.0007354188093796695,2.852
-0.0007184748478970686,2.853
-0.0006997339704979619,2.854
-0.0006636521310098081,2.855
-0.0006208665510922222,2.856
-0.000600786105570895,2.857
-0.0006330264537228794,2.858
-0.0007267778536215583,2.859
-0.000862011715503062,2.86
-0.0009932143740637323,2.861
-0.0010674603651075387,2.862
-0.001048261284463571,2.863
-0.0009209365406656145,2.864
-0.0006874670296531418,2.865
-0.0003715560513919161,2.866
-2.332098531958619e-05,2.867
0.00029147230037522565,2.868
0.0005175300475214842,2.869
0.0006335573866767384,2.87
0.0006493544708391343,2.871
0.0005860886368371701,2.872
0.00046713092440387914,2.873
0.000320259126083316,2.874
0.00017751766173101317,2.875
6.720135695016704e-05,2.876
5.312367454377194e-07,2.877
-3.85642748015404e-05,2.878
-9.096627170609669e-05,2.879
-0.00020734817573411405,2.88
-0.0004314021621842197,2.881
-0.0007829633805692907,2.882
-0.0012398928252619489,2.883
-0.001733692264610392,2.884
-0.0021646810863830083,2.885
-0.002428980197321467,2.886
-0.0024577752330622194,2.887
-0.0022507382241678956,2.888
-0.0018752907592109484,2.889
-0.0014451745219006347,2.89
-0.0010938938666569431,2.891
-0.0009269652771702678,2.892
-0.0009659580076980942,2.893
-0.00113129868806865,2.894
-0.0012861571488397066,2.895
-0.0013110134583389605,2.896
-0.0011470587909424314,2.897
-0.000787033539893284,2.898
-0.0002578817623454692,2.899
0.00037148557073174394,2.9
0.000984164588576922,2.901
0.0014410017425472428,2.902
0.0016242867310882272,2.903
0.0014784102461437828,2.904
0.00103730966311607,2.905
0.00041907080176413426,2.906
-0.00022031546477699907,2.907
-0.0007472056841732371,2.908
-0.001086684718740721,2.909
-0.001224838518626572,2.91
-0.0011970634619868107,2.911
-0.001074329101587895,2.912
-0.0009420444358219398,2.913
-0.0008708891356216037,2.914
-0.0008919916995402345,2.915
-0.0009965161018811528,2.916
-0.0011560108973483103,2.917
-0.0013317910384279866,2.918
-0.0014646664698229977,2.919
-0.0014783461261787608,2.92
-0.0013198450305721373,2.921
-0.0010038194611449872,2.922
-0.0006160923191202153,2.923
-0.0002746960670410641,2.924
-7.46324710670076e-05,2.925
-4.734796281219661e-05,2.926
-0.00015276404173661894,2.927
-0.0003048142390663428,2.928
-0.0004232486633245188,2.929
-0.0004790688682311244,2.93
-0.0004972099218504636,2.931
-0.0005264754756423172,2.932
-0.000606496915624302,2.933
-0.000744833724646359,2.934
-0.00091212040057905,2.935
-0.0010550987111453167,2.936
-0.0011179435850139732,2.937
-0.001066123675576504,2.938
-0.000901738761909887,2.939
-0.000655757277703466,2.94
-0.00037062904253049055,2.941
-9.627704711902491e-05,2.942
0.00010747745482309772,2.943
0.0001761768537886202,2.944
5.818197428817393e-05,2.945
-0.00025349567535970085,2.946
-0.0006926227486854994,2.947
-0.0011304102216176115,2.948
-0.0014303725901366926,2.949
-0.0015054362564361414,2.95
-0.001342429341109337,2.951
-0.0009941642599344033,2.952
-0.0005515613615088957,2.953
-0.00011178337200329488,2.954
0.00024436157893941097,2.955
0.0004668488392004377,2.956
0.0005396694725593073,2.957
0.0004694591301214944,2.958
0.00027903018460662056,2.959
1.4434505067194682e-05,2.96
-0.00025756944169683007,2.961
-0.00047510745764756373,2.962
-0.0006107191711066797,2.963
-0.0006809229839165078,2.964
-0.0007311262498429006,2.965
-0.0008029817099122239,2.966
-0.0009039375517884285,2.967
-0.001002582527295503,2.968
-0.0010509331570969342,2.969
-0.0010190438943086752,2.97
-0.0009177397209147006,2.971
-0.0007886945497820555,2.972
-0.0006791870023320706,2.973
-0.0006316804362557879,2.974
-0.0006825897342641906,2.975
-0.0008481439761271088,2.976
-0.0011051910686493836,2.977
-0.0013953015807460665,2.978
-0.0016538398948369205,2.979
-0.0018314866699557322,2.98
-0.001889094035623342,2.981
-0.0017922178208141528,2.982
-0.001524419034847385,2.983
-0.0011011114192969642,2.984
-0.0005789287903040738,2.985
-5.891193276815084e-05,2.986
0.0003394199984590923,2.987
0.0005317065812134252,2.988
0.0005133643476032777,2.989
0.0003591509050575413,2.99
0.00017299385079429166,2.991
2.8426266426992354e-05,2.992
-5.4310967976125266e-05,2.993
-0.00010033570190447856,2.994
-0.00016515879197371382,2.995
-0.00029993126278420745,2.996
-0.000505314811002918,2.997
-0.0007257598894655501,2.998
-0.0008919603316820679,2.999
-0.0009650400466684152,3.0
-0.000952386713412204,3.001
-0.0008943213106667381,3.002
-0.0008350542639315004,3.003
-0.0008029471030974156,3.004
-0.0008043496376285473,3.005
-0.0008158022025720979,3.006
-0.0007880484591952916,3.007
-0.0006846948616799912,3.008
-0.0005244678474312267,3.009
-0.00037214657520815374,3.01
-0.0002897204773085777,3.011
-0.00030294808552291653,3.012
-0.00040009543987357696,3.013
-0.0005433502890138302,3.014
-0.0006810066455171689,3.015
-0.0007659431266910631,3.016
-0.0007727075925258954,3.017
-0.0007004039260008954,3.018
-0.0005711434944569538,3.019
-0.000428328486928222,3.02
-0.00032113621495926,3.021
-0.00027657987120565845,3.022
-0.00028859340853055787,3.023
-0.0003396809853636747,3.024
-0.0004228547448182243,3.025
-0.000533225564251906,3.026
-0.0006546804708901239,3.027
-0.0007688951400240419,3.028
-0.0008607796008494253,3.029
-0.0009086389736101352,3.03
-0.0008851637683975425,3.031
-0.0007701297444181631,3.032
-0.000561597640141699,3.033
-0.00028740021057088494,3.034
-1.222156367866145e-05,3.035
0.00017251743043617223,3.036
0.00018126139032303762,3.037
-2.5247099296757717e-05,3.038
-0.00042499546016056206,3.039
-0.0009513009008254812,3.04
-0.0015105755470141272,3.041
-0.0019920578350515654,3.042
-0.0022859082895255642,3.043
-0.0023097198990306585,3.044
-0.002029236681329582,3.045
-0.0014720985448684215,3.046
-0.0007365016673906724,3.047
2.5920807737061938e-05,3.048
0.0006614465359528924,3.049
0.0010642345192381298,3.05
0.0011988111047102597,3.051
0.0011025595191542672,3.052
0.0008699419889504656,3.053
0.0006145074257146375,3.054
0.00041676689102074086,3.055
0.00028509338350059395,3.056
0.0001648538577543767,3.057
-9.69331256483021e-06,3.058
-0.00026884280454564705,3.059
-0.000598009255122315,3.06
-0.0009636156338329303,3.061
-0.001352042923473499,3.062
-0.0017894053594369572,3.063
-0.0023444573610644764,3.064
-0.003134444725822717,3.065
-0.004302639078830562,3.066
-0.005941088537343539,3.067
-0.00800120596878757,3.068
-0.010243032714582092,3.069
-0.012234958269204847,3.07
-0.013399036394187928,3.071
-0.013104618502812504,3.072
-0.010824118613105484,3.073
-0.0063388717401227125,3.074
9.454950137594042e-05,3.075
0.007746192097825155,3.076
0.015625225528330233,3.077
0.022772060195561456,3.078
0.028424793906787846,3.079
0.03201096570821017,3.08
0.03309126569069945,3.081
0.03135388604502761,3.082
0.026651880211061744,3.083
0.01905977831563076,3.084
0.00895275687640441,3.085
-0.002909119885613013,3.086
-0.015349250628329909,3.087
-0.026851543194507037,3.088
-0.0357621982642476,3.089
-0.04061763537349295,3.09
-0.04057627809373448,3.091
-0.03578444002248378,3.092
-0.027416110394454966,3.093
-0.017321811420903513,3.094
-0.0074787324448876156,3.095
0.0005049139174993395,3.096
0.005669085782910256,3.097
0.00774707119379545,3.098
0.007059061872828752,3.099
0.004352100991551318,3.1
0.0006472594502197774,3.101
-0.0029174609613748905,3.102
-0.0052780235653982445,3.103
-0.005645591051453658,3.104
-0.0036687997926714536,3.105
0.0004985233292289049,3.106
0.006265487757469365,3.107
0.012755990768132877,3.108
0.018941723133118978,3.109
0.023759481669731252,3.11
0.026292265838135848,3.111
0.026001948544240358,3.112
0.02289051370260436,3.113
0.017496309686934268,3.114
0.010741472625429377,3.115
0.003699404152535184,3.116
-0.0026382412328316545,3.117
-0.00753109274651142,3.118
-0.010586543424883974,3.119
-0.011795304957480945,3.12
-0.011506112525462367,3.121
-0.010330492799635218,3.122
-0.008977547544990394,3.123
-0.008075531020368502,3.124
-0.008055089154733493,3.125
-0.009098330933196676,3.126
-0.011124915244315246,3.127
-0.013813228208205868,3.128
-0.016660262058384185,3.129
-0.0190646673046053,3.13
-0.02040025260747169,3.131
-0.020077419276928365,3.132
-0.01764923772408618,3.133
-0.012984771015014003,3.134
-0.006414334527391372,3.135
0.0012779456297057046,3.136
0.009036219652301329,3.137
0.015809980392983803,3.138
0.020818612528353823,3.139
0.023709946254759882,3.14
0.024559333007070097,3.141
0.023717845196869092,3.142
0.02158955831218453,3.143
0.018465064256908702,3.144
0.014496557228458445,3.145
0.009800738903485417,3.146
0.004604709679088521,3.147
-0.0006750985196662991,3.148
-0.005486130206444733,3.149
-0.009298672495269488,3.15
-0.011782084365419715,3.151
-0.012902583742105827,3.152
-0.01289355456961931,3.153
-0.012127910937451315,3.154
-0.010974737549788501,3.155
-0.009703033097960211,3.156
-0.008445406746819603,3.157
-0.007212842537258753,3.158
-0.005940560941840078,3.159
-0.004541324736659565,3.16
-0.0029553275132130573,3.161
-0.001189566483694476,3.162
0.0006603150855146847,3.163
0.0024099183436517924,3.164
0.0038252646777554534,3.165
0.004705467515393313,3.166
0.004955342210580914,3.167
0.0045938103448832064,3.168
0.003714600621264514,3.169
0.0024507296577997457,3.17
0.0009641508319048283,3.171
-0.0005575364981991208,3.172
-0.0019169393620294376,3.173
-0.0029394251952798984,3.174
-0.0035168526471889947,3.175
-0.003650169204778475,3.176
-0.003480153226570171,3.177
-0.0032739151924798546,3.178
-0.0033370295073730603,3.179
-0.0038894287214832823,3.18
-0.004965000519855061,3.181
-0.006361276648139043,3.182
-0.007656635674882529,3.183
-0.008305612492036393,3.184
-0.007789973284517374,3.185
-0.0057762030110956285,3.186
-0.002233404515193724,3.187
0.0025338047848662325,3.188
0.007965182655529434,3.189
0.013393842956967463,3.19
0.018176175163236854,3.191
0.021748032700689722,3.192
0.023626284822115474,3.193
0.023418408001245117,3.194
0.02086327019023639,3.195
0.01588954574897545,3.196
0.008702303078132412,3.197
-0.00011689093014399365,3.198
-0.009590702356255615,3.199
-0.018481543640423866,3.2
-0.02553708692465581,3.201
-0.029749623998583958,3.202
-0.03057038467642421,3.203
-0.02804332198962202,3.204
-0.022814407220551728,3.205
-0.015979678618548633,3.206
-0.008796834535803636,3.207
-0.002367893580513308,3.208
0.0025836522238254444,3.209
0.005783915959944396,3.21
0.00734551187313448,3.211
0.007620329911747286,3.212
0.007038128014125214,3.213
0.0060089889616391405,3.214
0.004910935891222503,3.215
0.004102822341088644,3.216
0.003891615973179899,3.217
0.004443025646174866,3.218
0.005686212822426189,3.219
0.007288813506167665,3.22
0.008749521262877754,3.221
0.009577278202377894,3.222
0.009465010033787346,3.223
0.008369030049377767,3.224
0.006473118527189889,3.225
0.004087408323883888,3.226
0.0015400271892149885,3.227
-0.0009059950770307195,3.228
-0.0031037066345013563,3.229
-0.005038130627510517,3.23
-0.006790423561225467,3.231
-0.00844724442932259,3.232
-0.00999173334376903,3.233
-0.011250766394612909,3.234
-0.011950505387918258,3.235
-0.011840109465297973,3.236
-0.01079277918199908,3.237
-0.00884075329805978,3.238
-0.006165287328915284,3.239
-0.003069267330231553,3.24
6.296156268537924e-05,3.241
0.0028322469341014013,3.242
0.004915180793734886,3.243
0.006133598543728264,3.244
0.006467406367061797,3.245
0.0060254704728627435,3.246
0.005010285586354033,3.247
0.0036843921841072033,3.248
0.0023206425432695877,3.249
0.0011431982187108283,3.25
0.00028823517484996434,3.251
-0.00020899373604006623,3.252
-0.00041074075988740077,3.253
-0.00045144537929529013,3.254
-0.0004835980063737848,3.255
-0.000614950006142592,3.256
-0.0008683158895772599,3.257
-0.0011800157357735837,3.258
-0.0014373158827622546,3.259
-0.0015365109066248404,3.26
-0.0014239047152918524,3.261
-0.0011013073614516914,3.262
-0.0006168381953747792,3.263
-5.671565520407203e-05,3.264
0.00047397786547746887,3.265
0.0008787121020708283,3.266
0.0010780677831987236,3.267
0.0010027535108440423,3.268
0.0006069921694341938,3.269
-9.888537467499529e-05,3.27
-0.0010450802491239384,3.271
-0.0021393441930116336,3.272
-0.0032978708196929347,3.273
-0.004445353001203749,3.274
-0.005500243917497473,3.275
-0.006357585932217299,3.276
-0.006866965434186608,3.277
-0.006813805787943903,3.278
-0.005944196584342463,3.279
-0.00407447767682232,3.28
-0.0012579546718338777,3.281
0.0021100340023245427,3.282
0.005364753256125713,3.283
0.007799313812525598,3.284
0.00890365678310694,3.285
0.008504515399600522,3.286
0.00677607009677933,3.287
0.004143677119333288,3.288
0.0011508207947245534,3.289
-0.0016580275416599906,3.29
-0.0038416253266392434,3.291
-0.005143418987384529,3.292
-0.005516754165916359,3.293
-0.0050950486793002615,3.294
-0.004125576016457266,3.295
-0.0028762126720106246,3.296
-0.0015536714847846447,3.297
-0.00028015700573541313,3.298
0.000870250606681673,3.299
0.0018106106335479297,3.3
0.0024113318926025245,3.301
0.002539435267457635,3.302
0.002134311064998762,3.303
0.0012492672272062352,3.304
2.42795746874273e-05,3.305
-0.001378868761467024,3.306
-0.0028209205708328027,3.307
-0.0041845868993498885,3.308
-0.005341801867269516,3.309
-0.00612441691852419,3.31
-0.006338457791526635,3.311
-0.005821631779373178,3.312
-0.004508868065529783,3.313
-0.0024763777652717436,3.314
5.4932206801131824e-05,3.315
0.0027651325583406194,3.316
0.005311038219140066,3.317
0.007392984481445448,3.318
0.008782875747725054,3.319
0.009321101231381211,3.32
0.008915090697135522,3.321
0.007547080605289571,3.322
0.0052853847406551715,3.323
0.0023011814091607728,3.324
-0.0011272251059591541,3.325
-0.00464254353857508,3.326
-0.007859746531988678,3.327
-0.01041487418370501,3.328
-0.012006826929316162,3.329
-0.012456217487420627,3.33
-0.011771812894697179,3.331
-0.010162249160131656,3.332
-0.007956968736800142,3.333
-0.00548435436495343,3.334
-0.002995291494120147,3.335
-0.0006628475340322887,3.336
0.0013918899671911448,3.337
0.003096657745589183,3.338
0.0044357531382903225,3.339
0.00543430790962682,3.34
0.006120274133574534,3.341
0.0064953300466232735,3.342
0.006542852588849322,3.343
0.006262271577673934,3.344
0.00568721172235061,3.345
0.004882076530290899,3.346
0.00393264672881278,3.347
0.0029282473905494384,3.348
0.0019432478319205185,3.349
0.0010139760394074437,3.35
0.00011029979649412945,3.351
-0.0008627974315669231,3.352
-0.0020258694507014063,3.353
-0.0034713345218892813,3.354
-0.005198761881603566,3.355
-0.007047985360622426,3.356
-0.008687273346480975,3.357
-0.009708711068749567,3.358
-0.009780747489046273,3.359
-0.008757768450394244,3.36
-0.006712050186890536,3.361
-0.0039011049337985657,3.362
-0.0006919355923655089,3.363
0.0025201894979573077,3.364
0.005363184920492418,3.365
0.007499129593705132,3.366
0.00863070848886581,3.367
0.008557405445763302,3.368
0.007251522742434433,3.369
0.004885558954441746,3.37
0.0018266330068603073,3.371
-0.0013995440276584684,3.372
-0.004237226576841401,3.373
-0.006283853663531602,3.374
-0.007391333802013831,3.375
-0.00762488708196815,3.376
-0.00714029060795467,3.377
-0.006087390003866522,3.378
-0.00460401962807493,3.379
-0.0028613677855796275,3.38
-0.0010759496451435047,3.381
0.0005267775957101109,3.382
0.0017504292282646762,3.383
0.002453858314254354,3.384
0.002583981910309379,3.385
0.0022066974755671907,3.386
0.00151516232582151,3.387
0.0008066992023687437,3.388
0.0004114094747013677,3.389
0.000570619712164004,3.39
0.0013248692239109057,3.391
0.002500395117375638,3.392
0.003804483411310935,3.393
0.0049315399317946184,3.394
0.005614574640062267,3.395
0.005663555404272202,3.396
0.005012608344210758,3.397
0.0037341211095979245,3.398
0.0020118151032888967,3.399
9.864915226155875e-05,3.4
-0.0017394399246593102,3.401
-0.003296455373786504,3.402
-0.004487866212302425,3.403
-0.005357379990049397,3.404
-0.006027794063939004,3.405
-0.006640896001046563,3.406
-0.007292167163205731,3.407
-0.007945543667383913,3.408
-0.00839378465098223,3.409
-0.008349510656127185,3.41
-0.007632218522600149,3.411
-0.006307282213184962,3.412
-0.004665527826960919,3.413
-0.0030623399938014043,3.414
-0.0017270679120475157,3.415
-0.0006630836526890641,3.416
0.0002975385914881422,3.417
0.0013405197293749334,3.418
0.0025474768765572464,3.419
0.003866250581137336,3.42
0.005135092741323857,3.421
0.0061177496080748696,3.422
0.006557948682151525,3.423
0.006275020559952223,3.424
0.005249711661936456,3.425
0.0036266097905935423,3.426
0.0016680038365075411,3.427
-0.0002758911084554453,3.428
-0.0018119395465513136,3.429
-0.002619247225389638,3.43
-0.002591088158779928,3.431
-0.0018874953267963303,3.432
-0.0008532133424043719,3.433
0.00013455233311106588,3.434
0.0008015598848943908,3.435
0.0010372586956793398,3.436
0.0008759861667511428,3.437
0.00043344667402758633,3.438
-0.00017012655186253765,3.439
-0.0008601432434552471,3.44
-0.00159754988995281,3.441
-0.0023411643431869634,3.442
-0.0030411564563864847,3.443
-0.0036541415656273306,3.444
-0.004132930602401064,3.445
-0.004402108694296027,3.446
-0.004364922524250009,3.447
-0.003944364440744869,3.448
-0.003124946466764047,3.449
-0.001967125233481972,3.45
-0.0005872713139324738,3.451
0.0008773170486688161,3.452
0.0022788679033547846,3.453
0.0034401721325273893,3.454
0.004154275593045913,3.455
0.0042288912168704645,3.456
0.003546944763555152,3.457
0.0021002760900645104,3.458
-1.2624431572759768e-05,3.459
-0.0025838358442636343,3.46
-0.005264952119932656,3.461
-0.007555043582978988,3.462
-0.008871068667249583,3.463
-0.008711126075237371,3.464
-0.006852182550075061,3.465
-0.003474749933156787,3.466
0.0008826586584680171,3.467
0.0055169105175024566,3.468
0.009747206285693295,3.469
0.012991425454914706,3.47
0.014782565469315485,3.471
0.014799991364240128,3.472
0.01291496917045934,3.473
0.0092193370300611,3.474
0.00402264025845397,3.475
-0.002173329903093803,3.476
-0.008708351166290686,3.477
-0.014798530063313844,3.478
-0.019587603199483525,3.479
-0.02226886951099038,3.48
-0.022289363516545757,3.481
-0.01954775865202383,3.482
-0.014486572226824486,3.483
-0.008036097058676897,3.484
-0.0014083533934677245,3.485
0.004217364940171942,3.486
0.008006756149453443,3.487
0.009650605567417874,3.488
0.009367074534309164,3.489
0.0077590102841862026,3.49
0.005589104736438678,3.491
0.003565664528577755,3.492
0.0022022101436869304,3.493
0.0017513785854466044,3.494
0.002207962547529231,3.495
0.0033798132449611084,3.496
0.004998935108807489,3.497
0.0068050051073539775,3.498
0.008540751766905243,3.499
0.009897290200520228,3.5
0.010491587427643358,3.501
0.009892179030826249,3.502
0.007704515650914812,3.503
0.0037544062580167755,3.504
-0.0017038559605159066,3.505
-0.007959240260959248,3.506
-0.014079814871961364,3.507
-0.01920758876206853,3.508
-0.02267347364861071,3.509
-0.023979943348024276,3.51
-0.022824128965174894,3.511
-0.019165854198795417,3.512
-0.0132701342414888,3.513
-0.005713913615510862,3.514
0.002647744808856824,3.515
0.010778082045521456,3.516
0.017628886320205053,3.517
0.02234260601568631,3.518
0.024388616090094458,3.519
0.02356935762185833,3.52
0.019960074745446536,3.521
0.013907263041854844,3.522
0.006080367669106004,3.523
-0.002523745814252416,3.524
-0.01064938697161357,3.525
-0.016945077360568616,3.526
-0.02028283869513597,3.527
-0.020161212614474736,3.528
-0.016968910675489283,3.529
-0.011933411581437887,3.53
-0.0067283239040609325,3.531
-0.0028517566654454782,3.532
-0.001026469168140305,3.533
-0.0009519654035131883,3.534
-0.001603116860327007,3.535
-0.0018925377951217888,3.536
-0.00123073043499204,3.537
0.00032556708025814206,3.538
0.002276755556861315,3.539
0.004005114080453108,3.54
0.0050446220014824334,3.541
0.005234546266855846,3.542
0.004758222115406759,3.543
0.004067505871348193,3.544
0.003712909497677392,3.545
0.0041403033195235445,3.546
0.005520011063932339,3.547
0.007663005154784325,3.548
0.010053748789313699,3.549
0.011984492243432301,3.55
0.012746118631581184,3.551
0.011809128764862923,3.552
0.008920165893403867,3.553
0.004111578464644114,3.554
-0.002291757771002221,3.555
-0.009633812735528397,3.556
-0.01692223495297395,3.557
-0.022925865952104725,3.558
-0.026400427390844302,3.559
-0.026418925614148842,3.56
-0.022694855669735,3.561
-0.01574355608204146,3.562
-0.006813242031369828,3.563
0.0023920616810481432,3.564
0.010117250523036145,3.565
0.014956597591389257,3.566
0.01616650940270648,3.567
0.013866463317066305,3.568
0.009037167914825013,3.569
0.003208141248569209,3.57
-0.0020532924782612747,3.571
-0.005562783863151431,3.572
-0.006706599975306296,3.573
-0.005466597940639648,3.574
-0.0023884601041228772,3.575
0.0015064076631798205,3.576
0.0049486493570655545,3.577
0.006792255608213044,3.578
0.006396309635629827,3.579
0.0038287222183641598,3.58
-0.00021867884574799863,3.581
-0.004733445637927244,3.582
-0.008723937767463696,3.583
-0.011462403384291242,3.584
-0.01257849393338136,3.585
-0.011991782990103192,3.586
-0.00973864463313076,3.587
-0.005855711639868654,3.588
-0.0004550016504376715,3.589
0.00608194349725228,3.59
0.01299981120476005,3.591
0.019267566986492374,3.592
0.023824468771234102,3.593
0.025837102337160293,3.594
0.02484874193128554,3.595
0.02079795920549784,3.596
0.01397041874635749,3.597
0.004947292581948471,3.598
-0.005457475574631876,3.599
-0.016292020066938827,3.6
-0.026536562451807296,3.601
-0.03510186487777304,3.602
-0.04079862672925643,3.603
-0.04238912824171595,3.604
-0.03891171373748664,3.605
-0.030264104354822317,3.606
-0.017569404076512654,3.607
-0.002909925483651319,3.608
0.011369822424209225,3.609
0.023283185652237873,3.61
0.03148724304334177,3.611
0.03531274944764917,3.612
0.03470152791572891,3.613
0.030097674664906735,3.614
0.022277407505795804,3.615
0.012191634317419939,3.616
0.0009311716529168218,3.617
-0.010191674953212316,3.618
-0.019585404836671077,3.619
-0.025500642530877585,3.62
-0.02638054031010892,3.621
-0.02136809438500539,3.622
-0.010816496092945405,3.623
0.0034306013066798553,3.624
0.018277866647737683,3.625
0.030187735334863686,3.626
0.03615799949757106,3.627
0.03444079101550794,3.628
0.02493121376745652,3.629
0.009248588724002648,3.63
-0.009563976430285014,3.631
-0.02772311619471282,3.632
-0.041583489431644804,3.633
-0.048457976379725806,3.634
-0.04722561534834713,3.635
-0.03858598890165418,3.636
-0.02476634090263658,3.637
-0.008710956634280233,3.638
0.006828117033200742,3.639
0.01985092269713438,3.64
0.029229940161682944,3.641
0.034540462184357905,3.642
0.035734154975571454,3.643
0.03281606767037469,3.644
0.0257906542175114,3.645
0.015007280184111243,3.646
0.001626083344603112,3.647
-0.01228591517762298,3.648
-0.024211695704886307,3.649
-0.031925466688684984,3.65
-0.03414299211473346,3.651
-0.03083992608784025,3.652
-0.023155601976612063,3.653
-0.012972955736780131,3.654
-0.0023637009792204316,3.655
0.006881383757231173,3.656
0.01347718553403497,3.657
0.016686128805770348,3.658
0.016375704491152637,3.659
0.013146787145945993,3.66
0.008348987596663105,3.661
0.003806465030753853,3.662
0.0013224587966033726,3.663
0.0021103350921327976,3.664
0.0062386545316123415,3.665
0.012296433915878585,3.666
0.01761637372801797,3.667
0.0191984402710846,3.668
0.015012701507673445,3.669
0.004977525125778136,3.67
-0.008947499714378061,3.671
-0.023399802424854812,3.672
-0.03446376051989408,3.673
-0.03861335967580801,3.674
-0.033815364388961475,3.675
-0.02046124096881902,3.676
-0.001524222340995745,3.677
0.018346321522642598,3.678
0.034406738496878614,3.679
0.043293717317203946,3.68
0.043745001494533996,3.681
0.036414904799039645,3.682
0.023183456164068767,3.683
0.0064574365675799566,3.684
-0.011335156606892879,3.685
-0.02799550538693914,3.686
-0.04156764211244778,3.687
-0.05037850743437922,3.688
-0.05329010152982359,3.689
-0.04995625940855179,3.69
-0.040908525633388176,3.691
-0.02749859691295294,3.692
-0.011596738741475944,3.693
0.004895529771173901,3.694
0.020293160732934353,3.695
0.033053978192349856,3.696
0.041813404875311426,3.697
0.045655864757341576,3.698
0.04428897416599943,3.699
0.03799090234998513,3.7
0.02754638014018916,3.701
0.014277006921412653,3.702
1.7162769228824988e-05,3.703
-0.013147035391026386,3.704
-0.02338802954242897,3.705
-0.029682425678670937,3.706
-0.03207230933461094,3.707
-0.03139949609645313,3.708
-0.028590684114769793,3.709
-0.024011396896045506,3.71
-0.017402140108522687,3.711
-0.008376874955852797,3.712
0.0029355028694287404,3.713
0.015542546822085168,3.714
0.027733621834662166,3.715
0.03753278893249328,3.716
0.04316105723709709,3.717
0.04341368173879312,3.718
0.0379169011538347,3.719
0.027202360859476117,3.72
0.012615069044951825,3.721
-0.0038617329788897007,3.722
-0.019805271115978358,3.723
-0.03267865040112143,3.724
-0.04045835297983517,3.725
-0.04236131161006108,3.726
-0.039066107054593416,3.727
-0.032194147662608634,3.728
-0.023556329168963386,3.729
-0.014690165686525702,3.73
-0.006698134429104101,3.731
-0.0002107366705713267,3.732
0.004581208827220912,3.733
0.00782371625400685,3.734
0.009857166653564425,3.735
0.01107764868587249,3.736
0.011809863011464113,3.737
0.01219019050376248,3.738
0.012116413932556452,3.739
0.011319363266854265,3.74
0.009499069014207316,3.741
0.00645464946333316,3.742
0.0022376096780771133,3.743
-0.0026637183419144146,3.744
-0.0072385197837286745,3.745
-0.010157626274747039,3.746
-0.010252992236357384,3.747
-0.006949867444198611,3.748
-0.0004514267246551601,3.749
0.008217121322506009,3.75
0.01731840586655568,3.751
0.02480885767891405,3.752
0.028905959825695618,3.753
0.02849371312227161,3.754
0.023279962921128595,3.755
0.013848958887365528,3.756
0.0016448486625670186,3.757
-0.01118712804757909,3.758
-0.02214996832850817,3.759
-0.02901752103656333,3.76
-0.0307287616283309,3.761
-0.028084141551138846,3.762
-0.023432958768865378,3.763
-0.01927968319318377,3.764
-0.01690633981896807,3.765
-0.01597710857780769,3.766
-0.01504544064419044,3.767
-0.012455242550240362,3.768
-0.0072315589830542325,3.769
0.00040651414394051214,3.77
0.009145537830455077,3.771
0.01717375123179147,3.772
0.02287007303843457,3.773
0.025173892614291194,3.774
0.023526223662513668,3.775
0.017708886431560173,3.776
0.007976785201758064,3.777
-0.00452872670892846,3.778
-0.017537424416450297,3.779
-0.02807211367639076,3.78
-0.033505679646444575,3.781
-0.03262565624307471,3.782
-0.02600304464982962,3.783
-0.015441671608762845,3.784
-0.003006776481498821,3.785
0.009635055984979046,3.786
0.021363325343915433,3.787
0.03148262938540378,3.788
0.03954243935423272,3.789
0.04515379890937171,3.79
0.04779049654362464,3.791
0.04669783313374651,3.792
0.04109879946553507,3.793
0.03065855179357112,3.794
0.016005332625299944,3.795
-0.0009777603638819758,3.796
-0.017462460096913903,3.797
-0.030621484343092066,3.798
-0.03858157298585966,3.799
-0.04074963112012697,3.8
-0.03772597495605209,3.801
-0.031289921539642045,3.802
-0.02419378212456206,3.803
-0.01927758626850926,3.804
-0.018188043701164933,3.805
-0.02053252531447669,3.806
-0.024048349337017296,3.807
-0.025778726905570638,3.808
-0.023659288860806187,3.809
-0.017516397685447552,3.81
-0.008825708479890329,3.811
0.0003612692113968179,3.812
0.008383222306429315,3.813
0.014367503332492608,3.814
0.018149299696941505,3.815
0.01996928341011314,3.816
0.020234102587011787,3.817
0.019505797914230724,3.818
0.0186371660724336,3.819
0.01874082822907503,3.82
0.020715806088088495,3.821
0.024516193277314607,3.822
0.028807487435956614,3.823
0.03144550507313885,3.824
0.030439242985964798,3.825
0.024664306200298636,3.826
0.014043775882224845,3.827
-0.0004950723815470452,3.828
-0.017014303142359667,3.829
-0.03264839983120419,3.83
-0.04407855752983378,3.831
-0.04850344195649342,3.832
-0.044826510418439276,3.833
-0.03437935198800847,3.834
-0.020537317152623535,3.835
-0.007352577730925056,3.836
0.0019256168271450007,3.837
0.005730805510481339,3.838
0.004366730235281212,3.839
-0.00028219494085566143,3.84
-0.005364084923972531,3.841
-0.007977529158260176,3.842
-0.0062243851813160575,3.843
6.940696993781219e-05,3.844
0.009379326136259636,3.845
0.01920575752255475,3.846
0.026981733391136953,3.847
0.030671901978772727,3.848
0.028982805490459892,3.849
0.02142662860460004,3.85
0.008568972741773399,3.851
-0.007426080678894047,3.852
-0.02241216047958971,3.853
-0.030916763447225843,3.854
-0.028199255240680267,3.855
-0.01276494707934812,3.856
0.012333634249047938,3.857
0.040340539652977465,3.858
0.06323088135958671,3.859
0.07426875556949848,3.86
0.0696012932410797,3.861
0.048849663538357874,3.862
0.015154699764480303,3.863
-0.025198633189470947,3.864
-0.06394206604087486,3.865
-0.09295694575713372,3.866
-0.10671543029341184,3.867
-0.10382729262042589,3.868
-0.08690700785712098,3.869
-0.06100394776503196,3.87
-0.03166936614020781,3.871
-0.003643182959826719,3.872
0.019680191614724566,3.873
0.036330431459782486,3.874
0.045593572479857895,3.875
0.04774453923865886,3.876
0.04378175871271022,3.877
0.03507782964210834,3.878
0.022970817486883725,3.879
0.008646697025123511,3.88
-0.006450598527598832,3.881
-0.020067272556726502,3.882
-0.029216426092261324,3.883
-0.031202975376482072,3.884
-0.025006701499349072,3.885
-0.011974441400428162,3.886
0.004653578250989937,3.887
0.020852522536569953,3.888
0.03290037599388952,3.889
0.0383049885723042,3.89
0.03645545777723243,3.891
0.02870361080425705,3.892
0.017807953067566457,3.893
0.007046007349201167,3.894
-0.00048768174504629284,3.895
-0.002057726443892418,3.896
0.004717387931893216,3.897
0.021192902302612757,3.898
0.04619401257400846,3.899
0.0749394802142459,3.9
0.0997704874408966,3.901
0.11247801653793339,3.902
0.10668699993113435,3.903
0.0791821887866199,3.904
0.03046982170859897,3.905
-0.03464949356449043,3.906
-0.1066892086640908,3.907
-0.17255523413446625,3.908
-0.21901258299103554,3.909
-0.23719914699036082,3.91
-0.22510605866599398,3.911
-0.18670998101793918,3.912
-0.12965960908048832,3.913
-0.06355016609443902,3.914
0.0015108762287434569,3.915
0.056924872421891134,3.916
0.09744471452730936,3.917
0.12153440241128254,3.918
0.13032186347444805,3.919
0.12616857426029723,3.92
0.11161264137722926,3.921
0.0888754829403362,3.922
0.05978412674030533,3.923
0.026076613839626495,3.924
-0.009691702538877401,3.925
-0.04295955041392397,3.926
-0.06696077364745025,3.927
-0.07432462444884713,3.928
-0.05976663750466178,3.929
-0.022538405659718295,3.93
0.03238340997760724,3.931
0.09483974213383119,3.932
0.15165151785900266,3.933
0.18969960713335007,3.934
0.1987684546584131,3.935
0.17329413976916058,3.936
0.11325648265528639,3.937
0.02505500417932727,3.938
-0.0778085453435983,3.939
-0.17592994678100704,3.94
-0.24857952261744562,3.941
-0.280512727845158,3.942
-0.2669418999987294,3.943
-0.21335196780787138,3.944
-0.1313742393462447,3.945
-0.03475727633490373,3.946
0.062433493430728876,3.947
0.14641029625747562,3.948
0.20481856631127857,3.949
0.22881996630868753,3.95
0.2149770706447139,3.951
0.1658823277681406,3.952
0.08972921754888717,3.953
-0.0004964447820094325,3.954
-0.08835326451531816,3.955
-0.15675092836634102,3.956
-0.1924109844197379,3.957
-0.18989090146472495,3.958
-0.15240229600812907,3.959
-0.08954173222582,3.96
-0.014508588212096173,3.961
0.05795756700112303,3.962
0.11357243903117901,3.963
0.14073634799356333,3.964
0.13258818993916438,3.965
0.08864069578414825,3.966
0.015735603258224425,3.967
-0.07244500442425143,3.968
-0.15796139061476586,3.969
-0.22308723891156743,3.97
-0.2554876321943979,3.971
-0.2517584782057493,3.972
-0.21719426623580548,3.973
-0.16244847594817813,3.974
-0.09959844889068341,3.975
-0.03889276185795193,3.976
0.013539277942107217,3.977
0.05647388627730781,3.978
0.0927738626248655,3.979
0.1275728675792382,3.98
0.1660975044868381,3.981
0.21145680157984745,3.982
0.2627099364192661,3.983
0.3140963078010024,3.984
0.356570608122124,3.985
0.3812868516096479,3.986
0.3825070016308692,3.987
0.3580139063317971,3.988
0.3080436433715878,3.989
0.2347865316050458,3.99
0.14300759404278784,3.991
0.04068940862206247,3.992
