VaMe,time
-0.005044087991198427,0.001
-0.004768622836818071,0.002
-0.004494722435711593,0.003
-0.00422263954806144,0.004
-0.003952620698290981,0.005
-0.00368490386983947,0.006
-0.0034197147711717162,0.007
-0.0031572623289982693,0.008
-0.0028977345423618164,0.009
-0.0026412959409501204,0.01
-0.0023880875390004455,0.011
-0.0021382294897276267,0.012
-0.0018918259194641686,0.013
-0.0016489704850019189,0.014
-0.0014097501838044584,0.015
-0.0011742458290021243,0.016
-0.0009425303957273036,0.017
-0.0007146675634314244,0.018
-0.0004907114846580285,0.019
-0.00027070764665506383,0.02
-5.469442152576891e-05,0.021
0.00015729510687965048,0.022
0.0003652314169510464,0.023
0.0005690872277642623,0.024
0.0007688367803497071,0.025
0.0009644558108705443,0.026
0.0011559222134358423,0.027
0.001343217304649168,0.028
0.001526327485990292,0.029
0.0017052459414295049,0.03
0.0018799738524043767,0.031
0.0020505205503321493,0.032
0.0022169021411784567,0.033
0.002379138910185813,0.034
0.0025372533711319617,0.035
0.0026912710057362043,0.036
0.0028412233548672995,0.037
0.002987151231041559,0.038
0.003129106379227973,0.039
0.0032671511540926846,0.04
0.003401356459150811,0.041
0.00353179853576038,0.042
0.003658555489832639,0.043
0.003781704722202641,0.044
0.003901322009735969,0.045
0.004017481722285069,0.046
0.004130257000012484,0.047
0.004239719300777708,0.048
0.004345937518532935,0.049
0.0044489771750813294,0.05
0.004548900011495331,0.051
0.004645764081245749,0.052
0.004739624530578711,0.053
0.004830535141966641,0.054
0.004918550228250754,0.055
0.005003726213976295,0.056
0.005086122391090036,0.057
0.005165800612730476,0.058
0.0052428239554154895,0.059
0.00531725473143315,0.06
0.005389152823601265,0.061
0.0054585754976325986,0.062
0.005525578835361874,0.063
0.005590219766248009,0.064
0.005652557675351583,0.065
0.005712655122677954,0.066
0.005770577486266816,0.067
0.0058263914803506995,0.068
0.005880162943493087,0.069
0.005931955153109752,0.07
0.005981828986942184,0.071
0.006029844723692088,0.072
0.0060760639905013515,0.073
0.006120550700857118,0.074
0.006163370685249975,0.075
0.0062045901723511735,0.076
0.00624427364082329,0.077
0.006282482089656836,0.078
0.006319272726713389,0.079
0.006354699912148496,0.08
0.006388816201604017,0.081
0.006421672595669655,0.082
0.006453317809681925,0.083
0.006483796952445537,0.084
0.006513150554234806,0.085
0.006541414632811941,0.086
0.006568621309857675,0.087
0.006594798963417053,0.088
0.0066199716235635225,0.089
0.006644158229491881,0.09
0.006667372356989217,0.091
0.006689622248736871,0.092
0.0067109109378270335,0.093
0.0067312369875330656,0.094
0.0067505961409744155,0.095
0.006768983108531852,0.096
0.006786392386168676,0.097
0.006802817508650827,0.098
0.006818249341879344,0.099
0.00683267552288993,0.1
0.006846082522441764,0.101
0.006858459150756606,0.102
0.006869799411608681,0.103
0.0068801037354500145,0.104
0.006889378485499092,0.105
0.006897633954660778,0.106
0.006904881288164686,0.107
0.006911129334756817,0.108
0.006916383242975056,0.109
0.006920645798330315,0.11
0.006923920328364936,0.111
0.00692621346570789,0.112
0.006927537005138572,0.113
0.00692790855388444,0.114
0.0069273507241361006,0.115
0.006925888765714173,0.116
0.0069235473513268465,0.117
0.006920348732830053,0.118
0.0069163141115747406,0.119
0.006911467189866896,0.12
0.0069058373206841595,0.121
0.006899460628952698,0.122
0.0068923786355604925,0.123
0.00688463495759934,0.124
0.006876272320337973,0.125
0.006867332513833713,0.126
0.006857859286349625,0.127
0.0068479015289648155,0.128
0.006837514572770327,0.129
0.006826759207343873,0.13
0.006815698980529944,0.131
0.006804396793627122,0.132
0.0067929122624945625,0.133
0.0067813009881408474,0.134
0.0067696153625547775,0.135
0.006757905478870362,0.136
0.006746219214856655,0.137
0.006734601444112263,0.138
0.006723092794035772,0.139
0.006711728629039095,0.14
0.006700538673843741,0.141
0.006689547009021645,0.142
0.006678772242407287,0.143
0.006668228298829334,0.144
0.0066579260619936565,0.145
0.00664787531425864,0.146
0.006638086212326709,0.147
0.006628569851724435,0.148
0.0066193378037202,0.149
0.006610400761702913,0.15
0.00660176670246187,0.151
0.0065934393503904055,0.152
0.006585417808591229,0.153
0.006577697451641754,0.154
0.006570271332039604,0.155
0.006563131422435131,0.156
0.006556269491708602,0.157
0.006549677617550795,0.158
0.006543348398973277,0.159
0.0065372749933725344,0.16
0.006531451113672253,0.161
0.006525871048535327,0.162
0.006520529631019337,0.163
0.006515421948271481,0.164
0.006510542533069712,0.165
0.006505883938038621,0.166
0.0065014352901095135,0.167
0.006497182211194832,0.168
0.006493108867083489,0.169
0.0064892012857816605,0.17
0.006485450596691765,0.171
0.006481855398373198,0.172
0.00647842282885814,0.173
0.006475168101737212,0.174
0.006472112538553327,0.175
0.0064692803909437635,0.176
0.00646669530229363,0.177
0.0064643781154567394,0.178
0.006462347255079371,0.179
0.006460620849916031,0.18
0.006459218804416584,0.181
0.006458163856319882,0.182
0.006457481457430155,0.183
0.006457198563259237,0.184
0.006457341568741519,0.185
0.006457933998789191,0.186
0.006458995017599815,0.187
0.006460539367214088,0.188
0.006462578123950362,0.189
0.006465119327404165,0.19
0.006468168131873995,0.191
0.006471726453279538,0.192
0.006475792215883249,0.193
0.006480358823465908,0.194
0.006485415750639567,0.195
0.006490950370894167,0.196
0.006496950204133885,0.197
0.006503404736677075,0.198
0.006510306389601852,0.199
0.006517650485495835,0.2
0.006525434223679608,0.201
0.006533654797684477,0.202
0.006542307146129679,0.203
0.006551382538158739,0.204
0.006560869100447204,0.205
0.006570753992681849,0.206
0.006581026009065044,0.207
0.006591677757258318,0.208
0.006602707105142099,0.209
0.006614117737395178,0.21
0.006625918690659568,0.211
0.006638122785577058,0.212
0.006650743977164565,0.213
0.006663794358930296,0.214
0.006677282776372835,0.215
0.006691216321355729,0.216
0.006705603420138096,0.217
0.0067204564340097315,0.218
0.006735792839229924,0.219
0.006751634850190826,0.22
0.006768007684580672,0.221
0.006784936975915239,0.222
0.0068024460302072405,0.223
0.0068205537311357345,0.224
0.006839273738803357,0.225
0.006858614963386001,0.226
0.006878582735746821,0.227
0.006899180259538554,0.228
0.006920410241554606,0.229
0.006942276520269356,0.23
0.0069647853077594735,0.231
0.0069879455984486125,0.232
0.00701176842481605,0.233
0.007036264919366243,0.234
0.007061443789773099,0.235
0.007087309710593725,0.236
0.007113863778336155,0.237
0.007141105414084421,0.238
0.007169034303446257,0.239
0.007197651651873036,0.24
0.0072269606313245666,0.241
0.007256965997521886,0.242
0.007287672871467134,0.243
0.007319084751475279,0.244
0.007351201283363487,0.245
0.007384017008438289,0.246
0.0074175217117167435,0.247
0.007451701307005689,0.248
0.0074865378574361235,0.249
0.007522008654313605,0.25
0.007558085566252756,0.251
0.00759473560131654,0.252
0.0076319220438140845,0.253
0.007669604827815262,0.254
0.007707739798117612,0.255
0.007746278046027263,0.256
0.007785166855810075,0.257
0.007824352270924092,0.258
0.007863781884795664,0.259
0.007903406645597869,0.26
0.00794318122311463,0.261
0.00798306299240685,0.262
0.008023010038384376,0.263
0.008062978788063451,0.264
0.008102921828706876,0.265
0.008142786204147762,0.266
0.008182512340828854,0.267
0.008222033944731925,0.268
0.008261279152423735,0.269
0.008300172652273613,0.27
0.00833863810715556,0.271
0.008376600232222147,0.272
0.00841398602086648,0.273
0.008450724884750033,0.274
0.00848674788174071,0.275
0.008521986566735187,0.276
0.008556372144393235,0.277
0.008589835451812203,0.278
0.008622307910436127,0.279
0.008653723114351574,0.28
0.008684018323447553,0.281
0.008713134908179846,0.282
0.008741016817396051,0.283
0.0087676074512073,0.284
0.00879284813362482,0.285
0.008816681416212857,0.286
0.008839058130484983,0.287
0.008859944367487688,0.288
0.008879325785484246,0.289
0.0088972084740679,0.29
0.008913616642419468,0.291
0.008928588009261282,0.292
0.008942167947042121,0.293
0.0089544034902781,0.294
0.008965338911475917,0.295
0.008975014860741296,0.296
0.008983471329445505,0.297
0.008990752467216949,0.298
0.00899691121107291,0.299
0.009002012713177349,0.3
0.00900613595742552,0.301
0.009009373122089062,0.302
0.009011826644827912,0.303
0.009013604454437999,0.304
0.009014814581350292,0.305
0.009015561275221093,0.306
0.009015944285914903,0.307
0.009016060648786161,0.308
0.00901600695232205,0.309
0.009015880911761478,0.31
0.009015782100188217,0.311
0.009015811859352412,0.312
0.009016072340575573,0.313
0.009016664683113297,0.314
0.009017686582400925,0.315
0.009019230063619502,0.316
0.009021380621899429,0.317
0.009024217960551667,0.318
0.009027817183613932,0.319
0.00903224927506976,0.32
0.00903758054007228,0.321
0.009043871342309145,0.322
0.009051175004812577,0.323
0.009059537600412573,0.324
0.009068998338749494,0.325
0.009079589744758153,0.326
0.009091337377840306,0.327
0.00910425944429954,0.328
0.009118366712416007,0.329
0.009133662838722766,0.33
0.009150144814360205,0.331
0.009167803005637418,0.332
0.00918662073769977,0.333
0.009206574411007805,0.334
0.009227634954727497,0.335
0.009249769770978472,0.336
0.009272943584635233,0.337
0.009297117569883313,0.338
0.00932224783059372,0.339
0.00934828530448634,0.34
0.009375177704951224,0.341
0.009402871783013488,0.342
0.009431314082635018,0.343
0.009460449750990352,0.344
0.009490220143127288,0.345
0.00952056102233528,0.346
0.009551403130885167,0.347
0.009582675077101654,0.348
0.00961430700736867,0.349
0.009646233738253216,0.35
0.009678396646433569,0.351
0.009710743896661362,0.352
0.009743228858798319,0.353
0.00977580691040001,0.354
0.00980843145618004,0.355
0.009841051077872564,0.356
0.009873609724039153,0.357
0.009906049785073767,0.358
0.00993831623806718,0.359
0.009970360468616562,0.36
0.01000214323119534,0.361
0.010033636352146219,0.362
0.010064822721500383,0.363
0.010095694284102598,0.364
0.010126248118529755,0.365
0.010156481433278497,0.366
0.010186387573062148,0.367
0.010215955401382332,0.368
0.010245172189936898,0.369
0.010274027820130439,0.37
0.010302518316233938,0.371
0.010330647911139268,0.372
0.0103584292523591,0.373
0.010385881477015994,0.374
0.01041302621111616,0.375
0.01043988271158816,0.376
0.010466465063783549,0.377
0.010492783248454792,0.378
0.010518846160165948,0.379
0.010544663560259902,0.38
0.010570245868741468,0.381
0.010595602110354896,0.382
0.010620736906992797,0.383
0.010645648037846222,0.384
0.010670325970153263,0.385
0.010694755276635659,0.386
0.010718916626312011,0.387
0.010742788347111756,0.388
0.01076634728844934,0.389
0.010789568912043511,0.39
0.01081242650397033,0.391
0.010834889388725455,0.392
0.010856920651239547,0.393
0.010878476266779435,0.394
0.01089950729140148,0.395
0.010919964285365274,0.396
0.010939801800018583,0.397
0.010958981373768563,0.398
0.010977472194110204,0.399
0.010995249146159056,0.4
0.011012288669918774,0.401
0.011028563877633082,0.402
0.01104404143019101,0.403
0.01105868167130081,0.404
0.011072440830982522,0.405
0.011085273419854954,0.406
0.011097134355267662,0.407
0.011107981139245035,0.408
0.011117776124213795,0.409
0.011126488394265922,0.41
0.011134094458074008,0.411
0.011140576975853769,0.412
0.011145921127757825,0.413
0.011150109763017831,0.414
0.0111531208504989,0.415
0.01115492972790218,0.416
0.011155514069119514,0.417
0.011154857846497073,0.418
0.011152952683427293,0.419
0.01114979673811356,0.42
0.011145391885587946,0.421
0.011139740166146198,0.422
0.011132840286087015,0.423
0.01112468462797276,0.424
0.011115257217412005,0.425
0.01110453330446719,0.426
0.011092480783733505,0.427
0.011079062838551602,0.428
0.011064241087490984,0.429
0.011047978850475568,0.43
0.011030244126597123,0.431
0.011011011605304596,0.432
0.010990262849443364,0.433
0.010967983863391264,0.434
0.010944160674942876,0.435
0.010918776552114658,0.436
0.010891814618535172,0.437
0.01086326492396937,0.438
0.010833131632212532,0.439
0.010801437064529285,0.44
0.010768221413558174,0.441
0.01073353821666066,0.442
0.010697447031454949,0.443
0.010660006775424592,0.444
0.010621273752519669,0.445
0.010581304875789196,0.446
0.010540162663039756,0.447
0.01049791905277481,0.448
0.01045465747560247,0.449
0.010410473410778474,0.45
0.010365473463509063,0.451
0.01031977285219267,0.452
0.0102734912562191,0.453
0.010226747793511331,0.454
0.010179657512954405,0.455
0.010132331654071356,0.456
0.010084880961809076,0.457
0.01003741940223802,0.458
0.009990066663327976,0.459
0.009942949250803263,0.46
0.00989620032324326,0.461
0.009849958281145696,0.462
0.009804364042886463,0.463
0.009759557346840286,0.464
0.009715673633171856,0.465
0.009672843562576122,0.466
0.009631195251827618,0.467
0.009590857032549372,0.468
0.009551958826551169,0.469
0.00951463174460777,0.47
0.009479006275566925,0.471
0.009445209623804187,0.472
0.009413363064770308,0.473
0.009383580465178995,0.474
0.009355968231427718,0.475
0.009330625536597106,0.476
0.009307644050936004,0.477
0.009287107861232142,0.478
0.009269094151123494,0.479
0.009253673957859103,0.48
0.009240912125157664,0.481
0.009230866502443777,0.482
0.00922358722715698,0.483
0.009219116796603994,0.484
0.00921749084387243,0.485
0.009218739180641648,0.486
0.009222886941157072,0.487
0.009229955810150322,0.488
0.009239965216244324,0.489
0.009252933305571908,0.49
0.009268877534395021,0.491
0.009287814750284805,0.492
0.009309760628124305,0.493
0.009334728340967791,0.494
0.009362726609884063,0.495
0.009393757994425116,0.496
0.009427818629009618,0.497
0.009464899540564791,0.498
0.009504988386053364,0.499
0.009548070583573452,0.5
0.009594129663342528,0.501
0.009643147100293006,0.502
0.00969510198802943,0.503
0.009749970886912821,0.504
0.009807728011252754,0.505
0.009868345652553087,0.506
0.009931794489414957,0.507
0.009998043351288776,0.508
0.0100670581446249,0.509
0.010138799960098309,0.51
0.010213222969196557,0.511
0.010290273321046326,0.512
0.01036988967175249,0.513
0.0104520045961444,0.514
0.010536545918791442,0.515
0.010623437732413407,0.516
0.010712601194379924,0.517
0.010803955161676511,0.518
0.010897416698543876,0.519
0.010992901458019486,0.52
0.011090323862872151,0.521
0.011189596895497998,0.522
0.011290631219750729,0.523
0.011393333386132493,0.524
0.011497603469233434,0.525
0.011603333694146145,0.526
0.011710409558323105,0.527
0.01181871307638814,0.528
0.011928126709274067,0.529
0.01203853710926522,0.53
0.01214983829980558,0.531
0.012261933808153363,0.532
0.012374737092724073,0.533
0.01248816961359776,0.534
0.012602156229980746,0.535
0.012716619512952413,0.536
0.01283147751381619,0.537
0.012946647948085945,0.538
0.013062055874839159,0.539
0.013177640059832152,0.54
0.013293355786526392,0.541
0.01340917376157228,0.542
0.013525075525171524,0.543
0.013641046430480187,0.544
0.013757068272953374,0.545
0.013873114579589873,0.546
0.013989149634340795,0.547
0.014105128643148519,0.548
0.014220996752337562,0.549
0.014336688158205144,0.55
0.014452126791485088,0.551
0.014567227106727868,0.552
0.014681893505647066,0.553
0.01479602041167474,0.554
0.014909495661482898,0.555
0.01502220640746544,0.556
0.015134044730937608,0.557
0.015244911187642976,0.558
0.015354715776047443,0.559
0.015463376550746684,0.56
0.01557081654293406,0.561
0.01567695966181811,0.562
0.01578172595144782,0.563
0.015885027010613423,0.564
0.01598676387740855,0.565
0.016086829209733353,0.566
0.016185112491439373,0.567
0.016281505591086584,0.568
0.01637590710060142,0.569
0.016468224763141907,0.57
0.016558375573795425,0.571
0.01664628342029766,0.572
0.016731874436223815,0.573
0.016815070971890063,0.574
0.01689578669023648,0.575
0.016973925746883046,0.576
0.017049386111635898,0.577
0.017122064022892364,0.578
0.01719185704401723,0.579
0.01725866521514258,0.58
0.01732239081941608,0.581
0.017382937606306693,0.582
0.01744021034266384,0.583
0.017494115170024284,0.584
0.017544560497117445,0.585
0.017591457329571653,0.586
0.017634717416595915,0.587
0.01767424897093399,0.588
0.017709953956284392,0.589
0.01774173259513886,0.59
0.017769495383957175,0.591
0.01779317731978756,0.592
0.017812749234720395,0.593
0.017828223603397628,0.594
0.017839653664361126,0.595
0.01784712567982665,0.596
0.017850745374568013,0.597
0.017850623262226084,0.598
0.01784686821286415,0.599
0.01783959412518009,0.6
0.017828933169806077,0.601
0.017815046708820833,0.602
0.01779813075515661,0.603
0.017778416107950865,0.604
0.01775616388346549,0.605
0.017731657459059556,0.606
0.017705191944588704,0.607
0.017677063189321104,0.608
0.01764756036096741,0.609
0.017616965385978345,0.61
0.017585557379142792,0.611
0.017553617006386663,0.612
0.017521427752625378,0.613
0.017489273978705522,0.614
0.017457436885428886,0.615
0.01742618983788779,0.616
0.017395794424229186,0.617
0.017366498194256636,0.618
0.01733853439835006,0.619
0.01731212340635673,0.62
0.017287475011649466,0.621
0.017264790649449475,0.622
0.01724426468441042,0.623
0.01722608423234585,0.624
0.01721042734714135,0.625
0.017197460316770972,0.626
0.01718733618650256,0.627
0.01718019599416168,0.628
0.017176171444831433,0.629
0.017175386720468852,0.63
0.01717795839420579,0.631
0.017183993565777763,0.632
0.017193587158400817,0.633
0.017206820118749088,0.634
0.017223759587508103,0.635
0.017244460135145342,0.636
0.017268964502116114,0.637
0.017297303238156064,0.638
0.01732949346391699,0.639
0.017365537422845728,0.64
0.017405421691118556,0.641
0.017449117299361834,0.642
0.017496580092619788,0.643
0.017547750632245757,0.644
0.017602553660218574,0.645
0.017660897717062488,0.646
0.017722675311759643,0.647
0.01778776323346719,0.648
0.01785602248999418,0.649
0.017927298404594685,0.65
0.018001422008244904,0.651
0.018078213049029436,0.652
0.01815748391566833,0.653
0.01823904351414909,0.654
0.018322700207757742,0.655
0.018408263037130057,0.656
0.018495540724313718,0.657
0.018584338418567676,0.658
0.018674453023176732,0.659
0.018765669430726963,0.66
0.01885776017344465,0.661
0.018950488369235508,0.662
0.01904361145893955,0.663
0.019136883769414244,0.664
0.019230057508499897,0.665
0.01932288261387746,0.666
0.019415106327647008,0.667
0.01950647370437039,0.668
0.019596730215097252,0.669
0.019685626990055452,0.67
0.019772928073367366,0.671
0.019858417682717976,0.672
0.019941904521334024,0.673
0.020023220337656494,0.674
0.020102211321582228,0.675
0.0201787257126775,0.676
0.020252607936926022,0.677
0.02032370651725812,0.678
0.020391890328876925,0.679
0.020457063781612248,0.68
0.020519176972554565,0.681
0.020578230083329714,0.682
0.02063427179962502,0.683
0.020687392138451458,0.684
0.02073771085379183,0.685
0.020785363333059796,0.686
0.020830486586797377,0.687
0.020873208902701394,0.688
0.020913646377026862,0.689
0.02095190593321329,0.69
0.020988091114142352,0.691
0.021022307769587325,0.692
0.021054668952130467,0.693
0.02108529891494304,0.694
0.02111433601231647,0.695
0.021141934382038725,0.696
0.021168264383382634,0.697
0.02119351175814439,0.698
0.021217875366688826,0.699
0.021241563223044727,0.7
0.021264786547313338,0.701
0.021287752321462988,0.702
0.021310657150168853,0.703
0.02133368645057389,0.704
0.021357019350553202,0.705
0.021380834948874505,0.706
0.02140531574934016,0.707
0.021430647018678247,0.708
0.021457012563456508,0.709
0.02148458843641533,0.71
0.021513537460036865,0.711
0.02154400741707399,0.712
0.021576132528775115,0.713
0.02161003482027376,0.714
0.021645823047197376,0.715
0.021683590262422114,0.716
0.02172341288529586,0.717
0.021765352240248538,0.718
0.02180945647738374,0.719
0.021855760728055344,0.72
0.021904285301064485,0.721
0.021955033055636057,0.722
0.02200798754556618,0.723
0.022063112574763673,0.724
0.02212035223108723,0.725
0.022179630788760996,0.726
0.02224085328878294,0.727
0.022303907429108663,0.728
0.022368666164067703,0.729
0.022434990040041305,0.73
0.022502728644141698,0.731
0.022571720762108262,0.732
0.02264179290948081,0.733
0.022712756613282342,0.734
0.022784406607630692,0.735
0.022856522527488602,0.736
0.022928873989611524,0.737
0.02300122650972295,0.738
0.023073346065594212,0.739
0.023145001364003062,0.74
0.023215963416881164,0.741
0.02328600210558292,0.742
0.023354880382186406,0.743
0.023422350022288103,0.744
0.023488154656299474,0.745
0.0235520413064736,0.746
0.02361377558155356,0.747
0.023673154587088466,0.748
0.023730013308540226,0.749
0.023784221439363974,0.75
0.023835670527061925,0.751
0.02388425958258002,0.752
0.023929893832587153,0.753
0.023972501597079657,0.754
0.024012057336618434,0.755
0.024048596722148322,0.756
0.02408221825278809,0.757
0.02411307173260301,0.758
0.02414133707988962,0.759
0.024167202409590565,0.76
0.024190854467207642,0.761
0.024212485690420858,0.762
0.024232307255655193,0.763
0.024250556524476406,0.764
0.024267496270254322,0.765
0.024283407860781838,0.766
0.024298581368974677,0.767
0.024313305476657925,0.768
0.024327859241229065,0.769
0.024342506705877374,0.77
0.024357494288454212,0.771
0.02437305007423942,0.772
0.02438938368511893,0.773
0.024406685600436222,0.774
0.02442512619978313,0.775
0.024444856419156585,0.776
0.024466011152711353,0.777
0.024488714006567918,0.778
0.024513081142684523,0.779
0.02453922291650556,0.78
0.02456724303808826,0.781
0.02459723580374328,0.782
0.024629282572850828,0.783
0.02466344880654846,0.784
0.02469978259902078,0.785
0.02473831492923497,0.786
0.024779061160612455,0.787
0.02482202288918298,0.788
0.024867189182395017,0.789
0.02491453643940856,0.79
0.02496402636556514,0.791
0.025015602907975172,0.792
0.025069191581115976,0.793
0.025124704114921022,0.794
0.02518204703039162,0.795
0.025241130661016405,0.796
0.025301876365632886,0.797
0.02536422069918657,0.798
0.025428115732679956,0.799
0.025493525204291868,0.8
0.025560416616813946,0.801
0.02562875136053503,0.802
0.025698479018933164,0.803
0.025769541585419005,0.804
0.02584188577577724,0.805
0.025915476627240586,0.806
0.0259903071887163,0.807
0.026066401692475014,0.808
0.02614381110217253,0.809
0.026222601545509212,0.81
0.026302839451045314,0.811
0.026384581688057275,0.812
0.02646787689057939,0.813
0.02655277447815585,0.814
0.026639333292087838,0.815
0.02672762550328084,0.816
0.0268177351913192,0.817
0.026909752215471257,0.818
0.02700376274020982,0.819
0.02709983957946168,0.82
0.027198037355578568,0.821
0.027298394453842748,0.822
0.02740093786269299,0.823
0.027505686401116478,0.824
0.02761265118388971,0.825
0.027721833713181262,0.826
0.02783322203947934,0.827
0.02794678599725284,0.828
0.02806247380902978,0.829
0.028180212305859213,0.83
0.02829991058136738,0.831
0.02842146524049897,0.832
0.028544766186701202,0.833
0.02866970272773465,0.834
0.02879616931329455,0.835
0.028924069312635775,0.836
0.029053314819399788,0.837
0.0291838209356115,0.838
0.029315496095998803,0.839
0.02944823573263178,0.84
0.029581926390506507,0.841
0.029716458125340135,0.842
0.029851736992094046,0.843
0.029987692302338564,0.844
0.030124277795170566,0.845
0.030261468175570436,0.846
0.030399253459200474,0.847
0.030537633471582275,0.848
0.030676613852484068,0.849
0.030816203505524237,0.85
0.030956412128293996,0.851
0.031097245717276553,0.852
0.031238699495601648,0.853
0.03138075271286114,0.854
0.03152337200317011,0.855
0.03166652364618476,0.856
0.03181018804225244,0.857
0.03195437023507159,0.858
0.032099104252687,0.859
0.03224445145035415,0.86
0.03239049428006504,0.861
0.032537327671460774,0.862
0.032685050382870784,0.863
0.03283375824461467,0.864
0.03298354026608713,0.865
0.03313447734040493,0.866
0.03328664209495288,0.867
0.03344009769209608,0.868
0.033594893657817135,0.869
0.03375106017348131,0.87
0.03390860744849829,0.871
0.03406753494676403,0.872
0.034227846424360706,0.873
0.03438956313437203,0.874
0.03455273056240485,0.875
0.03471741683309325,0.876
0.03488370284557722,0.877
0.035051667104042554,0.878
0.03522137192104977,0.879
0.03539285736295103,0.88
0.03556614162628639,0.881
0.03574122094442953,0.882
0.0359180676068073,0.883
0.03609663184477995,0.884
0.03627685031644899,0.885
0.03645865643728783,0.886
0.03664198639609714,0.887
0.03682677792918025,0.888
0.03701296212124167,0.889
0.03720045329745279,0.89
0.037389146561522424,0.891
0.037578927723017366,0.892
0.03776968975566591,0.893
0.03796134724477165,0.894
0.03815384416594331,0.895
0.038347152562422326,0.896
0.03854126090642536,0.897
0.03873615610900765,0.898
0.0389318116991335,0.899
0.03912819248003176,0.9
0.039325270170988726,0.901
0.03952303645532443,0.902
0.039721505869683094,0.903
0.03992070771075607,0.904
0.040120670319877566,0.905
0.04032140657932031,0.906
0.04052291064636741,0.907
0.04072516634107569,0.908
0.04092815779006345,0.909
0.04113187477449015,0.91
0.0413363118437359,0.911
0.04154146291029211,0.912
0.041747312907170764,0.913
0.04195382779290454,0.914
0.04216094557090367,0.915
0.042368572988572925,0.916
0.0425765896562958,0.917
0.04278485522589362,0.918
0.042993214439387716,0.919
0.04320149841164544,0.92
0.04340952266348219,0.921
0.0436170827636523,0.922
0.04382394821057833,0.923
0.0440298563340769,0.924
0.04423451087747235,0.925
0.04443758859086286,0.926
0.04463875076930216,0.927
0.04483765350539669,0.928
0.04503395191053541,0.929
0.04522729518066443,0.93
0.04541731526662482,0.931
0.04560362325532633,0.932
0.04578582559319335,0.933
0.045963553258981195,0.934
0.046136487094563125,0.935
0.04630436762432803,0.936
0.04646698353083764,0.937
0.04662414444147561,0.938
0.04677566388644068,0.939
0.0469213757889182,0.94
0.047061173820585805,0.941
0.047195043241671585,0.942
0.047323066324492534,0.943
0.04744539829104709,0.944
0.0475622264857851,0.945
0.04767374392261757,0.946
0.04778015989119429,0.947
0.04788173369990172,0.948
0.047978802391622145,0.949
0.04807178824110529,0.95
0.048161185052666804,0.951
0.04824752733235242,0.952
0.04833135531689634,0.953
0.048413198204879604,0.954
0.04849358504832497,0.955
0.0485730660383617,0.956
0.048652223740441126,0.957
0.04873166969953402,0.958
0.04881203082026741,0.959
0.048893931383965014,0.96
0.04897797616171319,0.961
0.049064738304539605,0.962
0.049154753261372405,0.963
0.049248517643204544,0.964
0.0493464903451992,0.965
0.049449092762751834,0.966
0.049556706826259525,0.967
0.049669673789682386,0.968
0.049788297542577596,0.969
0.04991285101419643,0.97
0.05004358035345242,0.971
0.050180703206082436,0.972
0.05032440245304078,0.973
0.050474822110082765,0.974
0.05063206986212879,0.975
0.05079622150456171,0.976
0.05096732070862566,0.977
0.051145376448111166,0.978
0.05133036688048434,0.979
0.051522252662271305,0.98
0.05172099240270961,0.981
0.05192655101608688,0.982
0.05213889642063064,0.983
0.05235798619807282,0.984
0.05258375439396572,0.985
0.0528161113359111,0.986
0.05305495697840634,0.987
0.05330019484745387,0.988
0.05355173523485688,0.989
0.053809485369024745,0.99
0.05407333226311834,0.991
0.054343130424171424,0.992
0.054618702813080636,0.993
0.0548998498657646,0.994
0.05518635646253026,0.995
0.055477993495780184,0.996
0.05577451651559294,0.997
0.056075665196424165,0.998
0.056381166358049545,0.999
0.056690740684238204,1.0
0.05700410995864759,1.001
0.05732099926638327,1.002
0.05764112881597188,1.003
0.05796419790581288,1.004
0.058289877564317895,1.005
0.058617825999075585,1.006
0.05894771941246184,1.007
0.059279281299111565,1.008
0.059612301091905164,1.009
0.05994663912895256,1.01
0.06028221711463036,1.011
0.060618995691796206,1.012
0.06095694366709929,1.013
0.061296009017373025,1.014
0.06163610612900211,1.015
0.06197712390693903,1.016
0.062318942989811735,1.017
0.06266144937159843,1.018
0.06300454084749721,1.019
0.06334812622461113,1.02
0.06369211683096164,1.021
0.06403641033851938,1.022
0.06438087188380537,1.023
0.06472532514085759,1.024
0.06506956082260969,1.025
0.06541335351326198,1.026
0.0657564731921061,1.027
0.06609868563925239,1.028
0.0664397411499291,1.029
0.066779357153989,1.03
0.06711721039668561,1.031
0.06745295019410402,1.032
0.06778622506389999,1.033
0.06811670780506372,1.034
0.06844411151224539,1.035
0.0687681942820325,1.036
0.06908875200772671,1.037
0.06940560013595412,1.038
0.06971854739185847,1.039
0.07002736998817845,1.04
0.07033179865853899,1.041
0.07063152011557829,1.042
0.0709261790989654,1.043
0.07121537266377108,1.044
0.07149864560583015,1.045
0.07177549348689989,1.046
0.0720453658296116,1.047
0.07230766950515528,1.048
0.0725617882237264,1.049
0.0728071253515247,1.05
0.07304315725901524,1.051
0.07326947935102601,1.052
0.07348583265843568,1.053
0.07369210447619816,1.054
0.07388830159702324,1.055
0.07407449987092747,1.056
0.07425078693037361,1.057
0.07441723348562454,1.058
0.07457391392966524,1.059
0.07472095334143844,1.06
0.07485856712465679,1.061
0.07498708081862952,1.062
0.07510692995264527,1.063
0.07521864197741018,1.064
0.07532280387154526,1.065
0.07542002045992534,1.066
0.07551087411696,1.067
0.0755959031171344,1.068
0.07567560379573,1.069
0.0757504381600694,1.07
0.07582083037653274,1.071
0.07588715998168491,1.072
0.07594976845681499,1.073
0.07600897827399967,1.074
0.07606510681640878,1.075
0.07611846109523979,1.076
0.07616931773067241,1.077
0.0762179115350642,1.078
0.0762644487500713,1.079
0.07630913219001817,1.08
0.07635217796806659,1.081
0.07639381838899266,1.082
0.07643429497391122,1.083
0.07647384677961051,1.084
0.07651269835604843,1.085
0.07655104991559798,1.086
0.07658907048893733,1.087
0.07662689359354978,1.088
0.0766646144280374,1.089
0.07670228755590164,1.09
0.07673992393519156,1.091
0.07677748575087802,1.092
0.07681487923295202,1.093
0.07685195153610144,1.094
0.076888500208591,1.095
0.07692429655311601,1.096
0.07695911654876919,1.097
0.07699277203521844,1.098
0.07702513563936984,1.099
0.0770561526558281,1.1
0.0770858339197284,1.101
0.07711422684569563,1.102
0.07714137516143645,1.103
0.0771672991009549,1.104
0.07719201862511137,1.105
0.07721560130687424,1.106
0.07723820135618426,1.107
0.07726007330352896,1.108
0.07728155762210676,1.109
0.07730304184695287,1.11
0.07732491241991263,1.111
0.07734752672407422,1.112
0.07737122224338024,1.113
0.07739634456501382,1.114
0.07742326669114305,1.115
0.0774523897385998,1.116
0.07748412655824373,1.117
0.07751887489024903,1.118
0.0775569952685351,1.119
0.07759880951558831,1.12
0.07764461783328122,1.121
0.07769471563696999,1.122
0.07774939416448981,1.123
0.07780892464878311,1.124
0.07787354435416775,1.125
0.07794346619590445,1.126
0.07801891099187554,1.127
0.07810014070076512,1.128
0.07818747441872834,1.129
0.0782812812065718,1.13
0.07838195133550503,1.131
0.07848985846119105,1.132
0.07860533965201574,1.133
0.07872870897905263,1.134
0.07886028732555955,1.135
0.07900042342589812,1.136
0.07914949865395923,1.137
0.07930791890974352,1.138
0.07947609874290425,1.139
0.07965444224128704,1.14
0.0798433230956584,1.141
0.08004306616182041,1.142
0.08025393654732482,1.143
0.08047614138477865,1.144
0.08070983970895992,1.145
0.08095514944642872,1.146
0.08121214428602379,1.147
0.08148084315825267,1.148
0.08176120513404043,1.149
0.08205313826188981,1.15
0.0823565141897798,1.151
0.08267117531314924,1.152
0.08299692923612283,1.153
0.08333353473670034,1.154
0.0836806925497383,1.155
0.08403805240969563,1.156
0.08440523248116553,1.157
0.08478183940161939,1.158
0.08516748223757252,1.159
0.08556177870278212,1.16
0.0859643533251116,1.161
0.08637482762746816,1.162
0.08679280239695955,1.163
0.08721783607499418,1.164
0.08764943336387998,1.165
0.08808705823955619,1.166
0.08853016814077248,1.167
0.08897825349297944,1.168
0.08943086890381777,1.169
0.08988764661861935,1.17
0.09034828514770227,1.171
0.09081251325362026,1.172
0.0912800493583986,1.173
0.09175059227319422,1.174
0.09222385537232325,1.175
0.09269961475125278,1.176
0.09317773806401064,1.177
0.09365818416823252,1.178
0.0941409778244018,1.179
0.09462616772328307,1.18
0.09511378050316863,1.181
0.09560378865757505,1.182
0.09609610246113037,1.183
0.09659057427189167,1.184
0.0970869971666869,1.185
0.09758509929421245,1.186
0.09808454899412675,1.187
0.0985849711847815,1.188
0.0990859549619259,1.189
0.09958704371675106,1.19
0.10008773634853797,1.191
0.10058753021539306,1.192
0.10108599247224438,1.193
0.10158282347098511,1.194
0.10207789021353866,1.195
0.10257122317131441,1.196
0.1030629783975934,1.197
0.10355337368679074,1.198
0.10404262003731266,1.199
0.1045308857368991,1.2
0.10501831281931302,1.201
0.1055050611133246,1.202
0.10599134587845903,1.203
0.10647745808744755,1.204
0.10696376909309074,1.205
0.10745072298667022,1.206
0.10793882037631149,1.207
0.10842859663513407,1.208
0.10892059629205778,1.209
0.10941534399854101,1.21
0.10991331420668758,1.211
0.11041490857010894,1.212
0.1109204524600663,1.213
0.1114302092406099,1.214
0.11194439692018528,1.215
0.11246319330989353,1.216
0.11298672508761916,1.217
0.11351504715458144,1.218
0.1140481303390786,1.219
0.11458586738577763,1.22
0.11512808175058076,1.221
0.11567452404708962,1.222
0.11622487095597768,1.223
0.11677874922443242,1.224
0.1173357785264211,1.225
0.11789560637037508,1.226
0.11845791563599486,1.227
0.11902239951745891,1.228
0.11958871762323356,1.229
0.1201564702647448,1.23
0.12072521500473661,1.231
0.12129450207200776,1.232
0.1218638897826047,1.233
0.122432925981139,1.234
0.12300111219847691,1.235
0.12356788832794974,1.236
0.12413265755151134,1.237
0.12469482692894153,1.238
0.1252538297914945,1.239
0.12580911888434132,1.24
0.12636013448240457,1.241
0.12690626202249744,1.242
0.12744680552301543,1.243
0.1279809926032713,1.244
0.12850799735920498,1.245
0.12902695997730773,1.246
0.12953699898424173,1.247
0.13003722369211154,1.248
0.13052675463044955,1.249
0.1310047545600283,1.25
0.13147046459309833,1.251
0.1319232320182536,1.252
0.13236251235461624,1.253
0.13278783110116069,1.254
0.13319871828336013,1.255
0.1335946764629297,1.256
0.1339752299827553,1.257
0.13434002241587653,1.258
0.13468889669957543,1.259
0.13502192637071284,1.26
0.13533939541959467,1.261
0.13564173643579547,1.262
0.13592944406641042,1.263
0.13620298979962545,1.264
0.1364627737649513,1.265
0.13670913042719296,1.266
0.13694236525222547,1.267
0.13716279187001099,1.268
0.13737075971132795,1.269
0.1375666713063327,1.27
0.13775098627701482,1.271
0.1379242079008953,1.272
0.13808685002156382,1.273
0.1382393908054245,1.274
0.13838223657698892,1.275
0.13851572117433,1.276
0.13864013766008498,1.277
0.13875577340919826,1.278
0.13886292503257827,1.279
0.1389618862669156,1.28
0.13905291387763413,1.281
0.13913619179787057,1.282
0.13921182170835691,1.283
0.13927984607493843,1.284
0.1393402795973828,1.285
0.13939312564740514,1.286
0.13943837247364757,1.287
0.13947597291418387,1.288
0.1395058142384517,1.289
0.1395276921848276,1.29
0.13954130875539,1.291
0.13954630011976157,1.292
0.13954227957173806,1.293
0.13952887625930807,1.294
0.13950575784894367,1.295
0.13947262930151508,1.296
0.13942920287314875,1.297
0.13937515020812488,1.298
0.13931007371928017,1.299
0.1392335246127572,1.3
0.13914504381689785,1.301
0.1390441809108932,1.302
0.13893047339647552,1.303
0.13880340757048537,1.304
0.13866240369350033,1.305
0.13850683948460313,1.306
0.13833607464552014,1.307
0.13814944250745081,1.308
0.13794623185053173,1.309
0.13772571158837776,1.31
0.1374872089442872,1.311
0.13723019565046557,1.312
0.13695433324675604,1.313
0.13665945713688366,1.314
0.13634550522536426,1.315
0.1360124333357293,1.316
0.135660188582756,1.317
0.13528876850589128,1.318
0.13489831366941607,1.319
0.1344891706847381,1.32
0.13406190416592137,1.321
0.1336172602190354,1.322
0.13315609099267137,1.323
0.13267926511903744,1.324
0.1321876120609279,1.325
0.13168193284478313,1.326
0.13116305183183266,1.327
0.13063186050000708,1.328
0.13008932939120102,1.329
0.12953648698841633,1.33
0.1289743722996538,1.331
0.12840398152970808,1.332
0.12782624541099818,1.333
0.12724205513363682,1.334
0.12665231103093985,1.335
0.1260579587736921,1.336
0.12545999886541628,1.337
0.12485946773484531,1.338
0.12425739631666127,1.339
0.12365476993731013,1.34
0.12305252412838397,1.341
0.12245158476482272,1.342
0.12185292277209253,1.343
0.1212575909152326,1.344
0.12066672983616412,1.345
0.12008154237669282,1.346
0.1195032437764257,1.347
0.11893301224479386,1.348
0.11837197327053699,1.349
0.11782122345474669,1.35
0.11728186230607889,1.351
0.116755001999881,1.352
0.11624174965603767,1.353
0.11574317316928685,1.354
0.11526027217404365,1.355
0.11479397223595697,1.356
0.11434513646569577,1.357
0.11391457303437352,1.358
0.11350302701402933,1.359
0.11311116238755671,1.36
0.11273954744940244,1.361
0.1123886494380268,1.362
0.11205883360682299,1.363
0.11175036371179661,1.364
0.11146340413061541,1.365
0.11119802107424351,1.366
0.11095418517305873,1.367
0.1107317823379877,1.368
0.11053063137107248,1.369
0.11035049938717041,1.37
0.11019110879634039,1.371
0.11005213443193113,1.372
0.10993319214163587,1.373
0.10983382275768293,1.374
0.10975347899591185,1.375
0.10969152212400055,1.376
0.1096472262389278,1.377
0.10961978047779072,1.378
0.10960828520207506,1.379
0.10961175162812309,1.38
0.1096291151038406,1.381
0.10965925708352761,1.382
0.10970102144687527,1.383
0.10975321434919375,1.384
0.10981458886004501,1.385
0.10988383549596537,1.386
0.10995960348286446,1.387
0.11004055127883786,1.388
0.11012540270977357,1.389
0.11021298763420175,1.39
0.11030225599506524,1.391
0.11039226113019761,1.392
0.11048211411034473,1.393
0.11057092473205511,1.394
0.11065776739201462,1.395
0.11074170234876671,1.396
0.11082183696528829,1.397
0.110897388255978,1.398
0.1109677234203534,1.399
0.11103237036509381,1.4
0.11109099510309323,1.401
0.1111433462730793,1.402
0.11118918512655292,1.403
0.11122825172339543,1.404
0.11126030384866618,1.405
0.11128519835595785,1.406
0.11130295678674924,1.407
0.1113137831381075,1.408
0.1113180263610436,1.409
0.11131610441345385,1.41
0.11130844239213811,1.411
0.11129547594065697,1.412
0.1112777098748473,1.413
0.11125577757933969,1.414
0.11123046542781079,1.415
0.11120269958597871,1.416
0.11117350577772835,1.417
0.1111439541474919,1.418
0.11111510215348305,1.419
0.11108795410268839,1.42
0.11106345511331003,1.421
0.1110425169439904,1.422
0.11102605421206689,1.423
0.11101501355735495,1.424
0.11101039064003983,1.425
0.11101323493498416,1.426
0.11102464296788522,1.427
0.11104574050274182,1.428
0.11107765409705816,1.429
0.11112147560634617,1.43
0.11117823191380302,1.431
0.11124887489242725,1.432
0.11133429060394988,1.433
0.11143531006023287,1.434
0.11155270867635622,1.435
0.11168719546649707,1.436
0.11183939881333274,1.437
0.11200985454307959,1.438
0.11219899862875723,1.439
0.11240716349472478,1.44
0.11263457585040315,1.441
0.11288135534048438,1.442
0.11314751425417209,1.443
0.11343295761587567,1.444
0.11373748300043018,1.445
0.11406078121540984,1.446
0.11440243887063979,1.447
0.11476194159092673,1.448
0.1151386759305432,1.449
0.11553192911967121,1.45
0.11594088663987065,1.451
0.11636462832075811,1.452
0.11680212451134916,1.453
0.11725223427625985,1.454
0.11771370728219667,1.455
0.11818519034428307,1.456
0.11866523865477192,1.457
0.11915233091037808,1.458
0.11964488698084172,1.459
0.12014128606907544,1.46
0.12063988255723321,1.461
0.12113901613935807,1.462
0.12163701239818421,1.463
0.12213216982011861,1.464
0.12262273529341222,1.465
0.12310688695891167,1.466
0.12358274893193888,1.467
0.12404843805675823,1.468
0.12450211766696401,1.469
0.12494203415961506,1.47
0.12536652411685614,1.471
0.12577398801054246,1.472
0.12616283812716014,1.473
0.1265314505187936,1.474
0.1268781593981838,1.475
0.12720129859478677,1.476
0.12749925435954412,1.477
0.12777049471404534,1.478
0.12801356207194203,1.479
0.12822703089301093,1.48
0.12840945724592626,1.481
0.12855937316669025,1.482
0.12867535093719829,1.483
0.12875609947060493,1.484
0.1288005378868115,1.485
0.1288078161747096,1.486
0.12877727211232012,1.487
0.12870834120754207,1.488
0.12860048674707236,1.489
0.12845322059896,1.49
0.12826620406451839,1.491
0.12803935430282642,1.492
0.12777290183164958,1.493
0.12746738671987784,1.494
0.12712360086188554,1.495
0.12674249076694813,1.496
0.12632504998035649,1.497
0.1258722551360372,1.498
0.12538508366254703,1.499
0.12486458643812735,1.5
0.12431195858715909,1.501
0.12372857575808034,1.502
0.1231159875299089,1.503
0.12247587062435053,1.504
0.12180995408046832,1.505
0.12111994205074685,1.506
0.12040746921354427,1.507
0.11967409999216122,1.508
0.11892134424600771,1.509
0.11815066376226212,1.51
0.11736347046787284,1.511
0.11656112597742067,1.512
0.1157449464169232,1.513
0.11491620997354053,1.514
0.11407616041112086,1.515
0.11322599916298551,1.516
0.11236686703484956,1.517
0.111499833970583,1.518
0.11062591494253553,1.519
0.10974610209455495,1.52
0.10886138568649564,1.521
0.10797274671617443,1.522
0.10708112805928652,1.523
0.10618741458324456,1.524
0.10529244436337457,1.525
0.10439703474421815,1.526
0.10350199315272027,1.527
0.10260810284977337,1.528
0.1017160982719863,1.529
0.10082665681187432,1.53
0.09994041694262998,1.531
0.09905800220859898,1.532
0.0981800273872258,1.533
0.09730708240458744,1.534
0.09643970849576673,1.535
0.09557839068258789,1.536
0.0947235762063304,1.537
0.0938757027915541,1.538
0.0930352172187972,1.539
0.09220257776400441,1.54
0.09137824165008289,1.541
0.0905626411677952,1.542
0.08975615777941931,1.543
0.08895911022334584,1.544
0.08817176440160983,1.545
0.08739435385746351,1.546
0.08662709623843519,1.547
0.08587020123023398,1.548
0.08512387120033761,1.549
0.08438829682899535,1.55
0.08366365001603288,1.551
0.08295007530880233,1.552
0.0822476796014811,1.553
0.08155651996449237,1.554
0.08087659396782608,1.555
0.08020784099514623,1.556
0.07955015706297142,1.557
0.07890341531805109,1.558
0.07826748331335881,1.559
0.07764223357611988,1.56
0.07702754730020231,1.561
0.07642331198731814,1.562
0.07582941403659192,1.563
0.07524572692663035,1.564
0.074672095383299,1.565
0.07410831858216406,1.566
0.07355414102729924,1.567
0.07300925794540124,1.568
0.07247333132697226,1.569
0.07194600855897888,1.57
0.0714269405784254,1.571
0.07091579978998881,1.572
0.07041229692316324,1.573
0.06991619329866017,1.574
0.06942730275644544,1.575
0.06894547800078223,1.576
0.06847058220055526,1.577
0.06800245961312544,1.578
0.06754092533951814,1.579
0.0670857772013353,1.58
0.0666368112948389,1.581
0.06619382580009359,1.582
0.06575661299085783,1.583
0.06532494622255147,1.584
0.06489856842972229,1.585
0.06447718632387592,1.586
0.06406047117473228,1.587
0.06364806428009959,1.588
0.06323958426009758,1.589
0.06283463428915037,1.59
0.06243280908223478,1.591
0.06203370232093497,1.592
0.061636914697441224,1.593
0.061242061591502306,1.594
0.060848778522931704,1.595
0.060456722149219946,1.596
0.060065564387011966,1.597
0.059674977303493845,1.598
0.05928461329413143,1.599
0.058894099245032534,1.6
0.05850305984317767,1.601
0.05811116020546223,1.602
0.057718146973238044,1.603
0.05732387566298508,1.604
0.05692831944225155,1.605
0.056531558085404145,1.606
0.05613374938595336,1.607
0.05573508882781616,1.608
0.055335771100159296,1.609
0.05493597438617271,1.61
0.0545358750795065,1.611
0.05413567555084448,1.612
0.0537356244130558,1.613
0.05333602234826678,1.614
0.0529372141793214,1.615
0.05253957001086188,1.616
0.052143460245732375,1.617
0.05174923252515335,1.618
0.05135720073875975,1.619
0.050967649060972356,1.62
0.05058084311101154,1.621
0.050197040316141535,1.622
0.049816497433523024,1.623
0.04943947422835626,1.624
0.04906623106652359,1.625
0.048697018865939606,1.626
0.048332065054479664,1.627
0.047971566605593007,1.628
0.04761569722013509,1.629
0.04726462165354851,1.63
0.04691850639280574,1.631
0.04657752270275415,1.632
0.04624184249085719,1.633
0.04591162875044193,1.634
0.04558702337450691,1.635
0.045268136363249355,1.636
0.04495504039618451,1.637
0.04464777038187044,1.638
0.044346323868138415,1.639
0.044050662149557135,1.64
0.043760715997478064,1.641
0.04347639596706869,1.642
0.043197601967957265,1.643
0.042924226304982674,1.644
0.04265614855638191,1.645
0.042393229814768674,1.646
0.04213531880394746,1.647
0.04188227198783571,1.648
0.041633975823784836,1.649
0.04139035869924032,1.65
0.041151388091944345,1.651
0.040917055133071395,1.652
0.0406873526893074,1.653
0.0404622553057121,1.654
0.04024170845359253,1.655
0.04002562783862331,1.656
0.03981390302909089,1.657
0.039606401685558026,1.658
0.03940297564953435,1.659
0.03920347046734512,1.66
0.0390077374940262,1.661
0.03881564565829023,1.662
0.03862708916671526,1.663
0.038441988151105305,1.664
0.03826028107311189,1.665
0.03808190999146111,1.666
0.037906804319607044,1.667
0.03773487368113634,1.668
0.037566015230792324,1.669
0.03740012815477291,1.67
0.037237125302487024,1.671
0.03707693793642095,1.672
0.03691951318895747,1.673
0.03676480508406925,1.674
0.036612761325245845,1.675
0.036463310042264885,1.676
0.03631635230716171,1.677
0.0361717625269505,1.678
0.03602939235285988,1.679
0.03588907361263156,1.68
0.03575061982293268,1.681
0.0356138271568022,1.682
0.035478474905121016,1.683
0.03534432460681191,1.684
0.0352111170337616,1.685
0.035078568913985225,1.686
0.03494637485158041,1.687
0.03481421771555775,1.688
0.03468178400038252,1.689
0.034548778036261704,1.69
0.03441493078317291,1.691
0.034280000472665884,1.692
0.03414376325321571,1.693
0.03400599736263426,1.694
0.033866475115818646,1.695
0.03372497603498308,1.696
0.033581316186171405,1.697
0.033435377459746556,1.698
0.033287124893769,1.699
0.033136606768624295,1.7
0.03298393694847665,1.701
0.032829265074751895,1.702
0.032672748750639316,1.703
0.03251454426621513,1.704
0.032354818295218135,1.705
0.03219376687483494,1.706
0.032031629438593716,1.707
0.03186869485094043,1.708
0.03170529936676485,1.709
0.031541816224336765,1.71
0.03137863762984039,1.711
0.031216154980433224,1.712
0.031054749391845476,1.713
0.030894797991005373,1.714
0.030736685900665126,1.715
0.030580811548849923,1.716
0.030427582220883605,1.717
0.030277402942458644,1.718
0.030130664756453616,1.719
0.02998773883741005,1.72
0.02984897710693886,1.721
0.02971471383803875,1.722
0.029585264124538258,1.723
0.02946092020731231,1.724
0.029341948790077614,1.725
0.029228590623958287,1.726
0.02912106080702777,1.727
0.029019548724312654,1.728
0.028924218946366247,1.729
0.028835214131416258,1.73
0.028752658870547416,1.731
0.02867666270229369,1.732
0.028607321069458687,1.733
0.028544713486455667,1.734
0.02848889982973444,1.735
0.028439918653045716,1.736
0.028397790690020058,1.737
0.028362525581075538,1.738
0.028334127657268202,1.739
0.028312598549773162,1.74
0.028297936007616247,1.741
0.028290128988927715,1.742
0.02828915088685271,1.743
0.02829495547660925,1.744
0.02830747888795737,1.745
0.02832664533348266,1.746
0.028352372062835852,1.747
0.02838457127341702,1.748
0.02842314869206084,1.749
0.028467999423533806,1.75
0.028519002382945007,1.751
0.02857601498264647,1.752
0.028638869448558504,1.753
0.02870737127921656,1.754
0.02878129936073248,1.755
0.02886040661863158,1.756
0.02894442017817419,1.757
0.029033041006772703,1.758
0.029125944198610358,1.759
0.029222780800626354,1.76
0.029323180710677754,1.761
0.02942675582160371,1.762
0.02953310331112794,1.763
0.029641809480380716,1.764
0.029752454477094913,1.765
0.029864617720324328,1.766
0.0299778830593141,1.767
0.030091842007659967,1.768
0.03020609311777762,1.769
0.03032023588450076,1.77
0.030433861033326945,1.771
0.030546545835710596,1.772
0.030657862290590688,1.773
0.030767394880688824,1.774
0.030874758522919772,1.775
0.0309796104363665,1.776
0.03108165286696278,1.777
0.031180625088304527,1.778
0.03127628593694096,1.779
0.031368395046321114,1.78
0.03145670649251293,1.781
0.031540979654617336,1.782
0.03162099632539454,1.783
0.031696571339459474,1.784
0.03176755222110695,1.785
0.03183380791246291,1.786
0.03189521132412094,1.787
0.03195162869980233,1.788
0.032002926239587975,1.789
0.03204898775893941,1.79
0.032089728314208976,1.791
0.032125094665727064,1.792
0.03215505231427323,1.793
0.03217956900396379,1.794
0.032198611227901866,1.795
0.03221215923577395,1.796
0.032220227779534615,1.797
0.032222878316426264,1.798
0.032220218650748554,1.799
0.03221239227281298,1.8
0.03219956147776402,1.801
0.03218188894345676,1.802
0.03215952337917455,1.803
0.03213259516397547,1.804
0.03210122327225997,1.805
0.032065528413831486,1.806
0.032025646644169535,1.807
0.03198174027908923,1.808
0.03193400385522629,1.809
0.03188266340803885,1.81
0.031827968996605185,1.811
0.03177018255405231,1.812
0.031709564720654435,1.813
0.03164636445103619,1.814
0.031580813727209917,1.815
0.03151312725566037,1.816
0.0314435046080434,1.817
0.03137213092212577,1.818
0.031299174408358436,1.819
0.031224785305359586,1.82
0.03114910342289645,1.821
0.031072274434827546,1.822
0.030994468224541705,1.823
0.030915892950190423,1.824
0.030836801389275473,1.825
0.030757488137350034,1.826
0.030678278059141622,1.827
0.0305995084264534,1.828
0.030521510881576116,1.829
0.030444602512227026,1.83
0.030369089172967545,1.831
0.030295273228453972,1.832
0.030223457396772294,1.833
0.030153943340624934,1.834
0.03008702708415414,1.835
0.030022993526732183,1.836
0.029962112001528145,1.837
0.029904634181544106,1.838
0.02985079476439371,1.839
0.029800814339398365,1.84
0.029754902857674976,1.841
0.029713261566091304,1.842
0.029676081482826164,1.843
0.029643538634803623,1.844
0.029615790418497902,1.845
0.0295929780652968,1.846
0.02957523429393102,1.847
0.02956269040163192,1.848
0.029555478340004444,1.849
0.029553726652158007,1.85
0.029557552431658144,1.851
0.029567055027900434,1.852
0.02958231627560207,1.853
0.029603405383919056,1.854
0.02963038286989929,1.855
0.029663300452069455,1.856
0.029702197135443694,1.857
0.029747093381409573,1.858
0.029797986084059664,1.859
0.029854845988439883,1.86
0.029917617065083654,1.861
0.029986217955130203,1.862
0.03006054697291994,1.863
0.030140490225919154,1.864
0.030225929863111383,1.865
0.030316748939985916,1.866
0.030412829899671198,1.867
0.030514047322961563,1.868
0.03062026298516001,1.869
0.0307313317254828,1.87
0.0308471158874964,1.871
0.03096749884231243,1.872
0.031092391352865102,1.873
0.031221729688023028,1.874
0.03135546695088165,1.875
0.0314935602077761,1.876
0.03163595689363294,1.877
0.031782585099053524,1.878
0.03193335109500738,1.879
0.03208814269686048,1.88
0.032246834193207355,1.881
0.03240929042819254,1.882
0.03257537006900902,1.883
0.03274492852422724,1.884
0.03291782047618283,1.885
0.03309390137524494,1.886
0.033273026777555344,1.887
0.033455048412285776,1.888
0.03363980681767129,1.889
0.03382712345966596,1.89
0.03401679830796577,1.891
0.034208615449782376,1.892
0.03440235195910104,1.893
0.03459778374175547,1.894
0.034794685586030966,1.895
0.0349928250362522,1.896
0.03519195292505435,1.897
0.03539179839524533,1.898
0.035592073844141134,1.899
0.03579248519311996,1.9
0.03599273931824297,1.901
0.036192544980583975,1.902
0.03639160723157518,1.903
0.03658961760190708,1.904
0.036786245660579364,1.905
0.03698113755786512,1.906
0.03717392090478807,1.907
0.03736421009619856,1.908
0.03755160806223583,1.909
0.03773570470945473,1.91
0.037916074301789206,1.911
0.0380922742956644,1.912
0.03826384760601558,1.913
0.03843032910287847,1.914
0.03859125550684612,1.915
0.038746176003003376,1.916
0.03889465928317744,1.917
0.03903629205678084,1.918
0.03917066775984068,1.919
0.03929737576458406,1.92
0.039416008707516166,1.921
0.039526192125425144,1.922
0.03962762081540828,1.923
0.03972008361808177,1.924
0.03980346702606604,1.925
0.03987773538885579,1.926
0.039942895122768926,1.927
0.03999896474589519,1.928
0.04004597230549501,1.929
0.04008397646144345,1.93
0.04011308816752494,1.931
0.04013347755791283,1.932
0.04014536521877085,1.933
0.04014900276408089,1.934
0.040144648741738446,1.935
0.04013254775279945,1.936
0.04011292121012089,1.937
0.040085970702192206,1.938
0.04005188530097526,1.939
0.04001084482494405,1.94
0.03996301755890614,1.941
0.03990855389923227,1.942
0.03984757842273505,1.943
0.03978018415160639,1.944
0.03970643115957387,1.945
0.039626347122592304,1.946
0.03953992716753728,1.947
0.039447135890167316,1.948
0.03934791574269729,1.949
0.03924220016976632,1.95
0.03912992574595225,1.951
0.03901103816395165,1.952
0.03888548878609337,1.953
0.03875322322347771,1.954
0.038614171930792474,1.955
0.0384682538065548,1.956
0.038315391456179654,1.957
0.03815552721033806,1.958
0.037988632323612936,1.959
0.03781470836887809,1.96
0.037633782810785894,1.961
0.03744590149229513,1.962
0.0372511204495882,1.963
0.03704949830690024,1.964
0.036841089009150514,1.965
0.036625933686034694,1.966
0.036404052909333,1.967
0.03617544620198656,1.968
0.0359401045863567,1.969
0.03569803281990388,1.97
0.03544927346415375,1.971
0.03519392697326705,1.972
0.03493216346790855,1.973
0.03466422260780516,1.974
0.03439039994503355,1.975
0.03411102211571336,1.976
0.03382642139542698,1.977
0.03353692604635294,1.978
0.033242871753998426,1.979
0.03294462103726147,1.98
0.03264257631361738,1.981
0.032337182610301725,1.982
0.03202892114896074,1.983
0.03171829611293868,1.984
0.03140581761251415,1.985
0.031091985429114132,1.986
0.030777280000206377,1.987
0.030462163189387232,1.988
0.030147083468004245,1.989
0.02983247909003077,1.99
0.02951877761950747,1.991
0.029206392810063465,1.992
0.02889572011082954,1.993
0.028587132306791965,1.994
0.028280977057171693,1.995
0.027977576956035546,1.996
0.027677230709200876,1.997
0.027380213792823575,1.998
0.02708677823878358,1.999
0.026797151909601153,2.0
0.026511537699821182,2.001
0.026230113044422576,2.002
0.0259530298554118,2.003
0.025680414714390115,2.004
0.02541236914243044,2.005
0.02514896999359977,2.006
0.024890270472492183,2.007
0.02463630265554024,2.008
0.024387082043513884,2.009
0.024142613772656942,2.01
0.02390289915959532,2.011
0.02366794042158134,2.012
0.02343774111914114,2.013
0.02321230165746004,2.014
0.022991614268976078,2.015
0.022775664831638145,2.016
0.022564442832776883,2.017
0.022357952542250696,2.018
0.02215621821036039,2.019
0.02195928073224357,2.02
0.021767187600124843,2.021
0.02157998298994839,2.022
0.02139770606616957,2.023
0.02122039767996829,2.024
0.021048107502337102,2.025
0.02088089520986905,2.026
0.0207188252680428,2.027
0.020561958346414024,2.028
0.02041034392527573,2.029
0.02026401750157596,2.03
0.02012300159826028,2.031
0.019987307295694035,2.032
0.01985693467079551,2.033
0.01973187266860142,2.034
0.019612099166148513,2.035
0.019497581400073988,2.036
0.019388276439830772,2.037
0.019284131164074375,2.038
0.019185081272238436,2.039
0.01909104932652644,2.04
0.019001942808683836,2.041
0.01891765375603048,2.042
0.018838060324151522,2.043
0.018763028900382624,2.044
0.018692415406045926,2.045
0.018626065414016457,2.046
0.01856381314119351,2.047
0.018505479632769925,2.048
0.01845087128236789,2.049
0.018399780288536415,2.05
0.018351987322767237,2.051
0.018307264869234067,2.052
0.018265379438450836,2.053
0.018226091530747016,2.054
0.01818915337536597,2.055
0.018154307107846424,2.056
0.018121287689741774,2.057
0.018089831734907295,2.058
0.018059688574080704,2.059
0.018030628523541373,2.06
0.018002444693362235,2.061
0.017974946607861832,2.062
0.01794794874113876,2.063
0.017921263980175524,2.064
0.017894709279836215,2.065
0.01786811828673383,2.066
0.01784135124484589,2.067
0.01781429810207206,2.068
0.017786875091796946,2.069
0.01775901641041302,2.07
0.017730663200606723,2.071
0.017701752949397374,2.072
0.01767221362179587,2.073
0.01764196472111413,2.074
0.01761092266246797,2.075
0.017579006826376184,2.076
0.017546145022820987,2.077
0.017512278017307637,2.078
0.01747736220600762,2.079
0.017441369153840508,2.08
0.01740428100578874,2.081
0.017366082525119602,2.082
0.017326754006231446,2.083
0.017286270367743706,2.084
0.017244606591734418,2.085
0.017201744414876742,2.086
0.017157676124773074,2.087
0.017112404675352792,2.088
0.017065940782087594,2.089
0.01701829796301601,2.09
0.016969486624382562,2.091
0.016919508479548487,2.092
0.01686835296249031,2.093
0.016815996768302678,2.094
0.016762405915632,2.095
0.016707538867454484,2.096
0.016651350003521696,2.097
0.01659379341843854,2.098
0.016534826861947852,2.099
0.016474415133953303,2.1
0.016412531764266908,2.101
0.016349157620727764,2.102
0.016284275898185586,2.103
0.01621786603618557,2.104
0.016149902123857664,2.105
0.01608035801556395,2.106
0.01600921454608056,2.107
0.01593646346359891,2.108
0.01586210685189149,2.109
0.015786153511689806,2.11
0.01570861441451428,2.111
0.015629499022764032,2.112
0.01554881324261628,2.113
0.015466558508965205,2.114
0.015382730534047092,2.115
0.015297317130804126,2.116
0.01521029779031649,2.117
0.015121648580056244,2.118
0.01503135179541966,2.119
0.014939406349771714,2.12
0.014845835269724156,2.121
0.014750688088749145,2.122
0.014654037181911923,2.123
0.014555968557624598,2.124
0.014456570741000438,2.125
0.014355929088047241,2.126
0.014254129525283129,2.127
0.014151266946403762,2.128
0.014047451730038938,2.129
0.013942812359023334,2.13
0.013837494564789162,2.131
0.01373165775760184,2.132
0.013625469723315213,2.133
0.013519100630178825,2.134
0.013412717250238298,2.135
0.013306478319369113,2.136
0.01320053217736923,2.137
0.01309501700223329,2.138
0.012990062389369426,2.139
0.012885790932038748,2.14
0.01278231953866896,2.141
0.012679760776077539,2.142
0.012578224518080706,2.143
0.012477820003222524,2.144
0.012378658089612523,2.145
0.012280853122235234,2.146
0.012184523566486697,2.147
0.012089790603956619,2.148
0.011996774610313959,2.149
0.011905591312847033,2.15
0.011816350730261127,2.151
0.011729159645718773,2.152
0.01164412468749058,2.153
0.011561353090259748,2.154
0.011480950713973368,2.155
0.01140301859758858,2.156
0.01132764993874151,2.157
0.011254928714203862,2.158
0.011184929420845499,2.159
0.011117716866824136,2.16
0.011053346122360032,2.161
0.010991863159507582,2.162
0.010933305746463371,2.163
0.010877703773898491,2.164
0.010825078808357879,2.165
0.010775443417991096,2.166
0.010728801053659347,2.167
0.010685146549203517,2.168
0.010644466442133835,2.169
0.010606738655926075,2.17
0.010571932209845473,2.171
0.010540007738004209,2.172
0.010510918438648056,2.173
0.010484610359236996,2.174
0.010461021816393067,2.175
0.010440083466496313,2.176
0.010421720565487094,2.177
0.010405856833044123,2.178
0.010392418047880466,2.179
0.010381333933584772,2.18
0.010372537546335435,2.181
0.010365962250375461,2.182
0.010361538286097146,2.183
0.010359192303443066,2.184
0.010358850948506464,2.185
0.010360445737081036,2.186
0.0103639159159932,2.187
0.010369207952679987,2.188
0.010376271757909993,2.189
0.010385055511320148,2.19
0.010395502880365646,2.191
0.010407554421118103,2.192
0.010421150120341375,2.193
0.010436229317789734,2.194
0.01045272845952604,2.195
0.010470580854333032,2.196
0.010489720835268598,2.197
0.010510089432518804,2.198
0.01053163718181156,2.199
0.010554322336910742,2.2
0.010578105742025643,2.201
0.010602946432313165,2.202
0.010628801953704314,2.203
0.01065563283237199,2.204
0.010683407221470567,2.205
0.01071210298343838,2.206
0.010741706881115502,2.207
0.010772211652905617,2.208
0.010803612052579254,2.209
0.010835900878991434,2.21
0.010869065689392506,2.211
0.010903086447686077,2.212
0.010937934040553494,2.213
0.01097356960576368,2.214
0.011009944750488748,2.215
0.011047002607105791,2.216
0.01108467941935436,2.217
0.011122906279749776,2.218
0.011161610673221665,2.219
0.01120071750431553,2.22
0.01124014932437622,2.221
0.011279825541108707,2.222
0.011319660583256487,2.223
0.011359561806705123,2.224
0.011399428923828487,2.225
0.011439155787291875,2.226
0.01147863292393088,2.227
0.011517748516885482,2.228
0.011556387112093594,2.229
0.011594427874159789,2.23
0.01163174564889351,2.231
0.0116682158441204,2.232
0.011703720513323591,2.233
0.011738152256946483,2.234
0.011771413875915486,2.235
0.011803413759608982,2.236
0.011834060815903739,2.237
0.011863264905582807,2.238
0.011890944114688702,2.239
0.011917033909225298,2.24
0.011941493009604735,2.241
0.011964304029895333,2.242
0.011985468767207954,2.243
0.012004999493582117,2.244
0.012022910648766694,2.245
0.012039216903373347,2.246
0.012053938778080526,2.247
0.0120671106026148,2.248
0.012078785666940858,2.249
0.012089037174387198,2.25
0.012097955567758431,2.251
0.012105643290330155,2.252
0.012112208200253069,2.253
0.012117756974751918,2.254
0.012122390357681402,2.255
0.012126201979231728,2.256
0.012129280453543065,2.257
0.012131712554608556,2.258
0.012133585701327066,2.259
0.012134989291967954,2.26
0.012136014976464988,2.261
0.012136756057884474,2.262
0.012137306239451966,2.263
0.012137757882374284,2.264
0.012138199867528917,2.265
0.0121387151198967,2.266
0.012139378204023181,2.267
0.012140254098197611,2.268
0.012141398893748868,2.269
0.012142861660121573,2.27
0.01214468619081177,2.271
0.012146912028245329,2.272
0.012149574676074098,2.273
0.012152705078622586,2.274
0.012156328578549327,2.275
0.012160463632395993,2.276
0.012165120519042191,2.277
0.012170300132341416,2.278
0.012175993037042839,2.279
0.012182179455354207,2.28
0.012188830884540524,2.281
0.012195913267044747,2.282
0.01220339101953482,2.283
0.012211230978034322,2.284
0.012219404992996816,2.285
0.012227889824616263,2.286
0.01223666382961754,2.287
0.012245702449932835,2.288
0.012254976759507704,2.289
0.012264456779847955,2.29
0.012274116295238193,2.291
0.012283935491538125,2.292
0.012293900772603396,2.293
0.012304002775864128,2.294
0.012314233653934904,2.295
0.012324584181987997,2.296
0.012335040700060392,2.297
0.012345582428979688,2.298
0.012356181167600892,2.299
0.012366804761997538,2.3
0.012377422797643147,2.301
0.012388011673755524,2.302
0.012398557182168767,2.303
0.012409053806109089,2.304
0.012419500886484502,2.305
0.012429896993875422,2.306
0.012440235225663895,2.307
0.01245050214043205,2.308
0.01246068043459129,2.309
0.012470753093052659,2.31
0.012480707137566518,2.311
0.012490536287973529,2.312
0.0125002420523293,2.313
0.012509832680626394,2.314
0.012519319695356466,2.315
0.012528712860023694,2.316
0.01253801642767337,2.317
0.012547229454652068,2.318
0.012556349540773486,2.319
0.012565376866217826,2.32
0.012574316331628851,2.321
0.012583177286077154,2.322
0.012591971039405361,2.323
0.012600706765772166,2.324
0.01260938737665897,2.325
0.012618007814975846,2.326
0.012626556683225888,2.327
0.012635019313136599,2.328
0.012643380100398333,2.329
0.012651623448827658,2.33
0.012659733414671333,2.331
0.012667692277590546,2.332
0.01267547842500473,2.333
0.012683064059867381,2.334
0.012690413239283445,2.335
0.012697480565063098,2.336
0.012704210487484616,2.337
0.01271053687438955,2.338
0.012716382835211983,2.339
0.012721661706471068,2.34
0.012726280140585005,2.341
0.012730143060937942,2.342
0.012733159417933512,2.343
0.01273524764211356,2.344
0.012736339729514806,2.345
0.012736382915723382,2.346
0.012735338077207408,2.347
0.01273317441312745,2.348
0.012729862124561508,2.349
0.012725368521490692,2.35
0.012719661582358396,2.351
0.012712717879557595,2.352
0.012704529012661229,2.353
0.012695103871240655,2.354
0.012684466793793253,2.355
0.012672652707837552,2.356
0.012659700768900784,2.357
0.01264564796211223,2.358
0.012630523975827887,2.359
0.0126143484611777,2.36
0.012597130637206244,2.361
0.012578869786752407,2.362
0.012559555474474774,2.363
0.012539167537221847,2.364
0.012517676374026282,2.365
0.012495043985656113,2.366
0.012471226041005326,2.367
0.012446174996827918,2.368
0.01241984400407206,2.369
0.012392191041650125,2.37
0.012363182458720064,2.371
0.01233279492666558,2.372
0.01230101480318609,2.373
0.012267834212205756,2.374
0.012233245135917926,2.375
0.012197236427490491,2.376
0.012159797824904159,2.377
0.012120928726457888,2.378
0.012080646469428103,2.379
0.012038991078147177,2.38
0.011996025572530388,2.381
0.011951831821500843,2.382
0.011906502631478131,2.383
0.011860132704060144,2.384
0.011812813938649278,2.385
0.011764638245885035,2.386
0.011715704117783932,2.387
0.011666121380688491,2.388
0.011616012039680157,2.389
0.011565507478072067,2.39
0.011514743016637055,2.391
0.011463851763668155,2.392
0.011412960592124826,2.393
0.011362189698123151,2.394
0.011311653985528561,2.395
0.011261463697935547,2.396
0.011211723486134393,2.397
0.011162530613066317,2.398
0.011113973715832129,2.399
0.011066133133282622,2.4
0.011019082313693696,2.401
0.010972889118921046,2.402
0.010927616430920144,2.403
0.010883322076149468,2.404
0.010840058263447248,2.405
0.010797870730490529,2.406
0.010756797727771387,2.407
0.010716868978646257,2.408
0.010678104980212549,2.409
0.010640517126541835,2.41
0.010604108725371318,2.411
0.010568876491687845,2.412
0.01053481210660645,2.413
0.01050190363479041,2.414
0.010470136635703559,2.415
0.010439494777208114,2.416
0.010409959803340921,2.417
0.01038151084772402,2.418
0.010354123259272043,2.419
0.010327767194500542,2.42
0.01030240615517992,2.421
0.010277995686501003,2.422
0.010254482842856375,2.423
0.010231807015800403,2.424
0.010209901843604423,2.425
0.01018869722576151,2.426
0.010168120475468773,2.427
0.010148095842636064,2.428
0.010128542720827681,2.429
0.010109375044912232,2.43
0.010090504168924114,2.431
0.010071843930266472,2.432
0.010053314553108213,2.433
0.01003484303628686,2.434
0.010016359900680253,2.435
0.00999779574913642,2.436
0.009979082777988599,2.437
0.009960162090517014,2.438
0.009940992340178565,2.439
0.009921555159730098,2.44
0.009901855571480716,2.441
0.009881917345997668,2.442
0.009861774737823844,2.443
0.009841464542565927,2.444
0.009821023508488874,2.445
0.009800491938551583,2.446
0.009779919037446787,2.447
0.009759365964271524,2.448
0.00973890591091277,2.449
0.009718621985461496,2.45
0.009698603726148705,2.451
0.009678942951044265,2.452
0.009659729525675337,2.453
0.009641047827813666,2.454
0.009622974961044615,2.455
0.009605580883255829,2.456
0.009588929172205302,2.457
0.009573077241212308,2.458
0.009558075893283164,2.459
0.009543968550745673,2.46
0.009530790471577118,2.461
0.009518568247057133,2.462
0.00950731977238901,2.463
0.009497054616711343,2.464
0.009487774543516281,2.465
0.009479473992611656,2.466
0.009472140429854075,2.467
0.009465754469734548,2.468
0.009460289625648302,2.469
0.00945571177396969,2.47
0.009451979104724489,2.471
0.009449043479007893,2.472
0.009446853202991688,2.473
0.009445356513604862,2.474
0.009444505078007068,2.475
0.009444256835291863,2.476
0.009444577399459522,2.477
0.009445439277765715,2.478
0.00944681852808136,2.479
0.009448690177858729,2.48
0.009451026217239804,2.481
0.009453798624104198,2.482
0.009456985032623632,2.483
0.009460573278791323,2.484
0.009464563364979433,2.485
0.009468966910400093,2.486
0.009473804544404923,2.487
0.009479101882401284,2.488
0.00948488480223844,2.489
0.009491175215241579,2.49
0.009497989071733312,2.491
0.009505337079022028,2.492
0.009513226335186838,2.493
0.009521660975076196,2.494
0.009530641478092117,2.495
0.009540163244039269,2.496
0.009550215341997006,2.497
0.009560780355382147,2.498
0.009571835926500138,2.499
0.00958335801790913,2.5
0.009595325223695278,2.501
0.00960772291010402,2.502
0.009620545790131576,2.503
0.009633797897840437,2.504
0.009647489743861433,2.505
0.00966163346808691,2.506
0.009676237988610724,2.507
0.009691306532608473,2.508
0.009706836981070123,2.509
0.009722823094542919,2.51
0.009739255142895002,2.511
0.009756120249346535,2.512
0.00977340325242008,2.513
0.00979108843402257,2.514
0.009809161959124318,2.515
0.009827614575385167,2.516
0.009846444072474472,2.517
0.009865657084560144,2.518
0.0098852699215717,2.519
0.009905308206258137,2.52
0.00992580519150382,2.521
0.009946798745397783,2.522
0.009968327223532242,2.523
0.009990425462964737,2.524
0.01001312344741476,2.525
0.010036448987227175,2.526
0.010060432642115954,2.527
0.010085112329933402,2.528
0.010110536388700131,2.529
0.01013676463725052,2.53
0.010163867294930311,2.531
0.010191922075723926,2.532
0.010221010182180567,2.533
0.010251212080035942,2.534
0.010282603771458223,2.535
0.010315254028725804,2.536
0.01034922290199116,2.537
0.010384561498703693,2.538
0.01042131256507042,2.539
0.010459511369667902,2.54
0.010499186708850186,2.541
0.010540361971630576,2.542
0.01058305611436236,2.543
0.01062728432401499,2.544
0.010673058152473533,2.545
0.010720384977270327,2.546
0.010769266764948607,2.547
0.010819698402653113,2.548
0.01087166638523307,2.549
0.010925148678405,2.55
0.010980115607644229,2.551
0.011036530778717035,2.552
0.01109435125461507,2.553
0.011153526807183898,2.554
0.011213998706819023,2.555
0.011275699294947256,2.556
0.011338553286568994,2.557
0.01140248030844515,2.558
0.011467397558752496,2.559
0.011533221874214034,2.56
0.011599870779136857,2.561
0.011667262262999875,2.562
0.011735313322070387,2.563
0.011803937568624422,2.564
0.011873042428039176,2.565
0.011942526815782556,2.566
0.012012280389454363,2.567
0.012082184643786754,2.568
0.012152114933689237,2.569
0.012221942423358254,2.57
0.012291535490316821,2.571
0.012360760286329348,2.572
0.012429480171771305,2.573
0.01249755391784275,2.574
0.012564833123447904,2.575
0.012631160079787512,2.576
0.012696366996916814,2.577
0.01276027602761118,2.578
0.012822699626264157,2.579
0.012883442591224554,2.58
0.012942307074689508,2.581
0.012999099706988369,2.582
0.013053638780685897,2.583
0.013105759608038208,2.584
0.013155316567453924,2.585
0.013202180884990176,2.586
0.013246233980457215,2.587
0.013287358938846491,2.588
0.013325436921149514,2.589
0.013360353165322674,2.59
0.01339200874936045,2.591
0.01342033145720917,2.592
0.013445282591967278,2.593
0.013466858932367235,2.594
0.013485089822137565,2.595
0.013500030196837366,2.596
0.01351175098904448,2.597
0.01352032869023528,2.598
0.013525836491332066,2.599
0.01352833995630655,2.6
0.013527897906418698,2.601
0.013524565625142398,2.602
0.013518397549363514,2.603
0.013509448929034053,2.604
0.013497776812852838,2.605
0.01348344055982322,2.606
0.01346650192084363,2.607
0.013447024620806455,2.608
0.013425073331251088,2.609
0.013400711962572134,2.61
0.013374001299381086,2.611
0.013344996117366621,2.612
0.013313742327249115,2.613
0.013280275340190554,2.614
0.01324462037172917,2.615
0.013206793722252502,2.616
0.013166803355923691,2.617
0.013124648323653364,2.618
0.0130803188194974,2.619
0.013033799384606148,2.62
0.012985075493379954,2.621
0.012934141258103783,2.622
0.012881005538980009,2.623
0.012825694346911847,2.624
0.012768248342026374,2.625
0.012708715981395445,2.626
0.012647146145357089,2.627
0.012583586097303865,2.628
0.012518086499093086,2.629
0.012450708957748956,2.63
0.012381531394210372,2.631
0.012310650095873048,2.632
0.012238179053221667,2.633
0.012164247319761068,2.634
0.012088995010147803,2.635
0.012012568386366464,2.636
0.011935114431165687,2.637
0.011856775735304255,2.638
0.011777687304405862,2.639
0.011697976272250393,2.64
0.011617763354533213,2.641
0.011537164077744133,2.642
0.011456288986480538,2.643
0.011375243078038307,2.644
0.011294124955325049,2.645
0.011213026113585881,2.646
0.011132030601543089,2.647
0.011051215108157724,2.648
0.010970649395108103,2.649
0.0108903969436003,2.65
0.010810515685372142,2.651
0.010731058704891263,2.652
0.01065207481349356,2.653
0.010573608901496575,2.654
0.010495701973258055,2.655
0.010418390776893676,2.656
0.01034170697700216,2.657
0.0102656758912651,2.658
0.010190315099307751,2.659
0.010115633712215036,2.66
0.010041632890897776,2.661
0.009968307221755636,2.662
0.009895646137048979,2.663
0.009823634948353494,2.664
0.00975225538586787,2.665
0.009681485640128757,2.666
0.009611299976009194,2.667
0.009541668044546705,2.668
0.009472554043575748,2.669
0.009403915876486974,2.67
0.009335704435560763,2.671
0.00926786309025011,2.672
0.009200327389094575,2.673
0.009133024892881302,2.674
0.009065875031282523,2.675
0.008998789114640795,2.676
0.008931671019513384,2.677
0.008864419045400303,2.678
0.008796928970926082,2.679
0.008729097942773757,2.68
0.008660828582110716,2.681
0.008592032437940402,2.682
0.008522631836900945,2.683
0.008452559473129308,2.684
0.008381755680900039,2.685
0.008310163942277519,2.686
0.008237726153566487,2.687
0.008164380384449372,2.688
0.008090062773141947,2.689
0.008014712139317943,2.69
0.007938275062641944,2.691
0.007860710415868666,2.692
0.007781992873186297,2.693
0.007702114865695258,2.694
0.007621086599671863,2.695
0.007538934059300055,2.696
0.0074556952892400824,2.697
0.007371415575952561,2.698
0.007286142308702956,2.699
0.007199920615703899,2.7
0.007112791279569844,2.701
0.007024791522221607,2.702
0.0069359575012778885,2.703
0.006846327236695671,2.704
0.00675594362026626,2.705
0.006664857324764418,2.706
0.0065731291434497725,2.707
0.0064808312077000085,2.708
0.006388046685419877,2.709
0.0062948678854317895,2.71
0.0062013930677877575,2.711
0.006107722565393889,2.712
0.006013955169164248,2.713
0.0059201859698404784,2.714
0.005826506045971085,2.715
0.005733002991017359,2.716
0.005639761164170541,2.717
0.0055468614801036245,2.718
0.005454381044962451,2.719
0.00536239292458128,2.72
0.00527096621809359,2.721
0.0051801664912021535,2.722
0.005090056512181566,2.723
0.005000697144406617,2.724
0.0049121481969927085,2.725
0.0048244690310390095,2.726
0.0047377187701706115,2.727
0.004651956063510403,2.728
0.004567238461044441,2.729
0.004483621536671722,2.73
0.004401157978581889,2.731
0.004319897003731287,2.732
0.004239884374202505,2.733
0.004161162881507728,2.734
0.004083772912787002,2.735
0.0040077528620120146,2.736
0.003933139343941363,2.737
0.0038599672113127557,2.738
0.0037882693604839226,2.739
0.0037180763304629745,2.74
0.0036494158756766922,2.741
0.003582312919770112,2.742
0.003516790108802223,2.743
0.003452868688861212,2.744
0.0033905693129420993,2.745
0.0033299125964361556,2.746
0.0032709193575218578,2.747
0.003213610496092493,2.748
0.003158006499654305,2.749
0.0031041266666866955,2.75
0.003051988365927458,2.751
0.003001606779127877,2.752
0.002952995221809817,2.753
0.0029061656530563022,2.754
0.0028611290151153235,2.755
0.002817895343893834,2.756
0.0027764737021592515,2.757
0.002736871972782257,2.758
0.002699096546713919,2.759
0.002663151961349628,2.76
0.0026290405746273696,2.761
0.002596762366902164,2.762
0.0025663149251471326,2.763
0.0025376935938130727,2.764
0.002510891712705321,2.765
0.002485900842175584,2.766
0.002462710907071959,2.767
0.0024413102459488103,2.768
0.002421685592548922,2.769
0.002403822020611683,2.77
0.0023877028571801322,2.771
0.0023733095489842527,2.772
0.0023606215140516986,2.773
0.0023496160932852733,2.774
0.0023402686572558218,2.775
0.0023325527622716008,2.776
0.0023264402422346906,2.777
0.0023219012439183273,2.778
0.0023189042698036275,2.779
0.0023174162601535394,2.78
0.002317402683254343,2.781
0.0023188275605953742,2.782
0.0023216533677624562,2.783
0.0023258408211578405,2.784
0.002331348642290338,2.785
0.0023381334111282955,2.786
0.0023461495819073505,2.787
0.0023553497293443853,2.788
0.0023656850895444124,2.789
0.002377106367554149,2.79
0.0023895646572033723,2.791
0.002403012232183876,2.792
0.002417402928405748,2.793
0.0024326918689157625,2.794
0.002448834577578677,2.795
0.0024657862086975126,2.796
0.002483501869356074,2.797
0.002501938075908058,2.798
0.0025210543749065333,2.799
0.002540814245953087,2.8
0.0025611850080770595,2.801
0.0025821368337361973,2.802
0.002603641162597691,2.803
0.002625669041269679,2.804
0.002648190122766511,2.805
0.0026711726275152016,2.806
0.0026945837510792678,2.807
0.0027183899412016473,2.808
0.0027425569783748765,2.809
0.0027670500078331634,2.81
0.002791833588163731,2.811
0.0028168717088144037,2.812
0.002842127658659462,2.813
0.0028675636291749925,2.814
0.0028931401436504914,2.815
0.0029188157929904415,2.816
0.002944547682350616,2.817
0.0029702923383029337,2.818
0.002996006506768835,2.819
0.0030216474926119882,2.82
0.0030471729239880266,2.821
0.0030725399782913026,2.822
0.0030977044344006554,2.823
0.0031226202970229093,2.824
0.0031472404190504913,2.825
0.003171517687727983,2.826
0.0031954061208649374,2.827
0.0032188616032145932,2.828
0.0032418422248258237,2.829
0.003264308241443519,2.83
0.003286221714444762,2.831
0.0033075458825037743,2.832
0.0033282442694294377,2.833
0.003348279607031526,2.834
0.003367613057985132,2.835
0.0033862044772399232,2.836
0.0034040138571431607,2.837
0.003421003278420402,2.838
0.003437138587111538,2.839
0.003452390346760067,2.84
0.0034667338552247856,2.841
0.0034801481990024345,2.842
0.0034926144924264553,2.843
0.003504113832541571,2.844
0.003514626119167475,2.845
0.003524130618317243,2.846
0.0035326077991954166,2.847
0.003540041331752344,2.848
0.0035464195940938564,2.849
0.0035517364419752405,2.85
0.0035559910669425284,2.851
0.003559186819607703,2.852
0.003561329147534473,2.853
0.003562423613206021,2.854
0.00356247556087271,2.855
0.0035614918894238115,2.856
0.0035594835997563457,2.857
0.0035564676380157294,2.858
0.0035524675108559185,2.859
0.003547512696269265,2.86
0.0035416370394423585,2.861
0.0035348764387159058,2.862
0.0035272665121587336,2.863
0.0035188414613773486,2.864
0.003509634706575769,2.865
0.003499680366661711,2.866
0.0034890144285316164,2.867
0.0034776752895052635,2.868
0.0034657037803397426,2.869
0.003453142786161294,2.87
0.0034400365566530588,2.871
0.0034264297803895272,2.872
0.0034123665111762576,2.873
0.003397889113518171,2.874
0.003383037537159597,2.875
0.003367849174691976,2.876
0.0033523591815964476,2.877
0.0033366008996156605,2.878
0.0033206061832073874,2.879
0.0033044056432276,2.88
0.003288028859884202,2.881
0.003271504563734079,2.882
0.003254860727512562,2.883
0.00323812448661683,2.884
0.0032213218225781845,2.885
0.0032044770303107078,2.886
0.003187612217926907,2.887
0.003170747263740547,2.888
0.003153900377391658,2.889
0.003137088936011098,2.89
0.003120330202123388,2.891
0.0031036417489804136,2.892
0.003087041536756835,2.893
0.0030705476177774003,2.894
0.003054177488102295,2.895
0.0030379472584955965,2.896
0.0030218711186787,2.897
0.003005961526465475,2.898
0.0029902299799196585,2.899
0.0029746878682998493,2.9
0.0029593470769052844,2.901
0.002944220268789568,2.902
0.0029293208539527115,2.903
0.0029146626795280403,2.904
0.0029002594819125312,2.905
0.002886124147177977,2.906
0.002872267936638807,2.907
0.002858700040083962,2.908
0.0028454276874882068,2.909
0.0028324565601352,2.91
0.0028197910836974074,2.911
0.00280743446064275,2.912
0.0027953885296502032,2.913
0.0027836536045459464,2.914
0.002772228437893524,2.915
0.0027611104045448314,2.916
0.0027502959216746305,2.917
0.002739781024711687,2.918
0.0027295619209573435,2.919
0.0027196352762210827,2.92
0.0027099979926656116,2.921
0.0027006465032722786,2.922
0.0026915762162238537,2.923
0.0026827818866941295,2.924
0.002674258825852667,2.925
0.00266600407536208,2.926
0.002658016849870109,2.927
0.0026502980879395057,2.928
0.0026428493068111226,2.929
0.0026356713017056856,2.93
0.0026287635118639294,2.931
0.0026221244151820888,2.932
0.002615752413137625,2.933
0.002609646541346062,2.934
0.00260380681433052,2.935
0.002598234244014408,2.936
0.002592930583224562,2.937
0.0025878978448027707,2.938
0.0025831376428302986,2.939
0.002578650458416839,2.94
0.0025744351002355624,2.941
0.002570488667135267,2.942
0.002566806994065218,2.943
0.002563385240509831,2.944
0.002560218338907221,2.945
0.002557301233731372,2.946
0.0025546289580920993,2.947
0.0025521966376600464,2.948
0.0025499995041809815,2.949
0.0025480329352856198,2.95
0.0025462924499793866,2.951
0.0025447735377582725,2.952
0.002543471222235871,2.953
