VaMe,time
0.0006174267425444574,0.001
0.0007137183243586861,0.002
0.0008105166154387549,0.003
0.0009077636309936972,0.004
0.0010054013649852687,0.005
0.001103372377282853,0.006
0.0012016204915043377,0.007
0.0013000914248434397,0.008
0.0013987332243087563,0.009
0.0014974964570272761,0.01
0.0015963341957902562,0.011
0.0016952019031341691,0.012
0.0017940573268199812,0.013
0.0018928604797268467,0.014
0.0019915736945106213,0.015
0.002090161635495269,0.016
0.00218859106305559,0.017
0.0022868301377777533,0.018
0.002384847324839489,0.019
0.002482610554335597,0.02
0.0025800873627053935,0.021
0.002677245806025902,0.022
0.002774055192101493,0.023
0.002870485930570588,0.024
0.0029665085605143308,0.025
0.003062092856147855,0.026
0.0031572080343873453,0.027
0.0032518240006585244,0.028
0.0033459126223669314,0.029
0.003439448236491724,0.03
0.0035324071978740036,0.031
0.003624766572915768,0.032
0.0037165024997788025,0.033
0.0038075893898224856,0.034
0.0038980007516452794,0.035
0.0039877109991237805,0.036
0.004076697171978122,0.037
0.004164940132283923,0.038
0.004252425187887133,0.039
0.004339142160852629,0.04
0.00442508496423628,0.041
0.004510250772053215,0.042
0.00459463885934691,0.043
0.00467824916650878,0.044
0.004761080645437569,0.045
0.00484312966549318,0.046
0.004924389095270176,0.047
0.0050048483173866865,0.048
0.005084493537717005,0.049
0.005163307656644724,0.05
0.005241269750351777,0.051
0.005318354792937685,0.052
0.0053945339310659595,0.053
0.00546977483036831,0.054
0.005544041553646623,0.055
0.005617294277744069,0.056
0.005689489783215824,0.057
0.005760583199374409,0.058
0.005830530593558862,0.059
0.005899291755464501,0.06
0.00596683275265061,0.061
0.0060331279109412175,0.062
0.00609816084262701,0.063
0.006161924181491306,0.064
0.006224417811281035,0.065
0.006285645564050309,0.066
0.006345611345744692,0.067
0.006404317339556573,0.068
0.006461766076240711,0.069
0.006517964672049004,0.07
0.006572928374109425,0.071
0.006626682109373882,0.072
0.006679259875503944,0.073
0.006730702252162525,0.074
0.006781052642698919,0.075
0.006830353337928265,0.076
0.006878643035684069,0.077
0.006925956627541794,0.078
0.006972326112326593,0.079
0.0070177809914138915,0.08
0.007062347573448893,0.081
0.007106047724091101,0.082
0.007148898350853966,0.083
0.007190912442700172,0.084
0.007232100986500884,0.085
0.007272474606848061,0.086
0.007312044396834481,0.087
0.007350821814755222,0.088
0.007388817601646475,0.089
0.0074260399847994344,0.09
0.007462493350068701,0.091
0.007498179057253755,0.092
0.007533098785663658,0.093
0.007567259075048648,0.094
0.007600675435981135,0.095
0.007633374925839732,0.096
0.0076653964795174705,0.097
0.00769678870639425,0.098
0.007727605425317556,0.099
0.007757900478786814,0.1
0.007787724984996991,0.101
0.007817128782618308,0.102
0.007846163983055923,0.103
0.007874887757599525,0.104
0.007903363524459313,0.105
0.007931660818949802,0.106
0.007959854228502233,0.107
0.007988021740940562,0.108
0.008016242750508789,0.109
0.008044595853424283,0.11
0.008073156523775127,0.111
0.008101995073505982,0.112
0.0081311757863004,0.113
0.00816075762395039,0.114
0.008190795683521582,0.115
0.008221342376356603,0.116
0.008252447958966574,0.117
0.008284160400364796,0.118
0.008316524634527313,0.119
0.00834958130810044,0.12
0.008383365339428154,0.121
0.008417904956115722,0.122
0.008453221707294019,0.123
0.008489331103625363,0.124
0.008526243098612125,0.125
0.008563961958944932,0.126
0.008602485602987837,0.127
0.008641805015354677,0.128
0.008681904456913676,0.129
0.008722762489907939,0.13
0.008764353151478124,0.131
0.008806646684979349,0.132
0.00884960963177107,0.133
0.008893204330346944,0.134
0.008937387997698975,0.135
0.008982111612914515,0.136
0.009027318874739728,0.137
0.009072945662272992,0.138
0.009118920354048968,0.139
0.009165164906657561,0.14
0.009211596300433602,0.141
0.00925812800786188,0.142
0.009304671191540876,0.143
0.009351135328344553,0.144
0.009397427988000232,0.145
0.009443453567587334,0.146
0.009489111384736877,0.147
0.009534294821718131,0.148
0.009578893165626148,0.149
0.009622795654287352,0.15
0.009665895811836182,0.151
0.009708094499144983,0.152
0.009749300715091436,0.153
0.009789429663584462,0.154
0.009828398537340447,0.155
0.009866122292185487,0.156
0.009902512676994409,0.157
0.009937481292645517,0.158
0.009970944029443677,0.159
0.01000282427970218,0.16
0.010033054345688233,0.161
0.010061575443045997,0.162
0.010088336788823307,0.163
0.010113294128067316,0.164
0.010136407787121306,0.165
0.01015764008212846,0.166
0.010176951996990015,0.167
0.010194300190837698,0.168
0.010209636760900274,0.169
0.010222912980649815,0.17
0.010234085290110656,0.171
0.010243121000446128,0.172
0.010250002201987093,0.173
0.01025472695788227,0.174
0.010257307144646243,0.175
0.010257762884751023,0.176
0.010256115634233632,0.177
0.010252385012323558,0.178
0.010246592464441788,0.179
0.010238768403279254,0.18
0.01022895764925599,0.181
0.01021722093679414,0.182
0.010203632179495182,0.183
0.010188272347148433,0.184
0.010171223312780602,0.185
0.010152566451578122,0.186
0.010132386970608375,0.187
0.010110779589087187,0.188
0.010087851138009899,0.189
0.010063718942962466,0.19
0.0100385058628209,0.191
0.010012334167342526,0.192
0.009985321665108312,0.193
0.009957581848623448,0.194
0.009929225976955038,0.195
0.009900364092059577,0.196
0.009871104031206978,0.197
0.00984154914482199,0.198
0.009811796217861993,0.199
0.00978193478236582,0.2
0.009752047311050534,0.201
0.009722209099883639,0.202
0.009692488257072949,0.203
0.009662947066099145,0.204
0.00963364443317914,0.205
0.00960463788355264,0.206
0.009575984062133626,0.207
0.00954773760361657,0.208
0.009519948919323905,0.209
0.009492662095553543,0.21
0.009465914172583823,0.211
0.009439735952486351,0.212
0.009414153339626401,0.213
0.00938918839961301,0.214
0.009364860014181995,0.215
0.009341184195012621,0.216
0.009318174022893581,0.217
0.009295839106509978,0.218
0.009274184431192342,0.219
0.009253208873801148,0.22
0.009232904569207341,0.221
0.009213258181833413,0.222
0.009194253539148696,0.223
0.00917587420301979,0.224
0.009158105011569115,0.225
0.009140932158463715,0.226
0.009124341690411358,0.227
0.009108316908170872,0.228
0.009092836251017549,0.229
0.009077873504566993,0.23
0.009063400463448872,0.231
0.009049390453600264,0.232
0.009035821199006875,0.233
0.009022676229592463,0.234
0.009009944284344922,0.235
0.00899761645118063,0.236
0.008985682322446387,0.237
0.008974128635765723,0.238
0.008962942543726687,0.239
0.008952117214835714,0.24
0.008941656061023507,0.241
0.008931573769366912,0.242
0.008921893740963317,0.243
0.008912642993805479,0.244
0.008903848108894103,0.245
0.008895535902310587,0.246
0.008887738152680949,0.247
0.00888049620617468,0.248
0.00887386236866339,0.249
0.008867897572872336,0.25
0.008862666385838408,0.251
0.008858231669469346,0.252
0.008854651696451506,0.253
0.00885198036065912,0.254
0.008850268276056613,0.255
0.00884956290149056,0.256
0.008849907883194098,0.257
0.008851342515081568,0.258
0.008853901854703859,0.259
0.008857617516031388,0.26
0.008862518725941413,0.261
0.008868633025373232,0.262
0.008875986050329463,0.263
0.00888460015338378,0.264
0.008894492504837414,0.265
0.00890567426705411,0.266
0.008918151635197855,0.267
0.008931927527222954,0.268
0.00894700236707869,0.269
0.008963373588864336,0.27
0.008981034264632112,0.271
0.008999971444336802,0.272
0.009020164829165345,0.273
0.009041586290451558,0.274
0.009064200376137147,0.275
0.0090879655991071,0.276
0.009112836327166076,0.277
0.009138765139315679,0.278
0.00916570523746486,0.279
0.00919361215068837,0.28
0.009222443861682117,0.281
0.009252158799776278,0.282
0.009282712624742903,0.283
0.009314056827195287,0.284
0.00934614113844981,0.285
0.009378917872425467,0.286
0.009412345217304925,0.287
0.009446388406562084,0.288
0.009481019044117654,0.289
0.009516213221014359,0.29
0.009551949087571183,0.291
0.009588204308428862,0.292
0.009624953524576365,0.293
0.009662165977740753,0.294
0.009699804012890358,0.295
0.009737823299101622,0.296
0.009776174599581333,0.297
0.009814806069163278,0.298
0.009853665291966409,0.299
0.009892700745545154,0.3
0.009931862499100035,0.301
0.009971101961189338,0.302
0.010010370577186381,0.303
0.010049617554989452,0.304
0.010088787126837412,0.305
0.010127816472803246,0.306
0.010166635183478942,0.307
0.010205165717903439,0.308
0.010243323512019972,0.309
0.010281016293909255,0.31
0.010318143537241068,0.311
0.010354597071829242,0.312
0.010390262706146472,0.313
0.010425022055854317,0.314
0.010458754047279412,0.315
0.010491335724760194,0.316
0.01052264177797845,0.317
0.010552542820198133,0.318
0.010580904644325331,0.319
0.010607591445720101,0.32
0.0106324729924859,0.321
0.010655432673079963,0.322
0.010676373241454373,0.323
0.010695218246556781,0.324
0.010711908285373495,0.325
0.01072639324877547,0.326
0.010738625164914526,0.327
0.010748557148209839,0.328
0.01075614864942028,0.329
0.01076137174671544,0.33
0.01076421422328025,0.331
0.010764678949779291,0.332
0.010762780926482016,0.333
0.010758543617283725,0.334
0.010751995843249507,0.335
0.010743169717876097,0.336
0.010732099286778098,0.337
0.01071881903882271,0.338
0.01070336147038005,0.339
0.010685754075809071,0.34
0.010666018121146145,0.341
0.01064417092723579,0.342
0.010620230123231888,0.343
0.010594217361708257,0.344
0.01056616069294467,0.345
0.010536095983799593,0.346
0.010504067962247265,0.347
0.010470131246274515,0.348
0.010434351225894917,0.349
0.010396804182322113,0.35
0.010357575814669513,0.351
0.010316757554402048,0.352
0.010274441398165926,0.353
0.010230716416442721,0.354
0.010185669942674476,0.355
0.010139392422508439,0.356
0.01009198237042255,0.357
0.010043549224990277,0.358
0.009994213764921229,0.359
0.009944106496709609,0.36
0.009893364680930522,0.361
0.009842128719358205,0.362
0.00979053850716175,0.363
0.009738730142784438,0.364
0.009686833326404107,0.365
0.009634969943196297,0.366
0.009583254099397052,0.367
0.009531793148723782,0.368
0.009480688986559795,0.369
0.00943003924281282,0.37
0.009379938252404515,0.371
0.009330477717533108,0.372
0.009281747031016046,0.373
0.009233833330129212,0.374
0.00918682143308182,0.375
0.009140793816694151,0.376
0.009095830684356517,0.377
0.00905200996798865,0.378
0.009009406926796392,0.379
0.008968093005706277,0.38
0.0089281341899577,0.381
0.008889590125633492,0.382
0.008852515096680173,0.383
0.008816960285885113,0.384
0.008782975938937143,0.385
0.008750612612949365,0.386
0.008719921223884665,0.387
0.008690951855494532,0.388
0.008663751604446572,0.389
0.008638362321179253,0.39
0.008614819553344762,0.391
0.008593153123805266,0.392
0.008573388258810183,0.393
0.008555546062058135,0.394
0.008539643003748565,0.395
0.008525689800696427,0.396
0.008513690714206382,0.397
0.008503644186874925,0.398
0.008495544569291339,0.399
0.008489383994707833,0.4
0.008485153778393354,0.401
0.008482845102391293,0.402
0.008482448889299533,0.403
0.008483954895471914,0.404
0.00848735019122553,0.405
0.008492617329493243,0.406
0.008499732811541596,0.407
0.008508666742823325,0.408
0.008519384055866002,0.409
0.008531846706919796,0.41
0.00854601604583699,0.411
0.008561854930646937,0.412
0.008579329369609172,0.413
0.008598409589249529,0.414
0.008619070565188843,0.415
0.008641292107985274,0.416
0.008665058532095241,0.417
0.008690357816908632,0.418
0.008717180108192545,0.419
0.008745515470391926,0.42
0.00877535114735581,0.421
0.008806669396351248,0.422
0.008839447336533125,0.423
0.008873659074496866,0.424
0.00890927890911145,0.425
0.00894628441630101,0.426
0.008984658885424726,0.427
0.009024392810650223,0.428
0.009065484164678709,0.429
0.009107937314009208,0.43
0.009151760674329035,0.431
0.009196963486819351,0.432
0.009243552299332476,0.433
0.009291527925287112,0.434
0.009340883730132197,0.435
0.009391605389560255,0.436
0.009443671219153177,0.437
0.009497052188651683,0.438
0.009551711489590428,0.439
0.009607604025959973,0.44
0.009664676299150694,0.441
0.00972286673181132,0.442
0.00978210586361456,0.443
0.009842316105132308,0.444
0.009903411801741435,0.445
0.00996530043204126,0.446
0.010027884427092237,0.447
0.010091062343821537,0.448
0.010154728631331177,0.449
0.010218772111981866,0.45
0.010283074119875255,0.451
0.010347507383239404,0.452
0.01041193634987898,0.453
0.01047621979031772,0.454
0.010540216334038623,0.455
0.010603792038288113,0.456
0.010666827579916036,0.457
0.010729222432846158,0.458
0.01079089419374466,0.459
0.010851772664681828,0.46
0.01091179133833644,0.461
0.01097088262859672,0.462
0.011028980889670355,0.463
0.01108602976124635,0.464
0.01114198834960101,0.465
0.011196834423049636,0.466
0.011250565030926826,0.467
0.011303195165715174,0.468
0.011354754933121795,0.469
0.011405285430190648,0.47
0.011454833382087531,0.471
0.011503445210043636,0.472
0.011551162802450282,0.473
0.011598023314171696,0.474
0.01164406230403803,0.475
0.011689317188480142,0.476
0.011733828905555353,0.477
0.011777641408646481,0.478
0.011820799324337574,0.479
0.011863344357876341,0.48
0.011905311688336173,0.481
0.011946728390343983,0.482
0.011987614863076184,0.483
0.012027987897955523,0.484
0.012067863547761503,0.485
0.01210725900164508,0.486
0.012146193102519269,0.487
0.012184685138244455,0.488
0.012222751920992167,0.489
0.012260404622995375,0.49
0.01229764834456748,0.491
0.01233448586890687,0.492
0.012370923683659938,0.493
0.01240697766954256,0.494
0.01244267741067746,0.495
0.012478068959275822,0.496
0.012513215970602194,0.497
0.012548199044220477,0.498
0.012583113017813147,0.499
0.012618062026514052,0.5
0.012653152886428322,0.501
0.012688489408554958,0.502
0.012724171373766396,0.503
0.012760298824529209,0.504
0.012796978286206476,0.505
0.012834327696032021,0.506
0.012872479192130285,0.507
0.012911579954118544,0.508
0.012951791309636303,0.509
0.012993286223563546,0.51
0.013036245263206797,0.511
0.013080851323519282,0.512
0.013127283943761059,0.513
0.013175714804333211,0.514
0.013226305726835181,0.515
0.013279208662196356,0.516
0.013334566005777327,0.517
0.013392510540818038,0.518
0.0134531654362491,0.519
0.01351664462205179,0.52
0.013583053273905715,0.521
0.013652487805287205,0.522
0.013725035022231135,0.523
0.013800771072079922,0.524
0.013879761433827124,0.525
0.01396206209483046,0.526
0.014047720439437918,0.527
0.014136774797747418,0.528
0.014229254059487176,0.529
0.014325180003872107,0.53
0.014424572912308139,0.531
0.014527458276212634,0.532
0.014633871894654907,0.533
0.014743861556386961,0.534
0.014857484552185786,0.535
0.014974801502960825,0.536
0.015095869170990109,0.537
0.015220736912068615,0.538
0.015349448876746918,0.539
0.015482048779560949,0.54
0.015618583354818175,0.541
0.01575910348667644,0.542
0.015903663379590788,0.543
0.016052318140781657,0.544
0.016205120107734883,0.545
0.01636211445728553,0.546
0.01652333534267149,0.547
0.016688804109323864,0.548
0.016858529629076437,0.549
0.017032509011281432,0.55
0.017210727360413933,0.551
0.01739315668327078,0.552
0.017579754569006706,0.553
0.017770463087682885,0.554
0.01796520804759565,0.555
0.018163898510312776,0.556
0.01836642649660004,0.557
0.018572667066829307,0.558
0.01878247897920646,0.559
0.01899570581315156,0.56
0.019212177209830674,0.561
0.019431709860740543,0.562
0.01965410790828267,0.563
0.019879162485132034,0.564
0.020106650292781234,0.565
0.020336331814033923,0.566
0.02056795071831439,0.567
0.020801235464258633,0.568
0.021035902218454108,0.569
0.02127165760518614,0.57
0.021508200556725986,0.571
0.021745223023007722,0.572
0.021982409407998626,0.573
0.022219434689740178,0.574
0.022455961306075148,0.575
0.022691635571818185,0.576
0.022926085588660244,0.577
0.02315892210764533,0.578
0.023389741388053907,0.579
0.023618128086006496,0.58
0.023843657069370226,0.581
0.024065893596367904,0.582
0.024284391225793334,0.583
0.024498688213379836,0.584
0.024708306523501932,0.585
0.024912757375979866,0.586
0.025111551662550448,0.587
0.02530421010182174,0.588
0.025490268994226104,0.589
0.025669279036810634,0.59
0.02584079694435983,0.591
0.026004375309125013,0.592
0.026159561250030532,0.593
0.02630590889623837,0.594
0.026442999278411043,0.595
0.026570458732231083,0.596
0.026687971434898747,0.597
0.026795283985088944,0.598
0.02689220046621069,0.599
0.02697856750769871,0.6
0.02705425279346652,0.601
0.02711912873327759,0.602
0.02717307479812393,0.603
0.02721599847193683,0.604
0.02724786160919306,0.605
0.027268700375224515,0.606
0.027278633733109226,0.607
0.027277859002050656,0.608
0.02726663530347394,0.609
0.027245258117075698,0.61
0.027214032609487564,0.611
0.02717325853880639,0.612
0.027123233241544233,0.613
0.027064264235953647,0.614
0.026996680175481094,0.615
0.02692083702307428,0.616
0.02683712046244934,0.617
0.026745945227570483,0.618
0.026647751295390987,0.619
0.026542996461175753,0.62
0.02643214500350139,0.621
0.026315655013260428,0.622
0.026193971735384597,0.623
0.026067531498880237,0.624
0.025936770918531717,0.625
0.0258021334997542,0.626
0.025664071061122645,0.627
0.02552304068028222,0.628
0.025379498230762347,0.629
0.025233890383635167,0.63
0.02508664919046199,0.631
0.024938193118848342,0.632
0.024788933204360795,0.633
0.02463927894460459,0.634
0.024489639850818503,0.635
0.024340421568928957,0.636
0.024192018918206177,0.637
0.02404481201343888,0.638
0.023899169373524938,0.639
0.02375545422023054,0.64
0.023614028076136318,0.641
0.023475249766586076,0.642
0.023339470726709416,0.643
0.023207028968522486,0.644
0.023078245486456046,0.645
0.022953425231285154,0.646
0.022832860646995714,0.647
0.022716834683799605,0.648
0.0226056222119168,0.649
0.022499489982957834,0.65
0.022398695394373683,0.651
0.02230348433989975,0.652
0.022214088520900878,0.653
0.022130722679472373,0.654
0.022053582325189367,0.655
0.021982842588639286,0.656
0.021918658387541395,0.657
0.021861165472396808,0.658
0.021810482023252472,0.659
0.021766710844203247,0.66
0.021729942062881005,0.661
0.02170025586862812,0.662
0.021677724650435604,0.663
0.021662413994215014,0.664
0.02165438226361986,0.665
0.02165367875229684,0.666
0.021660340559409255,0.667
0.021674389109619566,0.668
0.021695828674798745,0.669
0.021724648529352672,0.67
0.021760827312950735,0.671
0.02180433705614753,0.672
0.02185514557938503,0.673
0.021913217009630937,0.674
0.02197851073000125,0.675
0.022050979514268487,0.676
0.022130567605666125,0.677
0.02221720902013797,0.678
0.022310825667629704,0.679
0.022411324899800723,0.68
0.02251859769788027,0.681
0.022632520051311215,0.682
0.022752958278299318,0.683
0.022879776078741403,0.684
0.023012840634462538,0.685
0.0231520262704914,0.686
0.023297215063742896,0.687
0.023448294315796887,0.688
0.023605151252103496,0.689
0.023767665898603553,0.69
0.023935704613146647,0.691
0.0241091178862512,0.692
0.02428774332350273,0.693
0.02447141037819428,0.694
0.024659943064190244,0.695
0.02485315936785828,0.696
0.025050867687591006,0.697
0.025252861612085575,0.698
0.025458915217826464,0.699
0.025668780464247587,0.7
0.025882186702802533,0.701
0.02609884241195292,0.702
0.02631843969984041,0.703
0.026540660449457406,0.704
0.026765181558815028,0.705
0.026991677246853057,0.706
0.027219817525570622,0.707
0.027449263004277347,0.708
0.027679658151884425,0.709
0.027910627545614398,0.71
0.028141777825952306,0.711
0.028372702536066725,0.712
0.028602985303350852,0.713
0.02883219923060717,0.714
0.02905990288896767,0.715
0.029285636438475548,0.716
0.02950892273917492,0.717
0.029729273907989677,0.718
0.02994619832001015,0.719
0.030159202671738942,0.72
0.030367787624093742,0.721
0.030571442360375182,0.722
0.03076964805644702,0.723
0.030961894067973506,0.724
0.03114769975298153,0.725
0.03132663255864094,0.726
0.031498317205761905,0.727
0.031662434058120734,0.728
0.03181870678906166,0.729
0.03196688166550322,0.73
0.03210670607691811,0.731
0.032237919885530784,0.732
0.03236026614440966,0.733
0.03247351193872637,0.734
0.03257746735096755,0.735
0.032671998607893556,0.736
0.032757035638284165,0.737
0.03283257452414846,0.738
0.032898675043907366,0.739
0.0329554529396163,0.74
0.03300306619847216,0.741
0.03304169501677052,0.742
0.03307152002738706,0.743
0.03309271173296026,0.744
0.033105439240149755,0.745
0.03310988906925605,0.746
0.03310628031538745,0.747
0.03309487132366554,0.748
0.03307595855719267,0.749
0.03304986943966757,0.75
0.03301695145507754,0.751
0.03297755995446629,0.752
0.03293204705673588,0.753
0.032880753625391876,0.754
0.0328240054202355,0.755
0.03276211322674455,0.756
0.03269537541028718,0.757
0.03262408045238354,0.758
0.032548507033343776,0.759
0.03246892019675251,0.76
0.03238556507279198,0.761
0.03229866364397415,0.762
0.03220841848427417,0.763
0.03211502058897016,0.764
0.03201865634426366,0.765
0.03191951193975236,0.766
0.03181777563106453,0.767
0.03171363856848023,0.768
0.03160729480348547,0.769
0.031498940710140505,0.77
0.03138877360243695,0.771
0.031276989017460635,0.772
0.031163776127177033,0.773
0.031049311167561388,0.774
0.030933750686362397,0.775
0.030817228984556664,0.776
0.030699862148578148,0.777
0.030581755377435002,0.778
0.030463008778528023,0.779
0.03034371934602604,0.78
0.030223978524233086,0.781
0.030103866093958608,0.782
0.02998344406849309,0.783
0.029862755983163815,0.784
0.029741832870647994,0.785
0.029620701372054255,0.786
0.029499389068489767,0.787
0.029377925093425947,0.788
0.02925633576501641,0.789
0.029134636962650746,0.79
0.029012828999884117,0.791
0.02889090023682652,0.792
0.02876883908495669,0.793
0.028646648373333927,0.794
0.0285243567148441,0.795
0.028402024066619024,0.796
0.028279740123475675,0.797
0.028157615430327434,0.798
0.02803576719083726,0.799
0.02791430586727755,0.8
0.027793331072642286,0.801
0.02767293879656357,0.802
0.027553232721028696,0.803
0.027434332326383253,0.804
0.027316375941343618,0.805
0.027199519484314476,0.806
0.027083931919289757,0.807
0.026969788429170624,0.808
0.026857262208934782,0.809
0.026746515891234994,0.81
0.02663769449349636,0.811
0.026530922452676763,0.812
0.026426305212960754,0.813
0.026323932763846876,0.814
0.026223882813205035,0.815
0.026126223414028,0.816
0.026031015569524044,0.817
0.02593831601524502,0.818
0.025848179986789562,0.819
0.025760663436532768,0.82
0.02567582392169552,0.821
0.025593719316572013,0.822
0.025514403677748668,0.823
0.02543792098006816,0.824
0.0253643005996189,0.825
0.02529355918968216,0.826
0.025225708860336187,0.827
0.025160767175632034,0.828
0.025098765181363822,0.829
0.025039752013934772,0.83
0.024983795591664817,0.831
0.024930979082022357,0.832
0.024881393017214173,0.833
0.024835124855426206,0.834
0.02479225202889357,0.835
0.024752844267999376,0.836
0.02471697308974255,0.837
0.02468472088296838,0.838
0.02465618441446318,0.839
0.024631471761310236,0.84
0.024610694015870335,0.841
0.0245939549656527,0.842
0.024581343525854928,0.843
0.02457293194160057,0.844
0.02456877790765231,0.845
0.024568926824584773,0.846
0.02457341264058885,0.847
0.0245822573885539,0.848
0.024595469230894486,0.849
0.02461303977373929,0.85
0.024634944552793633,0.851
0.024661150139086666,0.852
0.024691625711633254,0.853
0.024726353602320544,0.854
0.02476533418448572,0.855
0.024808581933609946,0.856
0.024856114527959917,0.857
0.024907946073122907,0.858
0.02496409394656257,0.859
0.02502459329271758,0.86
0.02508950584470683,0.861
0.025158916931479196,0.862
0.025232922734432325,0.863
0.025311614884435393,0.864
0.025395071078172356,0.865
0.025483353959722194,0.866
0.02557651209696715,0.867
0.025674578048789923,0.868
0.02577756511789276,0.869
0.025885466335844456,0.87
0.025998256467883223,0.871
0.026115895413968554,0.872
0.026238331740564322,0.873
0.026365506114329272,0.874
0.026497354177615534,0.875
0.0266338076076034,0.876
0.026774791605414995,0.877
0.026920219501828185,0.878
0.02706999117684222,0.879
0.02722400195357826,0.88
0.027382159285601733,0.881
0.02754439883076857,0.882
0.02771069379663544,0.883
0.027881054791854615,0.884
0.028055519887857053,0.885
0.028234137988816396,0.886
0.02841695371539268,0.887
0.02860400350678362,0.888
0.02879532413215999,0.889
0.028990965129888763,0.89
0.029190997422059065,0.891
0.02939551582667014,0.892
0.02960463541790299,0.893
0.02981848204654856,0.894
0.030037179354431648,0.895
0.03026083897936795,0.896
0.03048956061258528,0.897
0.030723439908170544,0.898
0.030962575281427887,0.899
0.031207067063229944,0.9
0.03145700940907453,0.901
0.03171248185768399,0.902
0.03197354798323602,0.903
0.03224026034183667,0.904
0.03251266412801958,0.905
0.03279079439528702,0.906
0.033074668758156456,0.907
0.03336428304202837,0.908
0.03365961460489213,0.909
0.03396062889914847,0.91
0.03426728209776449,0.911
0.03457951729280939,0.912
0.03489725700638807,0.913
0.03522039828715845,0.914
0.035548813520736,0.915
0.035882352476562546,0.916
0.03622084078543975,0.917
0.03656407635015024,0.918
0.036911827439040645,0.919
0.03726383248374181,0.92
0.037619800102784616,0.921
0.037979411540773965,0.922
0.03834232804983653,0.923
0.038708200874080126,0.924
0.03907667959042205,0.925
0.03944741663446851,0.926
0.03982006739158324,0.927
0.04019428551693639,0.928
0.04056971374591519,0.929
0.04094597419570087,0.93
0.04132266709117251,0.931
0.04169938324378762,0.932
0.042075725424266006,0.933
0.042451330621877,0.934
0.04282588848306834,0.935
0.043199152595869525,0.936
0.04357094100750613,0.937
0.043941123025203935,0.938
0.04430959395690083,0.939
0.044676251233067746,0.94
0.04504099188360585,0.941
0.04540373503810772,0.942
0.0457644511012202,0.943
0.04612317924187862,0.944
0.0464800277679435,0.945
0.04683515982926247,0.946
0.04718876988223774,0.947
0.04754105718727554,0.948
0.0478922025676302,0.949
0.04824235478335498,0.95
0.04859162899786841,0.951
0.04894011256788669,0.952
0.049287871785054206,0.953
0.049634957388082795,0.954
0.04998140926257944,0.955
0.050327260643754285,0.956
0.050672541754981766,0.957
0.051017282872009066,0.958
0.05136151681891271,0.959
0.05170528017336751,0.96
0.05204861102163798,0.961
0.05239153999209448,0.962
0.05273407644532167,0.963
0.05307620371990114,0.964
0.05341789563896259,0.965
0.0537591467145329,0.966
0.05409999893882255,0.967
0.05444055484371444,0.968
0.05478097322756078,0.969
0.05512144773592508,0.97
0.055462176194041084,0.971
0.05580333989989393,0.972
0.05614510796009807,0.973
0.056487658555595295,0.974
0.0568311972918152,0.975
0.057175961955326045,0.976
0.05752221322718511,0.977
0.05787021478305169,0.978
0.05822020988934731,0.979
0.05857240596139664,0.98
0.05892697335638907,0.981
0.05928405063818019,0.982
0.0596437444717669,0.983
0.06000612375941111,0.984
0.0603712194170245,0.985
0.0607390368330671,0.986
0.06110957275966955,0.987
0.061482823413462666,0.988
0.06185877758948975,0.989
0.062237399726194874,0.99
0.0626186198910535,0.991
0.06300234303458684,0.992
0.06338846849434898,0.993
0.06377690291369155,0.994
0.06416755955590488,0.995
0.06456034572672503,0.996
0.06495514419426467,0.997
0.06535179662022766,0.998
0.06575009602220822,0.999
0.06614979109371662,1.0
0.06655059957986338,1.001
0.06695222350712628,1.002
0.06735435776246229,1.003
0.06775668550026644,1.004
0.0681588629421836,1.005
0.06856051105978232,1.006
0.0689612298136466,1.007
0.0693606276471005,1.008
0.0697583473145325,1.009
0.07015407750283337,1.01
0.07054754838186658,1.011
0.07093851259445916,1.012
0.07132671691881114,1.013
0.07171187732698245,1.014
0.07209367249192969,1.015
0.07247175610646235,1.016
0.07284577166543622,1.017
0.07321535513798097,1.018
0.07358012293674185,1.019
0.07393965422638596,1.02
0.07429348450932122,1.021
0.0746411177120453,1.022
0.07498204342873875,1.023
0.07531574180212137,1.024
0.07564167234368482,1.025
0.07595926133046933,1.026
0.07626790981336555,1.027
0.07656702681015232,1.028
0.07685606950984436,1.029
0.07713457062618258,1.03
0.07740214335290747,1.031
0.07765846142316112,1.032
0.07790322070195484,1.033
0.07813610634901705,1.034
0.07835679573195842,1.035
0.0785650007901615,1.036
0.078760523761834,1.037
0.0789433005013143,1.038
0.07911341913690766,1.039
0.07927110820535234,1.04
0.07941669225129955,1.041
0.07955053023049741,1.042
0.07967298055043845,1.043
0.07978442503544896,1.044
0.07988532842437063,1.045
0.079976287734041,1.046
0.08005804964734009,1.047
0.08013149465714123,1.048
0.08019759439788714,1.049
0.08025735479516809,1.05
0.08031176609595853,1.051
0.08036178209773914,1.052
0.08040833044360278,1.053
0.08045233334763982,1.054
0.08049472202046451,1.055
0.08053644325067927,1.056
0.0805784609018315,1.057
0.08062175266999162,1.058
0.08066730042594986,1.059
0.08071607224154663,1.06
0.08076899946815148,1.061
0.08082696170169952,1.062
0.08089078938468379,1.063
0.08096127571786473,1.064
0.08103918154106406,1.065
0.0811252275118056,1.066
0.08122008316423167,1.067
0.08132436730262504,1.068
0.08143866105992868,1.069
0.0815635195971655,1.07
0.0816994698279217,1.071
0.08184699600975501,1.072
0.08200652953814107,1.073
0.0821784562977137,1.074
0.08236313473061367,1.075
0.08256090836998357,1.076
0.08277210483855711,1.077
0.08299702212411343,1.078
0.08323590891661778,1.079
0.0834889504065153,1.08
0.08375626555479998,1.081
0.08403790961075411,1.082
0.08433387382732478,1.083
0.0846440821215017,1.084
0.08496838831523632,1.085
0.08530657573742023,1.086
0.08565835784843118,1.087
0.08602337726557074,1.088
0.0864012039363137,1.089
0.08679133845906721,1.09
0.08719322456608083,1.091
0.08760626636297293,1.092
0.08802984196207386,1.093
0.08846330695528909,1.094
0.08890598473989636,1.095
0.08935715105303323,1.096
0.08981603294286561,1.097
0.09028183375218803,1.098
0.09075376944361473,1.099
0.09123109241508007,1.1
0.09171308925355023,1.101
0.09219905342281227,1.102
0.09268825496280036,1.103
0.09317993942001819,1.104
0.0936733611887035,1.105
0.09416782161913831,1.106
0.09466268226095571,1.107
0.09515734357117782,1.108
0.09565120255255813,1.109
0.09614363007590516,1.11
0.09663399985561036,1.111
0.09712174990144484,1.112
0.09760643247475535,1.113
0.09808772577067365,1.114
0.09856539998707883,1.115
0.09903925494600048,1.116
0.09950907988465904,1.117
0.09997467353893666,1.118
0.10043590074445838,1.119
0.10089273650384266,1.12
0.10134527544356729,1.121
0.10179370817148768,1.122
0.10223827297528301,1.123
0.10267919949413032,1.124
0.10311667377859694,1.125
0.10355084505538902,1.126
0.1039818600576266,1.127
0.10440989505940661,1.128
0.10483516882669708,1.129
0.10525793232217778,1.13
0.10567843715923549,1.131
0.10609689862692652,1.132
0.10651348424503483,1.133
0.10692834277596448,1.134
0.10734165160099601,1.135
0.1077536519288305,1.136
0.10816465821790013,1.137
0.10857503926771904,1.138
0.10898517618410491,1.139
0.10939541974648925,1.14
0.10980608114222631,1.141
0.11021746563179223,1.142
0.1106299214839156,1.143
0.11104387461344957,1.144
0.11145983992853402,1.145
0.11187841112031004,1.146
0.11230023267844585,1.147
0.11272595880889585,1.148
0.1131562085411805,1.149
0.11359153587777371,1.15
0.11403242993616991,1.151
0.11447933606603582,1.152
0.11493267429504066,1.153
0.1153928395663957,1.154
0.11586018296548627,1.155
0.1163349881769926,1.156
0.11681746329718135,1.157
0.11730774898247198,1.158
0.117805922132987,1.159
0.11831198779825956,1.16
0.11882588245265154,1.161
0.11934750738335191,1.162
0.11987677782036174,1.163
0.12041366084016954,1.164
0.12095818641210297,1.165
0.12151042638854458,1.166
0.12207044910619542,1.167
0.12263827971216365,1.168
0.12321389932724344,1.169
0.12379727935877621,1.17
0.12438841523899394,1.171
0.12498733380579596,1.172
0.12559407316049584,1.173
0.1262086456809173,1.174
0.1268309982100422,1.175
0.12746098459561878,1.176
0.12809835956827612,1.177
0.12874278929799396,1.178
0.1293938671303309,1.179
0.13005112735037144,1.18
0.13071405434572272,1.181
0.13138208525147518,1.182
0.13205460465988708,1.183
0.1327309313568507,1.184
0.13341029918142547,1.185
0.1340918387995845,1.186
0.13477457123400163,1.187
0.13545741758468294,1.188
0.13613921763212944,1.189
0.136818748591409,1.19
0.1374947408543792,1.191
0.1381658895196897,1.192
0.1388308599505169,1.193
0.13948828586289347,1.194
0.14013676001062317,1.195
0.140774819811618,1.196
0.14140093157696063,1.197
0.14201347592489078,1.198
0.14261073392825932,1.199
0.14319087400191288,1.2
0.14375194735890007,1.201
0.14429190324323063,1.202
0.14480862577194104,1.203
0.1452999859832477,1.204
0.14576390268560988,1.205
0.1461984048408248,1.206
0.14660168371611856,1.207
0.14697211943905406,1.208
0.14730826724179102,1.209
0.1476087946341291,1.21
0.14787239163832477,1.211
0.1480977286908377,1.212
0.14828351936674936,1.213
0.1484286498851816,1.214
0.1485322990934341,1.215
0.14859400991791452,1.216
0.1486137031701763,1.217
0.148591635477723,1.218
0.1485283101692436,1.219
0.14842435776844523,1.22
0.1482804282007033,1.221
0.1480971599805789,1.222
0.14787524819526546,1.223
0.14761555576841348,1.224
0.14731920207316018,1.225
0.146987601565146,1.226
0.14662244747347128,1.227
0.14622564471531732,1.228
0.14579920584058217,1.229
0.14534514248106803,1.23
0.144865404951967,1.231
0.14436189244053693,1.232
0.1438364926047172,1.233
0.14329110219622054,1.234
0.14272761843269324,1.235
0.1421479101820539,1.236
0.14155378006181923,1.237
0.1409469311475261,1.238
0.14032895136472526,1.239
0.13970131639310895,1.24
0.1390653986990918,1.241
0.13842247309886563,1.242
0.13777371884423495,1.243
0.13712022052570266,1.244
0.13646296757830198,1.245
0.1358028497326045,1.246
0.13514064863231565,1.247
0.13447703597897165,1.248
0.13381259022544448,1.249
0.1331478293405099,1.25
0.13248324593823108,1.251
0.13181933212837252,1.252
0.13115658538384997,1.253
0.13049549103529087,1.254
0.1298364878350567,1.255
0.12917993986907045,1.256
0.1285261374281286,1.257
0.12787532100484625,1.258
0.1272277023071452,1.259
0.12658346545461122,1.26
0.1259427481937654,1.261
0.12530561367867804,1.262
0.1246720301814311,1.263
0.12404186999543,1.264
0.12341492242516797,1.265
0.12279091139079176,1.266
0.12216951640970264,1.267
0.12155039890588622,1.268
0.12093323123942992,1.269
0.12031772041872987,1.27
0.11970361580120159,1.271
0.11909069135321301,1.272
0.11847870702329576,1.273
0.11786738267743523,1.274
0.11725642155340588,1.275
0.11664557737473912,1.276
0.11603472588610578,1.277
0.11542391035568862,1.278
0.1148133498922333,1.279
0.11420341002443457,1.28
0.11359454214867053,1.281
0.11298721026304498,1.282
0.11238183837630328,1.283
0.11177880124622572,1.284
0.11117844132728945,1.285
0.11058107730289046,1.286
0.10998699011620901,1.287
0.10939639666631477,1.288
0.108809430807112,1.289
0.10822614031407413,1.29
0.10764648932452657,1.291
0.10707035951343802,1.292
0.10649756215606383,1.293
0.10592787219276394,1.294
0.10536107835217577,1.295
0.10479703598025335,1.296
0.10423571125763642,1.297
0.10367720610436053,1.298
0.10312175355715741,1.299
0.10256967783229347,1.3
0.10202133163401746,1.301
0.10147705333865585,1.302
0.1009371797298537,1.303
0.1004020958485398,1.304
0.09987227663826813,1.305
0.09934829878793808,1.306
0.09883082649681196,1.307
0.0983205823333361,1.308
0.09781831356569605,1.309
0.0973247605873524,1.31
0.09684062963225663,1.311
0.09636657020538773,1.312
0.09590316172795373,1.313
0.09545091731281505,1.314
0.09501030520200919,1.315
0.09458177733046214,1.316
0.09416579236593044,1.317
0.0937628245325588,1.318
0.0933733536352437,1.319
0.09299783925706417,1.32
0.09263669524006782,1.321
0.09229028427079847,1.322
0.09195893306960227,1.323
0.09164294881475289,1.324
0.09134262163071326,1.325
0.09105821245554013,1.326
0.09078993306325625,1.327
0.09053792752157343,1.328
0.09030226264331663,1.329
0.090082927012353,1.33
0.08987983245172615,1.331
0.08969281571922708,1.332
0.08952164403753121,1.333
0.08936602796897873,1.334
0.08922564111547861,1.335
0.08910014150351375,1.336
0.08898918605865477,1.337
0.08889242887000975,1.338
0.08880950296707554,1.339
0.08874000678153568,1.34
0.08868352230978627,1.341
0.08863966306616444,1.342
0.08860812264115131,1.343
0.08858869760919132,1.344
0.0885812737461083,1.345
0.08858578112997532,1.346
0.0886021477047936,1.347
0.08863028946664385,1.348
0.08867014116938497,1.349
0.08872169315201123,1.35
0.08878500611901627,1.351
0.0888602026804835,1.352
0.08894744701012018,1.353
0.0890469244874,1.354
0.0891588296841195,1.355
0.08928336519990437,1.356
0.08942074699249102,1.357
0.08957120579188554,1.358
0.08973497303630994,1.359
0.08991225530711174,1.36
0.09010322712293226,1.361
0.09030806339481126,1.362
0.09052699171325937,1.363
0.09076033303447488,1.364
0.09100851996985113,1.365
0.09127209441905683,1.366
0.0915516871314605,1.367
0.09184798202739514,1.368
0.09216167057920259,1.369
0.09249340743021701,1.37
0.09284378225272544,1.371
0.09321331169063356,1.372
0.09360243835387534,1.373
0.09401152669750881,1.374
0.09444085938773335,1.375
0.09489063714042258,1.376
0.09536097902543116,1.377
0.09585192723967038,1.378
0.09636346544276778,1.379
0.09689554933171479,1.38
0.0974481391406908,1.381
0.0980212250659966,1.382
0.09861484013297872,1.383
0.09922905811506498,1.384
0.09986397738805762,1.385
0.10051969421833723,1.386
0.10119627056388185,1.387
0.1018937044262288,1.388
0.10261191367605436,1.389
0.10335073622146156,1.39
0.10410993553264782,1.391
0.10488920067228871,1.392
0.1056881402057446,1.393
0.10650627485065935,1.394
0.10734303429207863,1.395
0.10819776204088076,1.396
0.10906972873507413,1.397
0.1099581502771441,1.398
0.11086220457158237,1.399
0.11178104062195553,1.4
0.11271377628251306,1.401
0.11365948485652402,1.402
0.11461717443435648,1.403
0.115585766700723,1.404
0.1165640821960696,1.405
0.11755083397397258,1.406
0.11854462661751822,1.407
0.11954395885327078,1.408
0.12054722905242914,1.409
0.1215527399085778,1.41
0.12255869790922343,1.411
0.12356320998519842,1.412
0.12456429003635763,1.413
0.12555988634708692,1.414
0.12654792491345102,1.415
0.12752635238440427,1.416
0.12849316192271842,1.417
0.12944638924760885,1.418
0.13038407664779222,1.419
0.131304227144258,1.42
0.132204791053932,1.421
0.1330837029039074,1.422
0.13393894049186597,1.423
0.13476857269185324,1.424
0.135570786872548,1.425
0.13634389836374403,1.426
0.13708634345043672,1.427
0.13779665453981607,1.428
0.1384734143276471,1.429
0.1391151962509854,1.43
0.13972052576531768,1.431
0.14028790075113687,1.432
0.14081586619367054,1.433
0.14130310430114434,1.434
0.1417485110207102,1.435
0.14215124905825907,1.436
0.14251077372901,1.437
0.14282682802875862,1.438
0.14309940311731112,1.439
0.14332866217132545,1.44
0.14351484089187683,1.441
0.1436581743743855,1.442
0.14375890929132557,1.443
0.1438174008159821,1.444
0.14383423394911937,1.445
0.1438103137399715,1.446
0.14374689953656575,1.447
0.14364557614141082,1.448
0.14350816717240386,1.449
0.14333661281750537,1.45
0.1431328589413128,1.451
0.14289881016230796,1.452
0.142636348815593,1.453
0.14234736547351257,1.454
0.14203375818778466,1.455
0.14169740091361238,1.456
0.1413401002579385,1.457
0.1409635596997558,1.458
0.1405693621563589,1.459
0.1401589664583331,1.46
0.13973370628029577,1.461
0.1392947892677147,1.462
0.13884330202741696,1.463
0.13838022197882383,1.464
0.13790643135003933,1.465
0.13742272953879572,1.466
0.13692984300403083,1.467
0.13642843360558812,1.468
0.13591910728394938,1.469
0.13540242525846538,1.47
0.1348789190541082,1.471
0.1343491082208961,1.472
0.13381351592449303,1.473
0.1332726745240783,1.474
0.13272711334654733,1.475
0.1321773279824033,1.476
0.1316237483798677,1.477
0.13106673518665993,1.478
0.13050661276169753,1.479
0.12994371383435344,1.48
0.129378407540033,1.481
0.12881109996084422,1.482
0.12824220810987627,1.483
0.1276721167724698,1.484
0.1271011378739734,1.485
0.1265294908478016,1.486
0.12595730018117196,1.487
0.12538459439713717,1.488
0.12481131312589941,1.489
0.12423734042542078,1.49
0.12366255828033433,1.491
0.12308689743376112,1.492
0.12251036887910652,1.493
0.12193306717599435,1.494
0.12135514159178579,1.495
0.12077674494020146,1.496
0.12019799678798224,1.497
0.11961899989765704,1.498
0.11903990411129248,1.499
0.11846097589072302,1.5
0.11788264156490261,1.501
0.11730549543103129,1.502
0.11673027586404412,1.503
0.11615781765469411,1.504
0.11558899079825445,1.505
0.11502463975014554,1.506
0.1144655433895785,1.507
0.11391240698526622,1.508
0.11336587265390512,1.509
0.11282652623633056,1.51
0.11229489242563663,1.511
0.11177142171505482,1.512
0.11125647558136875,1.513
0.11075031616769446,1.514
0.11025310320073656,1.515
0.10976489862201443,1.516
0.10928568109252691,1.517
0.10881536895060248,1.518
0.10835384217009292,1.519
0.10790095194284549,1.52
0.1074565118091474,1.521
0.10702027540443786,1.522
0.10659191687075724,1.523
0.10617102379902925,1.524
0.1057570991952803,1.525
0.10534957461374271,1.526
0.10494784125129152,1.527
0.10455129046289866,1.528
0.10415934624729173,1.529
0.10377147932545913,1.53
0.10338720006545252,1.531
0.10300603169861525,1.532
0.10262747256963438,1.533
0.10225096820064886,1.534
0.10187591130713931,1.535
0.10150166200737111,1.536
0.10112756329801877,1.537
0.10075293628448334,1.538
0.10037705872365184,1.539
0.09999914516736631,1.54
0.09961834255334143,1.541
0.09923373392896755,1.542
0.09884434485006843,1.543
0.09844917290135471,1.544
0.0980472574025818,1.545
0.09763777103800106,1.546
0.0972200958233493,1.547
0.09679385249866587,1.548
0.09635886741484553,1.549
0.09591508982900707,1.55
0.09546251838584202,1.551
0.09500120144802443,1.552
0.09453130503110693,1.553
0.09405318085000133,1.554
0.09356738507884235,1.555
0.09307464367867407,1.556
0.0925757824644635,1.557
0.0920716490402368,1.558
0.09156305753977624,1.559
0.09105076985520907,1.56
0.09053549491487708,1.561
0.09001788352367053,1.562
0.08949852356914594,1.563
0.08897794879771616,1.564
0.08845665365750267,1.565
0.08793509667233636,1.566
0.08741368936169379,1.567
0.08689278664690964,1.568
0.08637269389535092,1.569
0.0858536848917729,1.57
0.08533601389059513,1.571
0.08481991405833479,1.572
0.08430558618574067,1.573
0.08379318660185134,1.574
0.08328282286971161,1.575
0.0827745611248139,1.576
0.08226844249042994,1.577
0.08176450146838714,1.578
0.08126277837889345,1.579
0.0807633201082734,1.58
0.08026616697450004,1.581
0.07977133035538249,1.582
0.0792787760610351,1.583
0.07878842790945173,1.584
0.07830018870528516,1.585
0.07781396414157624,1.586
0.07732968028747715,1.587
0.07684729295165506,1.588
0.07636678950021879,1.589
0.0758881840533721,1.59
0.07541150739763751,1.591
0.07493679339112463,1.592
0.07446406373079947,1.593
0.07399331223403961,1.594
0.07352448989733736,1.595
0.07305749606416187,1.596
0.07259218429532159,1.597
0.07212838512644983,1.598
0.07166593753393591,1.599
0.07120471791320296,1.6
0.07074465773178225,1.601
0.07028574365304616,1.602
0.06982799777503666,1.603
0.0693714443601427,1.604
0.06891608118904824,1.605
0.06846187054953125,1.606
0.06800874200006855,1.607
0.06755659008297311,1.608
0.06710526993040877,1.609
0.06665460405859518,1.61
0.06620439563999102,1.611
0.0657544312970799,1.612
0.06530447392339515,1.613
0.06485426890011574,1.614
0.06440357790600988,1.615
0.06395222419783926,1.616
0.06350012413981343,1.617
0.06304729255403099,1.618
0.06259382069539349,1.619
0.06213983545189217,1.62
0.06168546288680051,1.621
0.06123082174843396,1.622
0.06077604734406557,1.623
0.06032132109700506,1.624
0.05986688563712996,1.625
0.05941304185886597,1.626
0.058960131941477145,1.627
0.058508513742974506,1.628
0.05805853324097512,1.629
0.05761050403222314,1.63
0.0571647008962623,1.631
0.05672136444102321,1.632
0.0562807067813763,1.633
0.05584291206762093,1.634
0.055408132187696184,1.635
0.05497648025123783,1.636
0.05454802436111629,1.637
0.05412278345156061,1.638
0.053700725827841155,1.639
0.05328176993733041,1.64
0.05286578644073076,1.641
0.052452601163962394,1.642
0.052041999583446304,1.643
0.0516337341455248,1.644
0.051227535223566024,1.645
0.05082312501571515,1.646
0.05042023193551139,1.647
0.05001860175350978,1.648
0.049618001245357216,1.649
0.04921821052597579,1.65
0.04881900642868201,1.651
0.048420153094897896,1.652
0.04802141746005359,1.653
0.047622606124226564,1.654
0.04722360332970571,1.655
0.04682439315244654,1.656
0.04642505862764407,1.657
0.04602575810021765,1.658
0.04562668716990902,1.659
0.045228044248684145,1.66
0.04483001821401395,1.661
0.0444327979982393,1.662
0.04403658652427886,1.663
0.043641606649641146,1.664
0.0432481000093576,1.665
0.0428563235196619,1.666
0.04246654614462594,1.667
0.04207904594587664,1.668
0.04169410591468376,1.669
0.041312007103642724,1.67
0.040933018683827226,1.671
0.04055738696620963,1.672
0.040185328142427416,1.673
0.03981702729733255,1.674
0.03945263965001035,1.675
0.03909228983187676,1.676
0.03873607261463215,1.677
0.0383840599887465,1.678
0.038036312044461264,1.679
0.03769288525558375,1.68
0.03735383438376401,1.681
0.03701920704321648,1.682
0.03668903460228642,1.683
0.036363329979103715,1.684
0.03604209964208425,1.685
0.03572536357587437,1.686
0.03541317173266915,1.687
0.03510561103958215,1.688
0.03480280238169546,1.689
0.034504890024718966,1.69
0.034212027613081925,1.691
0.03392436464420876,1.692
0.03364203571372573,1.693
0.03336515290487901,1.694
0.033093801064910326,1.695
0.03282803688643976,1.696
0.032567892882766826,1.697
0.03231338544258772,1.698
0.03206452523876488,1.699
0.0318213287232324,1.7
0.031583829259757626,1.701
0.03135208575624334,1.702
0.031126186322346566,1.703
0.03090624484936283,1.704
0.030692389619998695,1.705
0.030484747629220755,1.706
0.030283435494493124,1.707
0.03008856491096799,1.708
0.029900256581258396,1.709
0.029718650990712428,1.71
0.02954391074555179,1.711
0.029376214840298467,1.712
0.029215747276038387,1.713
0.029062684011746446,1.714
0.02891718364786653,1.715
0.028779385136726423,1.716
0.028649410041411145,1.717
0.028527364318423697,1.718
0.028413337336638807,1.719
0.028307398788854677,1.72
0.028209595351928747,1.721
0.028119949077094038,1.722
0.028038457838632264,1.723
0.027965096080916806,1.724
0.027899814486762382,1.725
0.027842539411694373,1.726
0.027793173862339544,1.727
0.027751600374958586,1.728
0.02771768449368322,1.729
0.027691277553937344,1.73
0.027672218358333004,1.731
0.02766033397246582,1.732
0.027655440238500816,1.733
0.027657342727766925,1.734
0.027665838594021924,1.735
0.027680719142352348,1.736
0.02770177208799351,1.737
0.0277287817953459,1.738
0.027761525732188496,1.739
0.027799768515534395,1.74
0.02784326090858655,1.741
0.02789174969494989,1.742
0.027944994025025784,1.743
0.02800277882285013,1.744
0.028064919252793193,1.745
0.028131254373849477,1.746
0.028201632563318337,1.747
0.028275897547335085,1.748
0.02835388482583536,1.749
0.028435428126644513,1.75
0.028520365742317158,1.751
0.02860853889192754,1.752
0.028699783179052175,1.753
0.028793921470550772,1.754
0.028890765704981145,1.755
0.028990125812330892,1.756
0.029091818010247163,1.757
0.029195667372995702,1.758
0.02930150341561036,1.759
0.02940915069595418,1.76
0.029518421537602143,1.761
0.029629118487514833,1.762
0.029741045613867274,1.763
0.029854020751036017,1.764
0.029967882531506524,1.765
0.03008249025094182,1.766
0.030197716750254008,1.767
0.030313436044796797,1.768
0.03042951039883031,1.769
0.030545783592604382,1.77
0.030662081869086574,1.771
0.03077821585322473,1.772
0.030893978358448915,1.773
0.031009141796969866,1.774
0.03112346042527237,1.775
0.031236675164732063,1.776
0.0313485146349522,1.777
0.03145869261454977,1.778
0.031566911294059,1.779
0.03167287692890338,1.78
0.03177632216115198,1.781
0.031877023993899765,1.782
0.03197481003357847,1.783
0.0320695497019832,1.784
0.03216113382902106,1.785
0.032249457873909836,1.786
0.03233442517212713,1.787
0.03241596773796975,1.788
0.032494066861173516,1.789
0.03256876066395816,1.79
0.03264013680832331,1.791
0.032708314095375605,1.792
0.03277341954062064,1.793
0.032835570254087204,1.794
0.03289486748333277,1.795
0.0329514008926354,1.796
0.03300525465241766,1.797
0.033056510179121444,1.798
0.033105245712789944,1.799
0.033151534297237155,1.8
0.033195441143075134,1.801
0.033237020711612865,1.802
0.03327631343397129,1.803
0.033313341923575164,1.804
0.03334810681487528,1.805
0.033380582773741126,1.806
0.03341071555561086,1.807
0.03343842109364792,1.808
0.033463587410835355,1.809
0.033486079620884804,1.81
0.03350574738565413,1.811
0.03352243298050678,1.812
0.03353597682667709,1.813
0.03354621654815548,1.814
0.03355298006978289,1.815
0.03355608420783388,1.816
0.03355535055452306,1.817
0.03355063416582882,1.818
0.0335418503959849,1.819
0.03352898929340952,1.82
0.033512112801547055,1.821
0.03349133381041052,1.822
0.03346678591747448,1.823
0.03343860737732101,1.824
0.03340695466071507,1.825
0.033372030765086186,1.826
0.03333410408220863,1.827
0.033293508914659466,1.828
0.03325063038686555,1.829
0.03320588011419686,1.83
0.03315967111207671,1.831
0.03311240144458623,1.832
0.033064450767161566,1.833
0.03301618403176336,1.834
0.03296795424953904,1.835
0.032920101731023145,1.836
0.03287295113751007,1.837
0.0328268080714089,1.838
0.03278195641162146,1.839
0.03273865702473331,1.84
0.03269714797371591,1.841
0.03265764596056921,1.842
0.032620348471601175,1.843
0.03258543591409453,1.844
0.032553072946277926,1.845
0.032523408263234445,1.846
0.03249657236289635,1.847
0.03247267369135627,1.848
0.03245179534533366,1.849
0.03243399511125476,1.85
0.03241930901510574,1.851
0.03240775575701844,1.852
0.0323993397331571,1.853
0.03239405202574747,1.854
0.032391869523375354,1.855
0.03239275244153552,1.856
0.0323966404450939,1.857
0.03240344839530297,1.858
0.03241306459711956,1.859
0.03242535355665675,1.86
0.032440161281614234,1.861
0.032457319568676576,1.862
0.03247664720851423,1.863
0.032497947319585496,1.864
0.03252100221240175,1.865
0.03254557083186919,1.866
0.03257139271209518,1.867
0.032598195714493294,1.868
0.03262570171216958,1.869
0.032653626716891,1.87
0.03268167549333932,1.871
0.03270953564605837,1.872
0.03273687868141602,1.873
0.03276336963651096,1.874
0.032788679099271946,1.875
0.0328124912209364,1.876
0.03283450532905598,1.877
0.032854431124988814,1.878
0.03287197839375115,1.879
0.03288684478810449,1.88
0.03289870971946452,1.881
0.03290724013867214,1.882
0.032912104270934654,1.883
0.03291298527892208,1.884
0.03290959004524872,1.885
0.032901650669735244,1.886
0.032888917312905504,1.887
0.03287114416869863,1.888
0.032848076684077784,1.889
0.032819450240718764,1.89
0.03278500080163565,1.891
0.03274447720071652,1.892
0.03269764549824183,1.893
0.03264428208029883,1.894
0.03258416003303653,1.895
0.032517043744778346,1.896
0.032442703150577734,1.897
0.032360939535179295,1.898
0.03227160613985549,1.899
0.03217461329182119,1.9
0.032069914494051416,1.901
0.03195748181419605,1.902
0.031837295597569586,1.903
0.03170936475697223,1.904
0.03157376202574225,1.905
0.03143064890781845,1.906
0.0312802799357236,1.907
0.031122986854036742,1.908
0.0309591482233554,1.909
0.030789157426751017,1.91
0.030613407644002257,1.911
0.030432300032401285,1.912
0.030246260455160497,1.913
0.0300557489370187,1.914
0.029861258594831505,1.915
0.029663306937992635,1.916
0.02946242293251478,1.917
0.029259133021423443,1.918
0.02905394907094605,1.919
0.028847360905362204,1.92
0.02863983387978576,1.921
0.028431808792812447,1.922
0.028223701426722776,1.923
0.02801590159575451,1.924
0.02780877305461677,1.925
0.027602655291305764,1.926
0.02739786716828171,1.927
0.02719471123085425,1.928
0.026993476812123773,1.929
0.026794440225551424,1.93
0.026597861984797112,1.931
0.026403984025320765,1.932
0.02621303062315415,1.933
0.026025212669841754,1.934
0.02584073121676664,1.935
0.025659777091801225,1.936
0.025482527009759216,1.937
0.025309140023207315,1.938
0.02513975774404014,1.939
0.024974507103873632,1.94
0.024813501902027146,1.941
0.024656841484345188,1.942
0.02450460764730846,1.943
0.024356862214988156,1.944
0.024213647185868683,1.945
0.02407498704423095,1.946
0.023940891272100164,1.947
0.023811355396203698,1.948
0.023686359902271772,1.949
0.0235658682605826,1.95
0.023449827233885258,1.951
0.023338170884060424,1.952
0.023230825608366763,1.953
0.023127712769984,1.954
0.023028747817039723,1.955
0.02293383661872639,1.956
0.022842870682611326,1.957
0.02275572345443188,1.958
0.02267224906939272,1.959
0.02259228275388399,1.96
0.022515641015505187,1.961
0.022442120948192392,1.962
0.022371499613106884,1.963
0.022303534592259328,1.964
0.02223796557582036,1.965
0.02217451600280983,1.966
0.02211289394038572,1.967
0.022052791663733445,1.968
0.021993884456357988,1.969
0.02193583158040359,1.97
0.021878282602659397,1.971
0.021820888866577473,1.972
0.021763317284664116,1.973
0.0217052631860598,1.974
0.021646458651459442,1.975
0.021586672838333102,1.976
0.021525702128250893,1.977
0.021463354016031052,1.978
0.02139943864189159,1.979
0.021333778822768473,1.98
0.021266231639860016,1.981
0.021196707115475454,1.982
0.021125176617283983,1.983
0.02105166988460395,1.984
0.020976262110794834,1.985
0.02089905425580308,1.986
0.020820152947508514,1.987
0.02073966003806865,1.988
0.02065767631208794,1.989
0.020574311746445854,1.99
0.02048969286708013,1.991
0.020403964293775483,1.992
0.020317284860601508,1.993
0.0202298192232985,1.994
0.020141727789275966,1.995
0.020053160421622772,1.996
0.019964256641212666,1.997
0.01987514783264097,1.998
0.01978595654980415,1.999
0.01969679549331058,2.0
0.01960777168077847,2.001
0.019518995293289907,2.002
0.019430587133792993,2.003
0.019342679728123473,2.004
0.01925541128616828,2.005
0.019168916617409448,2.006
0.019083322229960578,2.007
0.018998748195938726,2.008
0.01891531142916567,2.009
0.01883312511625054,2.01
0.018752294511549934,2.011
0.01867291197814237,2.012
0.018595053804525995,2.013
0.018518779931164027,2.014
0.01844413669622833,2.015
0.018371162273452757,2.016
0.018299893540291046,2.017
0.01823037227606515,2.018
0.01816264872483985,2.019
0.018096781208191796,2.02
0.018032831303509682,2.021
0.01797085659104754,2.022
0.017910906825510928,2.023
0.017853027767274748,2.024
0.017797269360519764,2.025
0.01774369195934382,2.026
0.01769236759941481,2.027
0.01764337639175906,2.028
0.017596799558153454,2.029
0.017552711789231578,2.03
0.017511176312244796,2.031
0.017472244338922145,2.032
0.01743595716571219,2.033
0.017402348306328412,2.034
0.01737144461631079,2.035
0.017343266259506877,2.036
0.017317825268774237,2.037
0.01729512303720277,2.038
0.017275148801748443,2.039
0.017257881351845968,2.04
0.017243293412182396,2.041
0.01723135600078296,2.042
0.017222040586058234,2.043
0.01721531812840038,2.044
0.01721115525772738,2.045
0.017209509851425154,2.046
0.017210329822102348,2.047
0.01721355656428224,2.048
0.01721913027460889,2.049
0.017226993768407948,2.05
0.017237093577653555,2.051
0.017249378559888662,2.052
0.017263796939271343,2.053
0.01728029309414328,2.054
0.017298805218112237,2.055
0.01731926427820567,2.056
0.017341593880268697,2.057
0.017365710154528754,2.058
0.01739152075777552,2.059
0.01741892276536872,2.06
0.017447800750063375,2.061
0.01747802715472399,2.062
0.01750946535582055,2.063
0.017541973573280148,2.064
0.017575407811503175,2.065
0.01760962336565747,2.066
0.017644475367612853,2.067
0.017679819301991095,2.068
0.017715512478388446,2.069
0.01775141697976525,2.07
0.017787403731901855,2.071
0.017823356387114825,2.072
0.017859173122527983,2.073
0.017894764554571434,2.074
0.01793004712875342,2.075
0.01796493497758705,2.076
0.017999337300777195,2.077
0.01803316498028752,2.078
0.018066341606371716,2.079
0.018098812250130217,2.08
0.01813054753681538,2.081
0.018161543202746062,2.082
0.018191816004338803,2.083
0.018221397224164437,2.084
0.018250325171388502,2.085
0.018278638011085722,2.086
0.018306367910667278,2.087
0.018333536860330745,2.088
0.018360153801501213,2.089
0.018386212755770008,2.09
0.01841169290895861,2.091
0.018436561982300124,2.092
0.01846078265122834,2.093
0.018484320570459237,2.094
0.018507152548025346,2.095
0.01852927342007846,2.096
0.018550700197616184,2.097
0.018571472445035847,2.098
0.01859164850047925,2.099
0.018611297830192202,2.1
0.018630491306004016,2.101
0.01864929419514784,2.102
0.018667767063590586,2.103
0.018685974353607526,2.104
0.018703995337486578,2.105
0.01872193274994665,2.106
0.018739916942784936,2.107
0.018758104665762578,2.108
0.0187766723950095,2.109
0.018795805470178936,2.11
0.018815687325851337,2.111
0.01883649549543568,2.112
0.018858406414065283,2.113
0.018881603097303922,2.114
0.01890627923102855,2.115
0.018932638086824903,2.116
0.018960887591027518,2.117
0.018991233574359688,2.118
0.019023873143992762,2.119
0.01905898957095798,2.12
0.019096749340303504,2.121
0.019137301042407382,2.122
0.01918077524848547,2.123
0.019227284850433665,2.124
0.01927692558891514,2.125
0.019329776316311463,2.126
0.019385898732978784,2.127
0.01944533700308446,2.128
0.01950811796727508,2.129
0.019574252033258327,2.13
0.01964373399600625,2.131
0.0197165429715934,2.132
0.01979264150932138,2.133
0.019871975290501276,2.134
0.01995447467453269,2.135
0.020040057349684517,2.136
0.020128630249994662,2.137
0.020220089468676244,2.138
0.020314318300205303,2.139
0.02041118582191591,2.14
0.02051054904184276,2.141
0.020612258697592794,2.142
0.020716166053457902,2.143
0.02082212826800494,2.144
0.02093001112228176,2.145
0.021039688661979167,2.146
0.02115103997752498,2.147
0.02126394405684672,2.148
0.021378274116281355,2.149
0.02149389275541957,2.15
0.021610648625946416,2.151
0.021728374299098314,2.152
0.02184688481919205,2.153
0.02196597807797875,2.154
0.02208543932122035,2.155
0.022205050305430827,2.156
0.022324601082864746,2.157
0.02244390154001657,2.158
0.02256279005577295,2.159
0.022681137290057832,2.16
0.02279884405033923,2.161
0.02291583322816084,2.162
0.023032037029702607,2.163
0.023147383582605482,2.164
0.023261789853309216,2.165
0.02337516338235267,2.166
0.023487406823235198,2.167
0.02359841907403567,2.168
0.02370809282866083,2.169
0.023816311456579156,2.17
0.023922947943917583,2.171
0.024027867362018958,2.172
0.024130932632688323,2.173
0.02423201196842186,2.174
0.0243309857461309,2.175
0.024427750769323228,2.176
0.024522220603283018,2.177
0.024614321570465742,2.178
0.02470398483160951,2.179
0.024791136456591135,2.18
0.02487568993003406,2.181
0.02495754545405461,2.182
0.0250365952922248,2.183
0.02511273026309214,2.184
0.025185843772962315,2.185
0.025255832518967913,2.186
0.025322594035731595,2.187
0.025386021492876717,2.188
0.025445996975232883,2.189
0.025502386381394626,2.19
0.025555039281536348,2.191
0.025603793230920067,2.192
0.025648478358355847,2.193
0.025688918453441727,2.194
0.025724927833740228,2.195
0.025756307942365764,2.196
0.025782850406186997,2.197
0.02580434858912583,2.198
0.02582061224509949,2.199
0.025831478338225192,2.2
0.025836813815359037,2.201
0.025836508596628782,2.202
0.025830461467992647,2.203
0.025818569128844584,2.204
0.025800729006716885,2.205
0.025776854222863202,2.206
0.025746889602148364,2.207
0.025710820389507266,2.208
0.025668671111381495,2.209
0.025620494642171796,2.21
0.02556635523841354,2.211
0.02550631614169705,2.212
0.02544044179754526,2.213
0.025368811707189,2.214
0.02529153365099078,2.215
0.02520874783995784,2.216
0.025120620439311327,2.217
0.02502732944388426,2.218
0.024929051159105483,2.219
0.02482595735391254,2.22
0.02471822441421364,2.221
0.024606045485009165,2.222
0.02448963719448372,2.223
0.024369238778809886,2.224
0.024245104644633714,2.225
0.02411749272441327,2.226
0.023986653506847918,2.227
0.02385282638121731,2.228
0.023716245309478096,2.229
0.023577148458291286,2.23
0.02343578570075912,2.231
0.023292421650525266,2.232
0.02314733382512351,2.233
0.023000806150925143,2.234
0.022853119654915623,2.235
0.02270454513785755,2.236
0.022555342682312605,2.237
0.022405767240341077,2.238
0.022256074906721292,2.239
0.022106525943697674,2.24
0.021957383938088573,2.241
0.021808911939543787,2.242
0.0216613667785464,2.243
0.021514993154721433,2.244
0.021370019675094196,2.245
0.021226658193808853,2.246
0.021085105223500166,2.247
0.020945542932423525,2.248
0.020808138462618198,2.249
0.020673042215511906,2.25
0.020540387010098027,2.251
0.020410289090242777,2.252
0.020282849516771232,2.253
0.020158154259609068,2.254
0.020036273989852298,2.255
0.019917266463522862,2.256
0.0198011826948669,2.257
0.019688074987517273,2.258
0.019578003884072055,2.259
0.019471041892319317,2.26
0.019367272800343813,2.261
0.019266786348705062,2.262
0.019169670152744643,2.263
0.019076004145883448,2.264
0.01898586226076831,2.265
0.018899319692564944,2.266
0.01881645999587796,2.267
0.018737378239905445,2.268
0.018662179501773384,2.269
0.018590973499351557,2.27
0.01852386706379085,2.271
0.018460957113096265,2.272
0.018402326874464126,2.273
0.018348045455553914,2.274
0.018298168031634653,2.275
0.018252735346684094,2.276
0.01821177424465167,2.277
0.018175300432493956,2.278
0.018143322175475176,2.279
0.018115842985511277,2.28
0.01809286224400996,2.281
0.018074373349585064,2.282
0.0180603601987583,2.283
0.018050795092845837,2.284
0.018045640990560722,2.285
0.018044857259262508,2.286
0.018048405859067695,2.287
0.01805625609495236,2.288
0.01806838748504651,2.289
0.018084790645119607,2.29
0.01810546601741297,2.291
0.01813042017896879,2.292
0.018159659672045206,2.293
0.018193184081345886,2.294
0.018230982764905753,2.295
0.01827303772258469,2.296
0.018319329267209618,2.297
0.018369839876012314,2.298
0.018424554785815547,2.299
0.01848345996792705,2.3
0.018546538665843777,2.301
0.018613767817922594,2.302
0.0186851154649084,2.303
0.018760539766924413,2.304
0.018839989640727608,2.305
0.01892340641373993,2.306
0.01901072544329214,2.307
0.019101876523214684,2.308
0.019196782186361647,2.309
0.01929535430842266,2.31
0.019397491623003884,2.311
0.01950308073587175,2.312
0.019611999962258046,2.313
0.01972412336501708,2.314
0.019839323581591132,2.315
0.019957473394505702,2.316
0.020078446151374062,2.317
0.02020211486528105,2.318
0.020328349742727934,2.319
0.020457014165205047,2.32
0.020587959927139347,2.321
0.02072102360312388,2.322
0.02085602567668834,2.323
0.02099277191797087,2.324
0.021131055099968914,2.325
0.021270655918985807,2.326
0.021411343045374235,2.327
0.02155287244211305,2.328
0.021694986039636426,2.329
0.02183740995032644,2.33
0.02197985258524973,2.331
0.022122003153526176,2.332
0.02226353099142274,2.333
0.022404086003437226,2.334
0.022543300290051676,2.335
0.02268079087265908,2.336
0.022816163324061438,2.337
0.022949016010337026,2.338
0.023078944465283985,2.339
0.02320554512852818,2.34
0.023328417342172048,2.341
0.023447162259419965,2.342
0.023561377978387768,2.343
0.023670653845586198,2.344
0.023774571174105967,2.345
0.023872714409711133,2.346
0.023964688059487274,2.347
0.02405013181966067,2.348
0.024128729295557653,2.349
0.024200208075256788,2.35
0.02426433037424312,2.351
0.024320876495468827,2.352
0.024369629635114493,2.353
0.0244103736389789,2.354
0.02444290583843531,2.355
0.02446705471582242,2.356
0.024482692039967554,2.357
0.024489735792354982,2.358
0.024488143783137628,2.359
0.02447789918818622,2.36
0.024458992624144305,2.361
0.02443141090842126,2.362
0.024395140410239543,2.363
0.02435018092877689,2.364
0.02429656000277728,2.365
0.024234341811356287,2.366
0.024163629062591317,2.367
0.024084557390307165,2.368
0.023997282408864437,2.369
0.023901963601967387,2.37
0.023798756303790906,2.371
0.023687819775018337,2.372
0.023569334980719652,2.373
0.02344352028986473,2.374
0.023310639339854927,2.375
0.023171000040051664,2.376
0.02302494550405532,2.377
0.022872839097926163,2.378
0.022715047926631697,2.379
0.022551931950413325,2.38
0.02238384362698262,2.381
0.02221113470557542,2.382
0.022034162974867884,2.383
0.021853295332435546,2.384
0.02166890718081554,2.385
0.021481379192314368,2.386
0.021291092653730373,2.387
0.02109842457515436,2.388
0.02090374351706274,2.389
0.02070740668885222,2.39
0.020509758397556636,2.391
0.020311129526979076,2.392
0.020111837535531914,2.393
0.01991218650337101,2.394
0.019712466949377238,2.395
0.019512955353318453,2.396
0.01931391347127532,2.397
0.019115587582011543,2.398
0.018918207748912397,2.399
0.01872198713711127,2.4
0.018527121598588724,2.401
0.018333789968851794,2.402
0.0181421552849089,2.403
0.017952366623669565,2.404
0.017764561142145894,2.405
0.01757886608169464,2.406
0.017395400574530394,2.407
0.017214277068971964,2.408
0.017035602157537622,2.409
0.016859476557468223,2.41
0.016685993976098268,2.411
0.016515238885483004,2.412
0.01634728442894843,2.413
0.016182192756355105,2.414
0.016020018594985024,2.415
0.015860814019390112,2.416
0.015704631750065638,2.417
0.015551525588700847,2.418
0.015401547755275538,2.419
0.01525474441494831,2.42
0.015111152729124059,2.421
0.014970802120516226,2.422
0.014833718685466403,2.423
0.01469992987527744,2.424
0.01456946795437797,2.425
0.014442371973925311,2.426
0.014318688104091362,2.427
0.014198468057098476,2.428
0.014081765445544415,2.429
0.013968630760764912,2.43
0.013859107307056716,2.431
0.013753230579407373,2.432
0.013651030668565331,2.433
0.01355253483854668,2.434
0.013457768306970437,2.435
0.013366753167004378,2.436
0.013279506187157737,2.437
0.013196036304466231,2.438
0.01311634247738815,2.439
0.013040412285686165,2.44
0.012968221375787905,2.441
0.012899733647547483,2.442
0.012834902011256536,2.443
0.01277366960673719,2.444
0.012715971502560394,2.445
0.01266173697545835,2.446
0.0126108924156015,2.447
0.012563364684270762,2.448
0.012519084420073861,2.449
0.012477988482966539,2.45
0.012440020626690121,2.451
0.01240512973923844,2.452
0.0123732656405877,2.453
0.012344374099989357,2.454
0.012318394639919312,2.455
0.01229526303440228,2.456
0.012274916169153887,2.457
0.012257296103237753,2.458
0.0122423523543314,2.459
0.012230042620085682,2.46
0.01222033226745358,2.461
0.012213192915687461,2.462
0.012208600388916593,2.463
0.01220653227732601,2.464
0.012206965335399394,2.465
0.012209872942579346,2.466
0.012215222820069128,2.467
0.012222975108090466,2.468
0.012233080780069926,2.469
0.012245480487238877,2.47
0.012260104405841195,2.471
0.012276873708854176,2.472
0.012295703623386207,2.473
0.012316507575160826,2.474
0.012339201799731121,2.475
0.012363709557245972,2.476
0.012389963928083909,2.477
0.012417908356275185,2.478
0.012447494574422123,2.479
0.012478678109483193,2.48
0.012511412622829465,2.481
0.012545645916223175,2.482
0.012581319992292075,2.483
0.012618374250739788,2.484
0.01265674890951399,2.485
0.012696386904281199,2.486
0.012737234056085293,2.487
0.012779237824023038,2.488
0.012822345106989909,2.489
0.012866499617501583,2.49
0.012911639289430126,2.491
0.01295769402700117,2.492
0.013004583919945063,2.493
0.013052217942267946,2.494
0.013100493198595634,2.495
0.013149294790781663,2.496
0.01319849613131489,2.497
0.013247959293748555,2.498
0.013297535054617176,2.499
0.01334706256940257,2.5
0.013396369048007527,2.501
0.013445270006667098,2.502
0.013493570256762583,2.503
0.013541065195180781,2.504
0.013587541788485803,2.505
0.013632778678464935,2.506
0.013676545351320856,2.507
0.013718601947093465,2.508
0.013758702208284904,2.509
0.013796600327302629,2.51
0.013832060161534791,2.511
0.013864864635195342,2.512
0.013894823246219414,2.513
0.013921775668854218,2.514
0.01394558987325254,2.515
0.01396615414132367,2.516
0.013983365586895606,2.517
0.013997123187278533,2.518
0.014007332112044843,2.519
0.014013916324726112,2.52
0.014016831288031273,2.521
0.014016072059683776,2.522
0.014011675780437343,2.523
0.0140037188597542,2.524
0.013992309804985956,2.525
0.013977579081875819,2.526
0.013959667600913585,2.527
0.013938716164711562,2.528
0.013914859373900997,2.529
0.013888225648924352,2.53
0.01385894061998855,2.531
0.013827130159239231,2.532
0.013792921885903218,2.533
0.013756445635164453,2.534
0.01371783356177609,2.535
0.013677220394303231,2.536
0.013634744124548924,2.537
0.01359054715796304,2.538
0.013544777693218601,2.539
0.01349759088931073,2.54
0.013449149290891622,2.541
0.013399622066309503,2.542
0.013349182843346762,2.543
0.013298006223574297,2.544
0.013246263400013638,2.545
0.013194118096127881,2.546
0.013141724825772564,2.547
0.013089230208586447,2.548
0.01303677562992752,2.549
0.01298449928438159,2.55
0.012932537043045844,2.551
0.012881022311756082,2.552
0.012830085178457126,2.553
0.012779851225329143,2.554
0.012730440381439573,2.555
0.01268196610187685,2.556
0.012634535002856231,2.557
0.012588246916663477,2.558
0.012543195210791041,2.559
0.012499467168819084,2.56
0.01245714425576926,2.561
0.012416302161963587,2.562
0.012377010589503154,2.563
0.012339332773103345,2.564
0.01230332471026526,2.565
0.012269034051480707,2.566
0.012236498838320628,2.567
0.012205746846697924,2.568
0.012176796227244747,2.569
0.012149657095633268,2.57
0.01212433310861964,2.571
0.0121008224215653,2.572
0.012079117942613158,2.573
0.012059207100728296,2.574
0.012041071471161655,2.575
0.012024686538686899,2.576
0.01201002167561624,2.577
0.011997040183684167,2.578
0.01198569911600426,2.579
0.01197594862927962,2.58
0.011967730796636256,2.581
0.011960978212388916,2.582
0.011955613209655562,2.583
0.011951548271779239,2.584
0.011948687302062503,2.585
0.011946927091123515,2.586
0.011946158624470548,2.587
0.011946267966950828,2.588
0.01194713637724608,2.589
0.01194863936485178,2.59
0.01195064495757198,2.591
0.011953012531923428,2.592
0.011955593631733385,2.593
0.011958234505289876,2.594
0.011960778759318032,2.595
0.0119630687845353,2.596
0.011964945287922331,2.597
0.011966245051736057,2.598
0.011966798657332904,2.599
0.011966430972801183,2.6
0.011964965322336676,2.601
0.011962229350363354,2.602
0.011958060172802746,2.603
0.011952307553652643,2.604
0.011944834460189338,2.605
0.01193551456503106,2.606
0.011924226846484025,2.607
0.011910849735137907,2.608
0.011895259952532457,2.609
0.011877338644930346,2.61
0.011856981126305144,2.611
0.011834104927863779,2.612
0.011808653692151234,2.613
0.011780596584816878,2.614
0.011749923882151136,2.615
0.011716639946919634,2.616
0.011680754942810097,2.617
0.011642277565821646,2.618
0.0116012124530567,2.619
0.011557563862177265,2.62
0.011511342667141274,2.621
0.011462572808423065,2.622
0.01141129551015499,2.623
0.011357570799992103,2.624
0.011301476245776324,2.625
0.011243103273409437,2.626
0.011182551822106531,2.627
0.01111992428381579,2.628
0.011055319922903708,2.629
0.010988831445241482,2.63
0.010920544823871513,2.631
0.01085054156033106,2.632
0.010778901573494546,2.633
0.010705705629128221,2.634
0.010631036984927214,2.635
0.010554982118942756,2.636
0.010477630496788527,2.637
0.010399073447047366,2.638
0.010319402286800507,2.639
0.010238705854519544,2.64
0.010157067859445968,2.641
0.010074565157291918,2.642
0.00999126811996385,2.643
0.009907242889089748,2.644
0.009822554118204138,2.645
0.009737267033262132,2.646
0.009651448264084036,2.647
0.009565165162452193,2.648
0.009478483595341699,2.649
0.00939146529725054,2.65
0.009304167235254561,2.651
0.009216644319192986,2.652
0.009128953728509016,2.653
0.009041158243260029,2.654
0.00895332728496489,2.655
0.008865535410977433,2.656
0.008777858718403118,2.657
0.00869037090182051,2.658
0.008603141676111585,2.659
0.008516238506281778,2.66
0.008429729521837178,2.661
0.00834368521704241,2.662
0.008258178235377379,2.663
0.008173281426070897,2.664
0.008089065032284478,2.665
0.008005595016089759,2.666
0.00792293403288221,2.667
0.007841144034518022,2.668
0.007760288208012802,2.669
0.007680430890047508,2.67
0.007601635608854752,2.671
0.00752396310776838,2.672
0.007447471633512704,2.673
0.007372219492487559,2.674
0.007298267657104697,2.675
0.007225680672345612,2.676
0.007154525660322462,2.677
0.007084870016385466,2.678
0.007016778692682066,2.679
0.006950312189835607,2.68
0.006885526037364821,2.681
0.006822471442430519,2.682
0.006761196084249499,2.683
0.006701744392202742,2.684
0.00664415722107489,2.685
0.006588471082108732,2.686
0.006534717300794132,2.687
0.0064829216322960515,2.688
0.006433104489302293,2.689
0.0063852813276478295,2.69
0.006339462739078643,2.691
0.006295654232535623,2.692
0.0062538559123331006,2.693
0.006214062245518191,2.694
0.006176261988402105,2.695
0.006140438198794523,2.696
0.006106568219884125,2.697
0.0060746236165938215,2.698
0.0060445701471692715,2.699
0.006016367896038727,2.7
0.005989971720543814,2.701
0.005965332077919416,2.702
0.005942396062571487,2.703
0.005921108288183195,2.704
0.00590141119881295,2.705
0.00588324459596437,2.706
0.0058665449372891955,2.707
0.005851245722930133,2.708
0.005837279598289563,2.709
0.005824581236302586,2.71
0.0058130896349550465,2.711
0.005802749106262392,2.712
0.0057935088181144435,2.713
0.0057853211496179365,2.714
0.005778139415254547,2.715
0.005771915602033543,2.716
0.0057665986392171934,2.717
0.005762133456735192,2.718
