VaMe,time
0.0004021532884329843,0.001
0.00045148195327298463,0.002
0.0005013953485801905,0.003
0.0005518713603743946,0.004
0.0006028883988051646,0.005
0.0006544257826099087,0.006
0.0007064640178204288,0.007
0.0007589849106868427,0.008
0.0008119714983221409,0.009
0.0008654078363421781,0.01
0.000919278718512966,0.011
0.0009735693993261682,0.012
0.0010282653537457445,0.013
0.0010833520672719633,0.014
0.001138814827902525,0.015
0.0011946384961425249,0.016
0.0012508072565798267,0.017
0.0013073043929078708,0.018
0.0013641121496464487,0.019
0.0014212117179544371,0.02
0.001478583313847092,0.021
0.0015362062519667695,0.022
0.0015940589061197664,0.023
0.0016521185421731403,0.024
0.001710361177164187,0.025
0.0017687616170301008,0.026
0.0018272936048410982,0.027
0.0018859299132947549,0.028
0.0019446423476667568,0.029
0.002003401760076038,0.03
0.0020621782004125004,0.031
0.0021209412721658865,0.032
0.0021796606682146394,0.033
0.0022383067808314974,0.034
0.0022968512433730066,0.035
0.002355267272342411,0.036
0.0024135297215259945,0.037
0.002471614816215844,0.038
0.002529499594673855,0.039
0.0025871611353058166,0.04
0.0026445756825613613,0.041
0.00270171788103978,0.042
0.0027585604625742126,0.043
0.002815074577952328,0.044
0.002871230597367278,0.045
0.0029269991398124173,0.046
0.0029823522559279084,0.047
0.00303726470728039,0.048
0.0030917151818896102,0.049
0.003145687185638191,0.05
0.00319916929906001,0.051
0.003252154527156128,0.052
0.0033046386067911142,0.053
0.0033566178042838722,0.054
0.003408087829772039,0.055
0.0034590449857033506,0.056
0.003509488508635563,0.057
0.0035594223081508794,0.058
0.003608855246992114,0.059
0.00365779985029108,0.06
0.003706270004021807,0.061
0.0037542791962689092,0.062
0.0038018406371956156,0.063
0.003848968700260661,0.064
0.0038956800073222018,0.065
0.0039419932161495665,0.066
0.003987927599445483,0.067
0.0040335011776270755,0.068
0.004078729569405364,0.069
0.004123626044187809,0.07
0.00416820199878289,0.071
0.0042124670429641515,0.072
0.004256428734662827,0.073
0.004300092391153588,0.074
0.004343461288235052,0.075
0.004386537293447777,0.076
0.004429321694257014,0.077
0.004471815824733706,0.078
0.00451402114554467,0.079
0.004555938657962817,0.08
0.004597567809397071,0.081
0.004638905261286611,0.082
0.0046799439271454765,0.083
0.0047206724801131614,0.084
0.0047610752858162145,0.085
0.004801132617427818,0.086
0.004840820920585879,0.087
0.004880112854018743,0.088
0.004918977114001916,0.089
0.004957378514158347,0.09
0.00499527875396054,0.091
0.0050326377485012536,0.092
0.005069415123881324,0.093
0.00510557161403087,0.094
0.005141070166052355,0.095
0.005175876540801912,0.096
0.00520995920822872,0.097
0.005243288397646937,0.098
0.005275834348665527,0.099
0.00530756549058858,0.1
0.005338448089338493,0.101
0.005368448195615347,0.102
0.005397534877435958,0.103
0.005425683122153027,0.104
0.005452875413339398,0.105
0.0054791014446635596,0.106
0.005504355750709836,0.107
0.005528634166084416,0.108
0.005551931802033729,0.109
0.005574244555921711,0.11
0.0055955727679273546,0.111
0.005615924217565144,0.112
0.00563531506827033,0.113
0.005653768674088824,0.114
0.005671312714942191,0.115
0.005687975618843955,0.116
0.005703783751273215,0.117
0.00571876053670175,0.118
0.005732927139997257,0.119
0.005746303312325831,0.12
0.0057589075757965265,0.121
0.005770756799501177,0.122
0.005781865468540739,0.123
0.0057922448826046476,0.124
0.005801902427435763,0.125
0.00581084099285908,0.126
0.0058190586015357156,0.127
0.005826548364834044,0.128
0.00583329895811074,0.129
0.005839295843673862,0.13
0.0058445233975005255,0.131
0.005848967864645529,0.132
0.005852620683970676,0.133
0.005855481299878593,0.134
0.00585755834047407,0.135
0.005858868204275038,0.136
0.005859431446854148,0.137
0.0058592700114683035,0.138
0.005858408711544498,0.139
0.005856880473108823,0.14
0.005854731687116179,0.141
0.0058520248775678204,0.142
0.005848837927633238,0.143
0.005845260274170298,0.144
0.005841387320314549,0.145
0.005837315370290079,0.146
0.0058331395571183655,0.147
0.0058289549409863365,0.148
0.0058248584275417065,0.149
0.005820949549226346,0.15
0.005817329889563464,0.151
0.005814101623351764,0.152
0.005811365652541225,0.153
0.0058092197940138035,0.154
0.005807757456199071,0.155
0.005807067042309029,0.156
0.005807231857086385,0.157
0.005808330059064634,0.158
0.005810434493753625,0.159
0.005813612543744733,0.16
0.005817926096854382,0.161
0.005823431688925518,0.162
0.005830180882336619,0.163
0.0058382207715836345,0.164
0.005847594342529983,0.165
0.005858340444152894,0.166
0.005870493408406205,0.167
0.005884082823856806,0.168
0.005899133963289448,0.169
0.00591566866751298,0.17
0.005933706068600387,0.171
0.005953262780508091,0.172
0.005974352537277498,0.173
0.00599698545829476,0.174
0.006021167210294192,0.175
0.0060468983336294,0.176
0.006074173924654947,0.177
0.0061029837374867845,0.178
0.00613331261842029,0.179
0.0061651410637526315,0.18
0.006198445640002561,0.181
0.0062331990380275325,0.182
0.006269369676750136,0.183
0.006306921142749626,0.184
0.006345812122663255,0.185
0.006385997195304172,0.186
0.006427428140796943,0.187
0.006470055265394505,0.188
0.006513828538543422,0.189
0.006558698477193476,0.19
0.006604616689862944,0.191
0.006651535963532982,0.192
0.006699409759208611,0.193
0.0067481909928834675,0.194
0.006797830258257811,0.195
0.006848274425277099,0.196
0.006899466881564358,0.197
0.006951349533165907,0.198
0.007003865337624207,0.199
0.007056960171901649,0.2
0.007110583560093239,0.201
0.00716468824959416,0.202
0.0072192288813332905,0.203
0.007274160154781624,0.204
0.007329434896437969,0.205
0.007385002325822521,0.206
0.0074408066427025694,0.207
0.007496785991209365,0.208
0.007552871976855237,0.209
0.007608989903706825,0.21
0.007665059597573765,0.211
0.0077209964829376134,0.212
0.007776712620101455,0.213
0.007832117454236582,0.214
0.0078871180624835,0.215
0.007941618785707615,0.216
0.00799552028668236,0.217
0.008048718254936079,0.218
0.008101102149432082,0.219
0.008152554497764013,0.22
0.008202951302396093,0.221
0.008252163969810655,0.222
0.008300062824751533,0.223
0.008346521731922484,0.224
0.008391422775522331,0.225
0.008434659580908204,0.226
0.008476137922813218,0.227
0.008515772823032567,0.228
0.00855348317332773,0.229
0.00858918792313619,0.23
0.008622807665712648,0.231
0.00865427057430516,0.232
0.008683518628744431,0.233
0.008710511752264056,0.234
0.008735229684074605,0.235
0.008757672061188264,0.236
0.008777857054285921,0.237
0.008795818560635847,0.238
0.008811601730227058,0.239
0.008825257044783489,0.24
0.00883683495451263,0.241
0.008846384436598157,0.242
0.008853956337116995,0.243
0.008859608354831,0.244
0.008863408338187313,0.245
0.008865434900653193,0.246
0.008865775701238606,0.247
0.008864524164685028,0.248
0.008861775617704879,0.249
0.008857623773952859,0.25
0.008852158242314822,0.251
0.008845463329966094,0.252
0.008837617985192477,0.253
0.00882869641682217,0.254
0.008818768820709257,0.255
0.00880790172238114,0.256
0.008796157622867359,0.257
0.008783593945961883,0.258
0.008770261952812334,0.259
0.00875620683266706,0.26
0.008741469501391961,0.261
0.008726089353430251,0.262
0.008710106919485759,0.263
0.008693565794317178,0.264
0.008676513378646722,0.265
0.00865900006069287,0.266
0.00864107672485208,0.267
0.008622791452785047,0.268
0.00860418774769031,0.269
0.008585305854656404,0.27
0.008566185788356263,0.271
0.008546869671020182,0.272
0.008527402311950675,0.273
0.008507829978374676,0.274
0.008488197753038433,0.275
0.00846854660515931,0.276
0.008448911895029873,0.277
0.008429323914789812,0.278
0.008409809103927957,0.279
0.008390390512617864,0.28
0.008371087347333802,0.281
0.008351914017078018,0.282
0.008332879042779419,0.283
0.00831398410981083,0.284
0.00829522359584397,0.285
0.008276584839088939,0.286
0.008258049046440225,0.287
0.00823959245913952,0.288
0.008221187372627293,0.289
0.008202802638856596,0.29
0.008184403352344606,0.291
0.008165949805120275,0.292
0.00814739658206685,0.293
0.0081286929473597,0.294
0.00810978468354833,0.295
0.008090616503254667,0.296
0.008071134236414658,0.297
0.008051286497257882,0.298
0.00803102568537287,0.299
0.008010308079212021,0.3
0.007989092647011243,0.301
0.007967338553084315,0.302
0.007945002910046624,0.303
0.00792204153797775,0.304
0.007898413521338703,0.305
0.007874087070823576,0.306
0.00784904358415917,0.307
0.007823278206202489,0.308
0.007796796410180247,0.309
0.00776960812968609,0.31
0.007741723983079854,0.311
0.00771315725195064,0.312
0.0076839296666013695,0.313
0.007654076232577035,0.314
0.007623646434505614,0.315
0.007592701516772316,0.316
0.007561308982533694,0.317
0.007529537285871798,0.318
0.007497454293038257,0.319
0.007465129985764079,0.32
0.007432640249749157,0.321
0.007400068947230768,0.322
0.0073675078062444745,0.323
0.007335054723822952,0.324
0.007302811159058642,0.325
0.007270879158748497,0.326
0.0072393584662968965,0.327
0.007208344376813107,0.328
0.007177927023447985,0.329
0.0071481919123877755,0.33
0.007119220650368743,0.331
0.0070910910861814135,0.332
0.007063876844948337,0.333
0.0070376465668771345,0.334
0.007012463196385224,0.335
0.006988383639742885,0.336
0.006965459037898303,0.337
0.006943735773595109,0.338
0.006923257142107052,0.339
0.006904065396631118,0.34
0.006886203699722162,0.341
0.006869717446363819,0.342
0.006854654524952508,0.343
0.006841064339086039,0.344
0.00682899572614294,0.345
0.00681849453166103,0.346
0.006809602429115576,0.347
0.006802358007874936,0.348
0.00679679928502944,0.349
0.006792966166194621,0.35
0.006790902047452042,0.351
0.006790654124953404,0.352
0.006792272117038755,0.353
0.006795805703977451,0.354
0.006801302176491155,0.355
0.006808806095565567,0.356
0.006818360898824079,0.357
0.00683001051304369,0.358
0.006843799456435624,0.359
0.006859771336500804,0.36
0.00687796662857974,0.361
0.0068984211408804385,0.362
0.0069211658721981244,0.363
0.006946227401129112,0.364
0.006973627745124336,0.365
0.007003384006167579,0.366
0.007035508880864648,0.367
0.007070012171119619,0.368
0.007106902163363792,0.369
0.00714618567622756,0.37
0.007187866737991826,0.371
0.007231945373764402,0.372
0.0072784179102038365,0.373
0.007327278155425086,0.374
0.007378517682860332,0.375
0.007432124722026744,0.376
0.00748808302359586,0.377
0.00754637208557019,0.378
0.0076069682161662424,0.379
0.007669844755726316,0.38
0.007734971085072471,0.381
0.007802312383121609,0.382
0.007871832155898808,0.383
0.007943497003567621,0.384
0.00801728160420235,0.385
0.00809317234533068,0.386
0.00817116849281742,0.387
0.00825128009858752,0.388
0.00833352304948665,0.389
0.008417914199119256,0.39
0.008504470624803267,0.391
0.008593213512436767,0.392
0.008684172967784318,0.393
0.008777390487939485,0.394
0.008872918575018002,0.395
0.00897081834990365,0.396
0.009071156201191503,0.397
0.009174000260396347,0.398
0.009279417055688292,0.399
0.00938746857089427,0.4
0.00949821039366607,0.401
0.009611691615554646,0.402
0.009727955918671724,0.403
0.009847042368119112,0.404
0.009968984928982145,0.405
0.010093810976550734,0.406
0.010221540122906332,0.407
0.010352184246281109,0.408
0.01048574801936559,0.409
0.010622228847082863,0.41
0.010761616061292782,0.411
0.010903889857506701,0.412
0.011049020468925107,0.413
0.01119696773518226,0.414
0.011347680907691135,0.415
0.01150109865421635,0.416
0.011657149533061007,0.417
0.01181575324123081,0.418
0.011976822685834807,0.419
0.012140266562718532,0.42
0.012305991804129729,0.421
0.012473905126820532,0.422
0.012643913063226436,0.423
0.012815920259998474,0.424
0.012989826404318859,0.425
0.013165523004895204,0.426
0.013342891785938006,0.427
0.013521805171359954,0.428
0.013702127320629425,0.429
0.013883714094572668,0.43
0.014066411818279896,0.431
0.014250056106199442,0.432
0.014434472245831694,0.433
0.01461947718517773,0.434
0.014804881712432539,0.435
0.014990491504458572,0.436
0.015176106511526734,0.437
0.015361518774446706,0.438
0.015546509681170259,0.439
0.01573084862721569,0.44
0.015914294221973265,0.441
0.01609659718664766,0.442
0.01627750388544623,0.443
0.016456760610024795,0.444
0.016634119097030962,0.445
0.016809343177213627,0.446
0.016982215485457672,0.447
0.017152542190621154,0.448
0.017320153317018524,0.449
0.01748489686555715,0.45
0.017646628265357723,0.451
0.017805202637533022,0.452
0.017960477528069212,0.453
0.01811232454003281,0.454
0.01826064180032934,0.455
0.018405361841076353,0.456
0.01854645382870119,0.457
0.018683920800846368,0.458
0.01881779302919343,0.459
0.01894811869390518,0.46
0.01907495292175305,0.461
0.019198347239093187,0.462
0.0193183437178133,0.463
0.019434976661845564,0.464
0.019548279151247055,0.465
0.019658289750486085,0.466
0.01976505725003353,0.467
0.01986864322618072,0.468
0.01996912252121262,0.469
0.020066581743631805,0.47
0.020161115888788224,0.471
0.020252823277615843,0.472
0.020341799212910017,0.473
0.020428129451933837,0.474
0.020511885785142226,0.475
0.020593125492958195,0.476
0.020671893596987338,0.477
0.020748225299891294,0.478
0.020822147277182713,0.479
0.020893677922141144,0.48
0.020962826992953012,0.481
0.021029595039071775,0.482
0.021093972923220836,0.483
0.021155941762977488,0.484
0.021215473626306335,0.485
0.02127253320307756,0.486
0.021327080357700794,0.487
0.021379072972583187,0.488
0.021428468952416516,0.489
0.021475225869575353,0.49
0.021519297335169243,0.491
0.021560628740830225,0.492
0.021599159151637203,0.493
0.021634833034377916,0.494
0.02166761702617058,0.495
0.021697513748146116,0.496
0.021724567355237437,0.497
0.021748858629541342,0.498
0.021770490639167805,0.499
0.021789571825057367,0.5
0.021806208397191395,0.501
0.021820511096384825,0.502
0.021832607926608204,0.503
0.021842652849983078,0.504
0.02185082785133789,0.505
0.02185733957557009,0.506
0.021862412074066088,0.507
0.021866277143176377,0.508
0.021869163930233897,0.509
0.021871290648009564,0.51
0.021872861601400506,0.511
0.02187406948752958,0.512
0.021875099259468324,0.513
0.02187613053412294,0.514
0.021877338191237265,0.515
0.021878891846026274,0.516
0.0218809548325142,0.517
0.021883683174750507,0.518
0.02188722480693375,0.519
0.021891719066865968,0.52
0.021897296269945712,0.521
0.02190407701319922,0.522
0.021912170790148646,0.523
0.021921673588551283,0.524
0.021932665124663586,0.525
0.0219452080646502,0.526
0.02195935098541388,0.527
0.021975133796063057,0.528
0.021992593129400172,0.529
0.02201176624917751,0.53
0.02203269280490384,0.531
0.02205541415939804,0.532
0.022079970485435252,0.533
0.022106396188230976,0.534
0.022134714566152725,0.535
0.022164933469668288,0.536
0.022197044152034107,0.537
0.02223102362300855,0.538
0.02226683832807603,0.539
0.02230444712717267,0.54
0.022343803253849413,0.541
0.02238485581118207,0.542
0.02242755132562524,0.543
0.022471835400045288,0.544
0.022517653894341502,0.545
0.02256495274861011,0.546
0.022613675765952863,0.547
0.022663760267539627,0.548
0.02271513162660994,0.549
0.02276769918004078,0.55
0.022821355860535755,0.551
0.022875981178987,0.552
0.02293144530261288,0.553
0.022987612844392644,0.554
0.023044346234792793,0.555
0.023101508699800804,0.556
0.02315896657841076,0.557
0.023216590494565505,0.558
0.02327425483856705,0.559
0.023331835125974653,0.56
0.023389203053683087,0.561
0.023446220216496852,0.562
0.023502733853699685,0.563
0.02355857817475421,0.564
0.023613580620406374,0.565
0.023667568894062328,0.566
0.02372037517216806,0.567
0.02377183574588982,0.568
0.02382178561002585,0.569
0.023870050369409673,0.57
0.023916441725072242,0.571
0.023960760031484025,0.572
0.024002798933413855,0.573
0.02404234546499768,0.574
0.02407917659293719,0.575
0.02411306028449839,0.576
0.02414376619469412,0.577
0.02417108110185447,0.578
0.02419482041094467,0.579
0.024214830521473774,0.58
0.02423098041205756,0.581
0.024243146562460027,0.582
0.024251204138014217,0.583
0.024255034892617024,0.584
0.024254546547592248,0.585
0.024249691071216817,0.586
0.02424047507406276,0.587
0.024226960955400632,0.588
0.024209259284248125,0.589
0.024187513983042728,0.59
0.024161883568944612,0.591
0.024132525396171084,0.592
0.024099591163528833,0.593
0.02406323434398088,0.594
0.02402362116140605,0.595
0.023980937645431563,0.596
0.023935391274263175,0.597
0.023887208689160683,0.598
0.02383663157316529,0.599
0.02378391261993126,0.6
0.02372931258731654,0.601
0.023673098131725155,0.602
0.02361553909747557,0.603
0.023556903744654217,0.604
0.0234974521037714,0.605
0.02343743117174107,0.606
0.023377076075717866,0.607
0.023316616175535942,0.608
0.023256281195014387,0.609
0.02319630399280621,0.61
0.023136919334762494,0.611
0.023078359255169212,0.612
0.023020846506075273,0.613
0.022964588986762444,0.614
0.022909777742484892,0.615
0.022856587597550965,0.616
0.02280517725430665,0.617
0.02275568864407346,0.618
0.022708248490809425,0.619
0.022662973047352552,0.62
0.022619973354387243,0.621
0.022579358153676985,0.622
0.022541233422815953,0.623
0.022505698691642217,0.624
0.022472841734560673,0.625
0.022442735549803243,0.626
0.022415440803025013,0.627
0.022391012228941017,0.628
0.022369504981067115,0.629
0.02235097837192678,0.63
0.02233549611529863,0.631
0.02232312298527885,0.632
0.02231391862404177,0.633
0.022307931074730062,0.634
0.02230519442655354,0.635
0.02230573245312813,0.636
0.022309564949971175,0.637
0.02231671251520428,0.638
0.02232719798418511,0.639
0.02234104413222286,0.64
0.02235826818729593,0.641
0.02237887614852914,0.642
0.022402861559502395,0.643
0.022430209728731255,0.644
0.02246090279286886,0.645
0.02249492080030006,0.646
0.02253223788910119,0.647
0.022572816643602462,0.648
0.022616605846169358,0.649
0.02266354366421009,0.65
0.022713562801498558,0.651
0.022766593623070732,0.652
0.02282256414625522,0.653
0.0228813971794393,0.654
0.022943005467457502,0.655
0.023007287411322436,0.656
0.02307412707796675,0.657
0.023143399730282243,0.658
0.02321498032055591,0.659
0.02328875174286806,0.66
0.023364610827775068,0.661
0.02344247049314186,0.662
0.02352225670595854,0.663
0.023603900126504988,0.664
0.023687326275374253,0.665
0.02377245243038211,0.666
0.023859195271356347,0.667
0.0239474832087033,0.668
0.02403726498893923,0.669
0.024128510953639246,0.67
0.024221206794080574,0.671
0.0243153420074739,0.672
0.024410898772168448,0.673
0.024507847839626257,0.674
0.024606151739372802,0.675
0.02470576856400416,0.676
0.024806650601519587,0.677
0.024908738682321956,0.678
0.02501195860018642,0.679
0.025116223663743456,0.68
0.025221438966583614,0.681
0.025327501193038667,0.682
0.025434295760150768,0.683
0.025541698897314682,0.684
0.02564958708150525,0.685
0.025757847283365963,0.686
0.025866380467839803,0.687
0.025975095803190375,0.688
0.026083899259212884,0.689
0.02619268637539695,0.69
0.026301345805246665,0.691
0.026409768438077057,0.692
0.02651785309990129,0.693
0.026625505621044807,0.694
0.026732632437260703,0.695
0.02683913148543733,0.696
0.026944884665394554,0.697
0.02704975553148346,0.698
0.027153591389810106,0.699
0.027256225257720736,0.7
0.027357474646113447,0.701
0.02745713881488948,0.702
0.027554999144025552,0.703
0.027650824442004406,0.704
0.027744377275549306,0.705
0.02783541594565919,0.706
0.027923690830131697,0.707
0.028008940909404697,0.708
0.028090899568746688,0.709
0.02816931177133172,0.71
0.028243955440267757,0.711
0.02831465835868303,0.712
0.028381304704991422,0.713
0.028443827692739686,0.714
0.028502189979905692,0.715
0.028556364683608983,0.716
0.028606334524784765,0.717
0.028652111049098532,0.718
0.028693757772088917,0.719
0.028731402927964986,0.72
0.02876523902532343,0.721
0.02879551230858419,0.722
0.028822506339280702,0.723
0.028846523431620707,0.724
0.028867866892257586,0.725
0.028886827857892962,0.726
0.02890368117660376,0.727
0.028918690549748806,0.728
0.028932117590358367,0.729
0.028944229782659498,0.73
0.028955305713671678,0.731
0.028965637218952227,0.732
0.02897552808478399,0.733
0.028985289175645742,0.734
0.028995230387847057,0.735
0.029005651006922626,0.736
0.029016831819115546,0.737
0.029029032031159675,0.738
0.029042490034844874,0.739
0.02905742406448533,0.74
0.029074030610085403,0.741
0.029092481667226385,0.742
0.02911292283223141,0.743
0.02913547282625211,0.744
0.029160223554301947,0.745
0.02918724034271262,0.746
0.029216563216965162,0.747
0.02924821000707668,0.748
0.029282180966038324,0.749
0.02931846331230577,0.75
0.02935703331550782,0.751
0.029397854244057383,0.752
0.029440872091366973,0.753
0.029486014715466108,0.754
0.0295331966909692,0.755
0.029582324479741545,0.756
0.029633295792540506,0.757
0.029685994872538923,0.758
0.029740292239862614,0.759
0.029796053046204765,0.76
0.029853147421832826,0.761
0.02991145369084938,0.762
0.02997085215537653,0.763
0.030031216752144804,0.764
0.03009241683293333,0.765
0.030154332774353698,0.766
0.030216876087637633,0.767
0.030280003359785732,0.768
0.030343719760498367,0.769
0.030408072168808305,0.77
0.030473134118165005,0.771
0.030538986577314332,0.772
0.030605700824119904,0.773
0.030673329913900007,0.774
0.030741908961733278,0.775
0.030811457688852052,0.776
0.030881980967096975,0.777
0.030953469319016432,0.778
0.031025903071615527,0.779
0.031099261844625407,0.78
0.031173538082291227,0.781
0.031248750924709235,0.782
0.03132495603133225,0.783
0.03140224818502352,0.784
0.03148075581546149,0.785
0.03156062883131871,0.786
0.0316420225391788,0.787
0.03172508191060562,0.788
0.03180993190776626,0.789
0.03189667616357289,0.79
0.03198539931564908,0.791
0.03207616703384811,0.792
0.03216902279032013,0.793
0.032263984646806625,0.794
0.03236104466153951,0.795
0.03246016953469525,0.796
0.03256130115972811,0.797
0.032664360762683566,0.798
0.03276926078029656,0.799
0.032875922818146955,0.8
0.032984296320359624,0.801
0.03309437307430602,0.802
0.03320619401853107,0.803
0.03331984646858948,0.804
0.03343545205416564,0.805
0.03355314775272659,0.806
0.03367306567543326,0.807
0.03379532068634849,0.808
0.03392001031512004,0.809
0.03404722101232876,0.81
0.03417703321396293,0.811
0.03430952395466485,0.812
0.034444768881609494,0.813
0.03458284473274447,0.814
0.03472383195825285,0.815
0.03486781622535665,0.816
0.03501488740618274,0.817
0.035165135249338224,0.818
0.03531864197224522,0.819
0.03547547312029853,0.82
0.035635668926855844,0.821
0.035799238707835204,0.822
0.03596616018542947,0.823
0.036136384277847274,0.824
0.03630984420705317,0.825
0.036486465987741024,0.826
0.03666617620383979,0.827
0.036848903225863275,0.828
0.037034570492211795,0.829
0.037223086944127216,0.83
0.03741434554583121,0.831
0.037608234841999454,0.832
0.03780465584487315,0.833
0.03800353403255857,0.834
0.038204822176771826,0.835
0.038408493790272565,0.836
0.03861452885855605,0.837
0.03882289668083296,0.838
0.03903354433747301,0.839
0.039246395663827816,0.84
0.03946135540036281,0.841
0.03967831027703331,0.842
0.039897124729265154,0.843
0.04011763415974745,0.844
0.04033964010073458,0.845
0.04056290909158562,0.846
0.04078717307033777,0.847
0.04101212890605758,0.848
0.04123743734584508,0.849
0.04146272303716544,0.85
0.041687577197102164,0.851
0.041911563773371054,0.852
0.042134228592163404,0.853
0.04235510922966284,0.854
0.04257374177030307,0.855
0.04278965996764426,0.856
0.04300238683691784,0.857
0.04321143035892756,0.858
0.043416298150965836,0.859
0.04361653046115688,0.86
0.04381173631291918,0.861
0.04400161786911252,0.862
0.04418597399054619,0.863
0.0443646795834675,0.864
0.04453764844352101,0.865
0.04470480405723704,0.866
0.04486608122183225,0.867
0.045021452387347616,0.868
0.04517095357483633,0.869
0.04531469454910311,0.87
0.04545285259183338,0.871
0.045585654445552584,0.872
0.0457133514553897,0.873
0.04583619363583418,0.874
0.04595441144322036,0.875
0.046068213217437565,0.876
0.04617779600879149,0.877
0.04628335863503305,0.878
0.04638510789126015,0.879
0.04648325492705228,0.88
0.04657800300060537,0.881
0.046669533096860824,0.882
0.046757997681454895,0.883
0.0468435260989589,0.884
0.046926234205669985,0.885
0.047006231033605954,0.886
0.04708362237942062,0.887
0.047158513755558434,0.888
0.04723101333813531,0.889
0.04730123289773976,0.89
0.04736928302084733,0.891
0.04743526203646145,0.892
0.0474992475342482,0.893
0.04756130289689622,0.894
0.04762149902376967,0.895
0.047679938847184286,0.896
0.047736773430321296,0.897
0.04779220531127133,0.898
0.04784647917684866,0.899
0.04789986274491002,0.9
0.04795262283168424,0.901
0.0480050038282541,0.902
0.04805721648044042,0.903
0.04810943819730725,0.904
0.048161817439578244,0.905
0.04821447578707114,0.906
0.04826750748234551,0.907
0.04832097830896185,0.908
0.04837492488788088,0.909
0.048429354660790985,0.91
0.04848424623961484,0.911
0.04853954955950357,0.912
0.048595185399948976,0.913
0.04865104424547899,0.914
0.04870698494265331,0.915
0.048762833930481836,0.916
0.0488183858105818,0.917
0.048873405711807795,0.918
0.04892763352974634,0.919
0.04898078993645911,0.92
0.049032584070468795,0.921
0.04908272274327902,0.922
0.0491309204444779,0.923
0.049176908234339935,0.924
0.04922043817497352,0.925
0.04926127919525378,0.926
0.049299203038652144,0.927
0.04933396910175097,0.928
0.04936532536986874,0.929
0.04939303132019591,0.93
0.04941688832846279,0.931
0.049436760234295184,0.932
0.049452577384448186,0.933
0.04946432561549776,0.934
0.04947202584665289,0.935
0.0494757118636662,0.936
0.04947541303548451,0.937
0.049471145770921474,0.938
0.0494629136112598,0.939
0.049450712202609375,0.94
0.049434533280859304,0.941
0.0494143621024102,0.942
0.04939016763365196,0.943
0.04936189465693406,0.944
0.049329470449750466,0.945
0.049292827607610064,0.946
0.0492519332782307,0.947
0.049206815520289084,0.948
0.04915758165718186,0.949
0.0491044247824417,0.95
0.049047615526057735,0.951
0.04898747881278104,0.952
0.0489243609051083,0.953
0.04885860075505675,0.954
0.04879052069445533,0.955
0.048720435295236925,0.956
0.04864866206250193,0.957
0.04857552229791537,0.958
0.04850133272191135,0.959
0.04842639372305982,0.96
0.048350980197598786,0.961
0.048275339099417884,0.962
0.048199694678147394,0.963
0.04812425900511635,0.964
0.04804924295472169,0.965
0.04797486224133269,0.966
0.04790133465678798,0.967
0.047828868596493296,0.968
0.04775765000056967,0.969
0.04768783916130285,0.97
0.04761958079660368,0.971
0.047553018139682914,0.972
0.04748830038841805,0.973
0.04742557894566336,0.974
0.04736499482594858,0.975
0.04730666924429341,0.976
0.047250709902253205,0.977
0.047197229514112364,0.978
0.047146361118345956,0.979
0.04709825905993094,0.98
0.04705308512544034,0.981
0.047010991232277276,0.982
0.04697211667280488,0.983
0.04693660522714534,0.984
0.04690462766523905,0.985
0.04687639323284579,0.986
0.04685214408517816,0.987
0.04683213564260451,0.988
0.046816616257875074,0.989
0.046805823999905294,0.99
0.046800002988983985,0.991
0.04679942279726474,0.992
0.04680438541613937,0.993
0.046815216188427815,0.994
0.046832243693547985,0.995
0.04685578070342884,0.996
0.046886118829537506,0.997
0.04692353630906114,0.998
0.046968306290069844,0.999
0.04702069654401562,1.0
0.04708096115883491,1.001
0.04714932915338396,1.002
0.04722599510977968,1.003
0.04731111526840139,1.004
0.04740480994393861,1.005
0.04750717073497699,1.006
0.0476182695604589,1.007
0.047738166156261454,1.008
0.04786691102035004,1.009
0.04800454167660109,1.01
0.0481510735569655,1.011
0.048306493616532616,1.012
0.048470765795162955,1.013
0.04864384730130991,1.014
0.04882570626188186,1.015
0.049016332905703015,1.016
0.0492157411716713,1.017
0.04942396070401122,1.018
0.04964102137160706,1.019
0.049866935090079625,1.02
0.0501016829302073,1.021
0.05034521373944565,1.022
0.050597452090882504,1.023
0.05085830842336171,1.024
0.051127687131775526,1.025
0.051405491790407834,1.026
0.05169162700782264,1.027
0.051985995824050606,1.028
0.052288491589587135,1.029
0.052598985580665114,1.03
0.052917317024604164,1.031
0.05324329370450125,1.032
0.05357670302657412,1.033
0.053917325286661204,1.034
0.05426494224124424,1.035
0.05461933905453069,1.036
0.05498029996489811,1.037
0.05534759841240777,1.038
0.05572098380354947,1.039
0.05610017179638465,1.04
0.05648484711250739,1.041
0.05687467969409794,1.042
0.057269344559361814,1.043
0.05766853445289504,1.044
0.05807195923421162,1.045
0.058479330926301684,1.046
0.058890341307620546,1.047
0.059304647646156484,1.048
0.05972187479625085,1.049
0.060141622317904236,1.05
0.060563462696575074,1.051
0.06098693315309293,1.052
0.061411533900982425,1.053
0.061836736421967256,1.054
0.06226198969402417,1.055
0.06268671562891429,1.056
0.06311030571179853,1.057
0.06353213656802205,1.058
0.06395160191810961,1.059
0.06436814152051679,1.06
0.06478125080562011,1.061
0.06519046473609248,1.062
0.06559532466995353,1.063
0.06599535750150959,1.064
0.0663900890374534,1.065
0.06677907587949047,1.066
0.06716192462142229,1.067
0.06753828423254901,1.068
0.06790781719187905,1.069
0.06827017086806006,1.07
0.06862497231897638,1.071
0.06897184524287275,1.072
0.06931042529434858,1.073
0.06964035526916013,1.074
0.06996126372549182,1.075
0.07027275120922388,1.076
0.07057440413836556,1.077
0.07086582670222484,1.078
0.07114666558842575,1.079
0.07141661234125084,1.08
0.07167538152032187,1.081
0.07192267903174673,1.082
0.07215819061614331,1.083
0.07238160509495041,1.084
0.07259265070111792,1.085
0.07279111485830748,1.086
0.07297683583235584,1.087
0.07314967163840494,1.088
0.07330946903834477,1.089
0.07345606043436069,1.09
0.07358928997176181,1.091
0.07370904218597038,1.092
0.07381525056709203,1.093
0.07390788201481643,1.094
0.0739869053994084,1.095
0.07405226233287793,1.096
0.07410385960601738,1.097
0.07414158496240304,1.098
0.07416533038206244,1.099
0.07417501057605314,1.1
0.07417057559833348,1.101
0.07415201970749136,1.102
0.07411938674754577,1.103
0.07407276981606037,1.104
0.07401230105743502,1.105
0.07393812769908766,1.106
0.07385038125584163,1.107
0.07374916561667014,1.108
0.07363458218316966,1.109
0.07350677589384928,1.11
0.07336597431100561,1.111
0.073212506847136,1.112
0.07304680197220477,1.113
0.07286936415029749,1.114
0.07268073534992726,1.115
0.07248145240610737,1.116
0.07227202085994112,1.117
0.07205291809934025,1.118
0.07182461307355878,1.119
0.07158758021518698,1.12
0.07134229711716704,1.121
0.07108922768086923,1.122
0.0708288023208592,1.123
0.07056141208848182,1.124
0.07028742103538466,1.125
0.07000718224326133,1.126
0.06972104193287178,1.127
0.06942932858991514,1.128
0.06913233749911529,1.129
0.06883032862821145,1.13
0.06852354449988504,1.131
0.0682122345332011,1.132
0.06789666944597417,1.133
0.06757713992644934,1.134
0.06725394152061498,1.135
0.06692735147765881,1.136
0.06659760591239428,1.137
0.06626488529950073,1.138
0.06592931138597963,1.139
0.0655909546451365,1.14
0.06524985062330627,1.141
0.06490601987613968,1.142
0.06455948201355956,1.143
0.06421025533160923,1.144
0.06385834298218264,1.145
0.06350372402459535,1.146
0.06314636981839779,1.147
0.06278628196207994,1.148
0.062423529440176165,1.149
0.06205826721208534,1.15
0.06169072922242315,1.151
0.061321196708426874,1.152
0.06094995591501091,1.153
0.060577273829180864,1.154
0.060203406119182575,1.155
0.05982861687319889,1.156
0.05945318536648746,1.157
0.059077396526645024,1.158
0.058701523299921496,1.159
0.058325809051358375,1.16
0.057950454847718984,1.161
0.05757561234408567,1.162
0.05720138125562215,1.163
0.056827811794296725,1.164
0.05645491318059343,1.165
0.05608266727542727,1.166
0.055711044168785216,1.167
0.05534001554698436,1.168
0.05496956109370948,1.169
0.05459966352144293,1.17
0.05423029400505374,1.171
0.05386140293005744,1.172
0.053492931897381635,1.173
0.05312484275370999,1.174
0.05275714450565107,1.175
0.052389903933885665,1.176
0.052023236103737575,1.177
0.051657278440526554,1.178
0.05129216076469006,1.179
0.050927989696711154,1.18
0.050564853811462196,1.181
0.050202835621468,1.182
0.04984201591220266,1.183
0.049482468943308204,1.184
0.04912425311623294,1.185
0.048767401218358486,1.186
0.048411912394848704,1.187
0.04805774647404907,1.188
0.04770482186918572,1.189
0.04735301870131608,1.19
0.047002186342924246,1.191
0.0466521517879363,1.192
0.046302724803438534,1.193
0.04595369689377762,1.194
0.04560483480953847,1.195
0.04525587601289428,1.196
0.04490653426462965,1.197
0.04455651449765948,1.198
0.04420552976060849,1.199
0.04385331526016395,1.2
0.0434996379893183,1.201
0.043144301400114465,1.202
0.04278714458443739,1.203
0.04242803523061195,1.204
0.04206685538509101,1.205
0.041703483298090774,1.206
0.04133778513993021,1.207
0.0409696302513185,1.208
0.04059892580904578,1.209
0.04022565453420797,1.21
0.03984990192838575,1.211
0.03947186501180473,1.212
0.03909183888302553,1.213
0.03871018287773517,1.214
0.038327279501773226,1.215
0.03794351254286387,1.216
0.0375592780822253,1.217
0.037175009831937354,1.218
0.036791194237430595,1.219
0.0364083686996478,1.22
0.03602710683263338,1.221
0.035647996689254086,1.222
0.03527161915747591,1.223
0.03489853399370035,1.224
0.034529275991000356,1.225
0.03416435594294791,1.226
0.03380426017722737,1.227
0.033449447777270096,1.228
0.03310034776426806,1.229
0.032757357927700424,1.23
0.03242084588491485,1.231
0.03209115239664184,1.232
0.031768595967060116,1.233
0.03145347678249972,1.234
0.031146078124801416,1.235
0.030846664502128078,1.236
0.030555478316540253,1.237
0.030272739180145808,1.238
0.029998647561322967,1.239
0.02973338946524553,1.24
0.029477138256920995,1.241
0.02923005273628408,1.242
0.028992272866324702,1.243
0.02876391583581025,1.244
0.02854507477693447,1.245
0.02833581972957347,1.246
0.02813619840551802,1.247
0.027946235426551655,1.248
0.027765931023313917,1.249
0.027595260823139598,1.25
0.027434176901603477,1.251
0.02728260889529915,1.252
0.027140464367053595,1.253
0.0270076286073674,1.254
0.026883964265883416,1.255
0.026769310843485404,1.256
0.026663484027554227,1.257
0.026566275648165976,1.258
0.026477455440849694,1.259
0.026396774629257564,1.26
0.026323969945565906,1.261
0.026258766419987537,1.262
0.026200877675505975,1.263
0.026150003321095325,1.264
0.026105825117511756,1.265
0.026068005734637266,1.266
0.026036192108664313,1.267
0.02601002091188651,1.268
0.025989122546813893,1.269
0.0259731219595007,1.27
0.02596163563609482,1.271
0.02595426627975154,1.272
0.02595060102964261,1.273
0.025950218268656698,1.274
0.025952700588611682,1.275
0.025957647728090977,1.276
0.025964685221218992,1.277
0.025973466092282592,1.278
0.025983663799705344,1.279
0.025994958751393397,1.28
0.026007028548810707,1.281
0.026019552171262245,1.282
0.02603222542439949,1.283
0.026044775966411787,1.284
0.026056970121144978,1.285
0.026068610275823266,1.286
0.0260795247643537,1.287
0.026089553308685197,1.288
0.026098532086623643,1.289
0.02610628366564181,1.29
0.02611261532725284,1.291
0.02611732419332932,1.292
0.026120205146209677,1.293
0.026121059522373546,1.294
0.026119703983179438,1.295
0.02611597811071975,1.296
0.02610974816584863,1.297
0.02610090437388396,1.298
0.026089350476996107,1.299
0.02607498974793135,1.3
0.026057719121152408,1.301
0.02603743873816509,1.302
0.026014069554959805,1.303
0.02598756749822642,1.304
0.02595792941096194,1.305
0.025925190564396856,1.306
0.025889414975577722,1.307
0.02585068069782254,1.308
0.025809064272121516,1.309
0.025764632022445708,1.31
0.025717443583745055,1.311
0.02566756394436225,1.312
0.025615076133788103,1.313
0.025560089907178077,1.314
0.025502744748940546,1.315
0.025443206619023034,1.316
0.025381658797242565,1.317
0.025318288852422165,1.318
0.025253277179768663,1.319
0.02518679387473979,1.32
0.02511900436846618,1.321
0.02505007660804537,1.322
0.024980183347067537,1.323
0.024909498410274053,1.324
0.02483818909663439,1.325
0.024766409018857342,1.326
0.024694295895477874,1.327
0.02462197460664524,1.328
0.02454956138773958,1.329
0.02447716554895007,1.33
0.024404887982728708,1.331
0.024332817234491023,1.332
0.02426102486432932,1.333
0.024189562790761725,1.334
0.024118464197000453,1.335
0.02404774688773711,1.336
0.0239774173204814,1.337
0.02390747465648737,1.338
0.023837914493011612,1.339
0.023768731540072505,1.34
0.023699920320423062,1.341
0.023631473168375754,1.342
0.023563375344756853,1.343
0.02349559894774511,1.344
0.02342809991439467,1.345
0.023360820636917596,1.346
0.02329369515491993,1.347
0.023226652544050732,1.348
0.02315961703123128,1.349
0.023092505209876858,1.35
0.023025221518987664,1.351
0.022957654528257748,1.352
0.02288967700083226,1.353
0.022821150194681557,1.354
0.02275192990000952,1.355
0.022681871480233408,1.356
0.02261083214900135,1.357
0.02253866889908349,1.358
0.02246523298072885,1.359
0.022390368253109815,1.36
0.022313921198712096,1.361
0.022235760257711054,1.362
0.02215579454448031,1.363
0.022073983386862218,1.364
0.021990332243961526,1.365
0.02190487623865705,1.366
0.021817662059179413,1.367
0.02172874350241707,1.368
0.021638193580633947,1.369
0.021546120061781575,1.37
0.021452672082356558,1.371
0.02135803568218115,1.372
0.021262421600530917,1.373
0.02116604981459762,1.374
0.021069135499528883,1.375
0.020971880460024607,1.376
0.02087447073172143,1.377
0.020777076918184468,1.378
0.020679854093932575,1.379
0.020582941258134323,1.38
0.020486461725892947,1.381
0.02039052539302184,1.382
0.020295232903570364,1.383
0.02020068079289299,1.384
0.02010696596037267,1.385
0.020014187665386145,1.386
0.019922445803043445,1.387
0.019831835813513218,1.388
0.0197424434012856,1.389
0.01965434351781235,1.39
0.019567604444167695,1.391
0.01948229320179522,1.392
0.019398478537407227,1.393
0.019316230158634973,1.394
0.01923561443831521,1.395
0.019156689010423503,1.396
0.019079500805108698,1.397
0.01900408916683853,1.398
0.01893049003613642,1.399
0.01885873664502863,1.4
0.018788856127000875,1.401
0.018720864871029978,1.402
0.018654766128893923,1.403
0.018590550124414514,1.404
0.018528194063769536,1.405
0.01846766197802071,1.406
0.018408906808759406,1.407
0.01835187438237006,1.408
0.018296506022596512,1.409
0.018242737545923655,1.41
0.01819049554369899,1.411
0.018139694847999387,1.412
0.018090240219679803,1.413
0.01804203083530398,1.414
0.01799496433883877,1.415
0.0179489390552634,1.416
0.017903854416346433,1.417
0.01785960988511099,1.418
0.017816102643750713,1.419
0.017773224323373783,1.42
0.017730857158044365,1.421
0.017688870415665123,1.422
0.01764711853057696,1.423
0.017605441462850358,1.424
0.017563665988764958,1.425
0.017521606602791076,1.426
0.017479066117590477,1.427
0.017435836884815273,1.428
0.01739170367282972,1.429
0.017346448915910445,1.43
0.017299860299750062,1.431
0.01725173964876837,1.432
0.01720191108604507,1.433
0.017150225777472567,1.434
0.017096560657971712,1.435
0.017040809932552782,1.436
0.016982873289400676,1.437
0.016922651300043123,1.438
0.01686005416194699,1.439
0.01679501695553448,1.44
0.016727511394969603,1.441
0.016657550396136186,1.442
0.016585185773027783,1.443
0.01651050036258604,1.444
0.016433596488337615,1.445
0.016354583165399027,1.446
0.01627356539829311,1.447
0.01619063910770233,1.448
0.016105891870393234,1.449
0.016019405718065885,1.45
0.015931259087474232,1.451
0.015841528111896645,1.452
0.01575028845640675,1.453
0.015657618458660733,1.454
0.015563603649609516,1.455
0.015468341911911248,1.456
0.01537194782417346,1.457
0.015274554466552227,1.458
0.015176311348143411,1.459
0.015077378062575761,1.46
0.014977915639383995,1.461
0.014878081012469518,1.462
0.014778028895862508,1.463
0.014677918650608683,1.464
0.014577920349340466,1.465
0.014478216821693745,1.466
0.014379001372302762,1.467
0.014280472172464146,1.468
0.0141828252846471,1.469
0.014086249049427891,1.47
0.013990921718508006,1.471
0.013897011477755721,1.472
0.013804676457285876,1.473
0.013714063861002152,1.474
0.0136253095658446,1.475
0.013538539491120124,1.476
0.013453872219989742,1.477
0.013371421415100322,1.478
0.013291296974538961,1.479
0.013213604447581427,1.48
0.013138442910719333,1.481
0.013065902622954161,1.482
0.01299606435218137,1.483
0.012929000901375864,1.484
0.01286477947785434,1.485
0.012803463522219023,1.486
0.012745113596933625,1.487
0.012689787333836348,1.488
0.012637538492413496,1.489
0.012588415332199081,1.49
0.012542458730315242,1.491
0.012499700663644064,1.492
0.01246016368962481,1.493
0.012423861832395256,1.494
0.012390802842641779,1.495
0.012360991272802374,1.496
0.012334431394317762,1.497
0.012311128884782481,1.498
0.012291090498148655,1.499
0.012274321456791611,1.5
0.012260821710439672,1.501
0.012250584329775759,1.502
0.01224359844800552,1.503
0.012239855156515832,1.504
0.012239353162445793,1.505
0.012242102442662202,1.506
0.012248125251292893,1.507
0.012257454397691532,1.508
0.012270129302733043,1.509
0.012286190744180518,1.51
0.012305675539276847,1.511
0.012328612828858193,1.512
0.01235502315108405,1.513
0.012384919718513904,1.514
0.01241831025008481,1.515
0.012455198403080804,1.516
0.012495584744816287,1.517
0.012539467390105061,1.518
0.012586842369717934,1.519
0.012637703779491102,1.52
0.012692043767667426,1.521
0.012749852402089075,1.522
0.012811117363298105,1.523
0.012875823208188263,1.524
0.012943949719275767,1.525
0.013015469523518008,1.526
0.013090347026715202,1.527
0.013168540607249096,1.528
0.013250006806831607,1.529
0.013334703394764847,1.53
0.013422589456877887,1.531
0.013513622543314088,1.532
0.01360775433366517,1.533
0.013704927093041008,1.534
0.013805072260472746,1.535
0.013908110388970411,1.536
0.014013951040632834,1.537
0.014122492420537954,1.538
0.0142336213810836,1.539
0.014347214272642203,1.54
0.014463138550110517,1.541
0.014581254410067019,1.542
0.014701415272002647,1.543
0.014823466595965187,1.544
0.014947244884401002,1.545
0.015072579682877259,1.546
0.015199298360979092,1.547
0.015327230132932365,1.548
0.015456205884539727,1.549
0.015586054069045046,1.55
0.015716598361157758,1.551
0.015847662275995926,1.552
0.015979077871706344,1.553
0.01611069123610052,1.554
0.01624236056579142,1.555
0.016373948342713773,1.556
0.016505314812674813,1.557
0.016636319065745968,1.558
0.01676682495628032,1.559
0.016896703968059437,1.56
0.01702583150669552,1.561
0.017154080666121032,1.562
0.01728132071739643,1.563
0.017407421667936053,1.564
0.017532258066842065,1.565
0.01765570673772284,1.566
0.017777642606539874,1.567
0.01789794131953926,1.568
0.0180164903294625,1.569
0.018133201219397658,1.57
0.018248015806926456,1.571
0.018360903136398713,1.572
0.018471848564675587,1.573
0.01858084187156761,1.574
0.018687874816879,1.575
0.018792950845765835,1.576
0.01889609819104338,1.577
0.01899737722808768,1.578
0.01909687970610024,1.579
0.019194721429114284,1.58
0.01929103092595835,1.581
0.019385937344334005,1.582
0.019479562066509484,1.583
0.019572017504171094,1.584
0.0196634115435474,1.585
0.019753852749813953,1.586
0.019843453060555686,1.587
0.019932327339989453,1.588
0.02002059013328676,1.589
0.02010835033320469,1.59
0.02019570584484799,1.591
0.02028274176922524,1.592
0.020369533309665032,1.593
0.020456150051431896,1.594
0.020542657565092184,1.595
0.020629115005176314,1.596
0.020715570678703693,1.597
0.02080206046882817,1.598
0.020888612165838535,1.599
0.020975253031912278,1.6
0.021062016219465244,1.601
0.021148944114235672,1.602
0.021236088357719264,1.603
0.02132350685062512,1.604
0.021411258393164,1.605
0.021499395881202442,1.606
0.021587960073596733,1.607
0.02167697735744376,1.608
0.021766463159558134,1.609
0.021856428650513154,1.61
0.021946887605347493,1.611
0.02203786212949603,1.612
0.022129386785919605,1.613
0.022221510586293614,1.614
0.022314296285055556,1.615
0.0224078165673795,1.616
0.022502147157996033,1.617
0.02259735821520996,1.618
0.02269350765899113,1.619
0.02279063985086022,1.62
0.022888788442799263,1.621
0.022987978847639975,1.622
0.023088227516434648,1.623
0.023189538417660995,1.624
0.023291898750517005,1.625
0.023395276272197327,1.626
0.02349962000781576,1.627
0.023604864727850988,1.628
0.023710938047710354,1.629
0.02381776799037985,1.63
0.023925288678793993,1.631
0.024033442401261523,1.632
0.02414217727934048,1.633
0.024251440774448192,1.634
0.02436117131100114,1.635
0.02447129334735151,1.636
0.02458171983990098,1.637
0.024692359555181898,1.638
0.024803123743552438,1.639
0.02491392914289905,1.64
0.025024696628856025,1.641
0.025135345764279744,1.642
0.025245787041151557,1.643
0.025355916164823415,1.644
0.025465614280165017,1.645
0.025574752846242367,1.646
0.025683198326717758,1.647
0.02579081341173203,1.648
0.025897454068791067,1.649
0.02600296389207243,1.65
0.026107170076491885,1.651
0.026209885069101355,1.652
0.02631091275761309,1.653
0.026410054557086837,1.654
0.026507112282650434,1.655
0.02660188725059534,1.656
0.026694176292789917,1.657
0.026783765766141925,1.658
0.026870425352934477,1.659
0.0269539049601157,1.66
0.027033937375833966,1.661
0.027110245810504533,1.662
0.02718255362043141,1.663
0.027250594203332697,1.664
0.027314119245666367,1.665
0.027372903030693844,1.666
0.02742674061308177,1.667
0.027475438614135983,1.668
0.027518801882908096,1.669
0.027556626751229836,1.67
0.027588709070744975,1.671
0.027614861461314113,1.672
0.027634928604880343,1.673
0.02764879505800573,1.674
0.02765638484810513,1.675
0.027657653898706242,1.676
0.02765257729099654,1.677
0.027641133999171542,1.678
0.027623293725835992,1.679
0.027599012237487997,1.68
0.02756823714880434,1.681
0.027530918718929428,1.682
0.02748701970848159,1.683
0.02743652237610479,1.684
0.0273794324159696,1.685
0.027315779567170167,1.686
0.02724561456104549,1.687
0.027169002177820995,1.688
0.02708601055544096,1.689
0.02699669946722869,1.69
0.02690111473915953,1.691
0.026799293701718862,1.692
0.02669127741322057,1.693
0.026577122321159243,1.694
0.02645690789975419,1.695
0.026330739283319613,1.696
0.026198744479384035,1.697
0.026061066332024596,1.698
0.025917850683321173,1.699
0.02576923558868423,1.7
0.025615348878344976,1.701
0.025456316133335346,1.702
0.02529227293383082,1.703
0.02512337463009114,1.704
0.02494980122003861,1.705
0.02477175719203204,1.706
0.024589466757361456,1.707
0.024403165296817162,1.708
0.024213088460636464,1.709
0.02401946252503146,1.71
0.023822501644137795,1.711
0.0236224140623534,1.712
0.023419412795925548,1.713
0.023213725213699413,1.714
0.02300559878376051,1.715
0.022795301664552993,1.716
0.022583117513935717,1.717
0.022369335326629113,1.718
0.022154238008496627,1.719
0.021938095899136367,1.72
0.021721167360228697,1.721
0.0215037010624225,1.722
0.02128593483616604,1.723
0.021068092049968228,1.724
0.020850378983892626,1.725
0.02063298427106332,1.726
0.02041607972940009,1.727
0.0201998231613964,1.728
0.019984363561709687,1.729
0.019769846923512645,1.73
0.019556420406002188,1.731
0.019344233850484147,1.732
0.01913343853470101,1.733
0.018924183599250848,1.734
0.01871661104680787,1.735
0.01851085082905388,1.736
0.018307018016617833,1.737
0.01810521282774974,1.738
0.01790552204821702,1.739
0.01770802011070559,1.74
0.017512769483445663,1.741
0.01731982081825867,1.742
0.017129213429107056,1.743
0.016940976640769892,1.744
0.016755132375186454,1.745
0.0165716990149746,1.746
0.016390696124741852,1.747
0.01621214909455051,1.748
0.01603609235763175,1.749
0.015862569782146316,1.75
0.015691631361435247,1.751
0.015523326988639868,1.752
0.015357700901760323,1.753
0.01519479086832148,1.754
0.01503463191413327,1.755
0.014877260632071607,1.756
0.014722717333194808,1.757
0.014571046069669668,1.758
0.014422293513320373,1.759
0.01427650754370068,1.76
0.014133736139131495,1.761
0.013994026909069174,1.762
0.013857427335588283,1.763
0.01372398545870859,1.764
0.01359375039017686,1.765
0.013466771811779138,1.766
0.01334309765654021,1.767
0.013222770531071742,1.768
0.01310582611960181,1.769
0.012992296460014345,1.77
0.012882216630245595,1.771
0.012775631146244986,1.772
0.012672597796425697,1.773
0.012573188111167874,1.774
0.012477484377658535,1.775
0.01238557372904341,1.776
0.012297541335262967,1.777
0.01221346677736202,1.778
0.012133425918851538,1.779
0.012057495550774115,1.78
0.011985756883824236,1.781
0.01191829655639142,1.782
0.011855205426229865,1.783
0.011796575741938875,1.784
0.011742497430578949,1.785
0.01169305439740882,1.786
0.01164832197281411,1.787
0.011608366197781621,1.788
0.011573244350902555,1.789
0.011543005520673893,1.79
0.01151769070529188,1.791
0.011497332668063048,1.792
0.011481955953827592,1.793
0.011471577358819804,1.794
0.011466206937603836,1.795
0.011465849403184573,1.796
0.011470505619766688,1.797
0.011480173836018941,1.798
0.011494850327432886,1.799
0.011514529165783284,1.8
0.011539200907481027,1.801
0.011568850406700262,1.802
0.011603454991944814,1.803
0.011642984597813058,1.804
0.011687403772809206,1.805
0.011736673642969186,1.806
0.011790752079372455,1.807
0.011849591918451986,1.808
0.011913138971036661,1.809
0.011981332003845498,1.81
0.012054104670601355,1.811
0.012131387236124615,1.812
0.012213106447776144,1.813
0.012299183586317515,1.814
0.012389532123456434,1.815
0.012484057083809176,1.816
0.012582656951069833,1.817
0.012685226842113331,1.818
0.01279166130637883,1.819
0.012901855975246448,1.82
0.013015707765364946,1.821
0.013133113560203764,1.822
0.013253967591159382,1.823
0.013378158056748732,1.824
0.013505564028786873,1.825
0.0136360540028202,1.826
0.013769486403130889,1.827
0.013905710780310915,1.828
0.014044568428175367,1.829
0.014185892139761989,1.83
0.01432950535361364,1.831
0.014475221133936258,1.832
0.01462284158124563,1.833
0.014772158247605444,1.834
0.014922953821887951,1.835
0.015075004774044805,1.836
0.015228083997139713,1.837
0.0153819620835318,1.838
0.015536405997291248,1.839
0.015691175702372346,1.84
0.0158460225478692,1.841
0.01600069276508181,1.842
0.016154934353315126,1.843
0.0163085030686851,1.844
0.01646116488654222,1.845
0.01661269410407925,1.846
0.01676286743650893,1.847
0.016911456807632726,1.848
0.01705822611095921,1.849
0.017202934822527965,1.85
0.01734534539634332,1.851
0.017485230173395334,1.852
0.017622376370056387,1.853
0.01775658893625976,1.854
0.017887690740231478,1.855
0.01801551926204522,1.856
0.018139919222916173,1.857
0.018260733478644927,1.858
0.018377799325087502,1.859
0.018490955101765745,1.86
0.018600052746432272,1.861
0.01870496886275221,1.862
0.01880561068813735,1.863
0.018901915928264755,1.864
0.018993846257977624,1.865
0.019081375747833102,1.866
0.019164479341212196,1.867
0.019243129771302856,1.868
0.019317305713989506,1.869
0.019387003883856748,1.87
0.019452246279395766,1.871
0.019513079008082586,1.872
0.019569562988449873,1.873
0.019621761401694547,1.874
0.01966973381280143,1.875
0.01971354189608534,1.876
0.019753259434843587,1.877
0.019788976666065047,1.878
0.01982079555535874,1.879
0.019848819546601084,1.88
0.019873147555925296,1.881
0.01989387901773422,1.882
0.0199111246955581,1.883
0.01992501367919403,1.884
0.019935692509758126,1.885
0.01994331703025338,1.886
0.0199480413225606,1.887
0.019950011960702514,1.888
0.019949371833238062,1.889
0.019946268166019174,1.89
0.019940857635485844,1.891
0.019933306704169974,1.892
0.01992378831672231,1.893
0.01991247652287433,1.894
0.01989954049287608,1.895
0.019885138954874877,1.896
0.01986941584424816,1.897
0.01985249801589032,1.898
0.019834495117844846,1.899
0.01981550039864473,1.9
0.019795591236413414,1.901
0.019774829273853125,1.902
0.01975326070693015,1.903
0.019730917424952463,1.904
0.01970781963444186,1.905
0.01968398027705565,1.906
0.01965941097459296,1.907
0.019634128531351523,1.908
0.01960816045662443,1.909
0.019581547821864293,1.91
0.019554344158630207,1.911
0.01952660989854258,1.912
0.01949840404452399,1.913
0.019469778564490763,1.914
0.01944078085424236,1.915
0.019411463074672335,1.916
0.019381892517582995,1.917
0.019352158628623262,1.918
0.019322374962031895,1.919
0.019292675676339858,1.92
0.019263207293315137,1.921
0.01923411797216848,1.922
0.01920554844463956,1.923
0.019177628521327074,1.924
0.019150478683319778,1.925
0.01912421245847132,1.926
0.01909893664565759,1.927
0.019074749559496337,1.928
0.01905173861611198,1.929
0.01902997852119138,1.93
0.01900953101629933,1.931
0.018990446638787243,1.932
0.018972768318233454,1.933
0.018956535970042127,1.934
0.018941790714459502,1.935
0.01892857714956193,1.936
0.018916942402550874,1.937
0.018906931617589894,1.938
0.018898582011579117,1.939
0.018891920380033216,1.94
0.018886966633101687,1.941
0.018883740035320576,1.942
0.018882263631560894,1.943
0.018882565423583523,1.944
0.01888467675825724,1.945
0.01888862881342945,1.946
0.01889444813557548,1.947
0.018902151964534198,1.948
0.01891174418660761,1.949
0.018923213358920332,1.95
0.01893653359554768,1.951
0.018951667088330404,1.952
0.018968566337187277,1.953
0.01898717495562326,1.954
0.019007426533111646,1.955
0.0190292420034469,1.956
0.019052527442935157,1.957
0.01907717347802003,1.958
0.019103055486830268,1.959
0.019130035409715664,1.96
0.01915796794591156,1.961
0.019186710814051006,1.962
0.01921613499286987,1.963
0.019246130518721934,1.964
0.01927660482160348,1.965
0.01930747411549602,1.966
0.019338654957362384,1.967
0.019370065268965855,1.968
0.01940163537954099,1.969
0.019433320526680255,1.97
0.019465107498334,1.971
0.019497013709001844,1.972
0.01952907984751905,1.973
0.019561358080379645,1.974
0.019593899461232026,1.975
0.019626746566271107,1.976
0.01965993455767774,1.977
0.01969349649638597,1.978
0.019727466832348727,1.979
0.01976188097743695,1.98
0.01979677165543733,1.981
0.019832163473448166,1.982
0.019868067750031495,1.983
0.01990447955372749,1.984
0.01994137702071531,1.985
0.019978721898937606,1.986
0.020016462070074348,1.987
0.020054537381327186,1.988
0.02009288759063089,1.989
0.020131459491769352,1.99
0.020170210597976385,1.991
0.020209107671239686,1.992
0.020248120181440968,1.993
0.020287212825243716,1.994
0.020326344368577536,1.995
0.020365475601408233,1.996
0.020404581149804143,1.997
0.020443658639939837,1.998
0.020482732435835562,1.999
0.020521851434407,2.0
0.020561081358812246,2.001
0.020600493405766054,2.002
0.020640153812371203,2.003
0.020680120335716454,2.004
0.020720446952415168,2.005
0.020761191650811313,2.006
0.02080242227044086,2.007
0.020844219064384908,2.008
0.02088667421172591,2.009
0.020929888539561937,2.01
0.02097396580449824,2.011
0.021019005326161945,2.012
0.021065095176948292,2.013
0.021112309280431698,2.014
0.02116070936576351,2.015
0.021210348767622376,2.016
0.021261274975599317,2.017
0.021313530269491898,2.018
0.02136715089195512,2.019
0.021422165260752662,2.02
0.021478591689457874,2.021
0.02153643601933556,2.022
0.021595689482106616,2.023
0.021656327017037166,2.024
0.02171830616276411,2.025
0.021781566536920385,2.026
0.021846029790872787,2.027
0.02191159975954657,2.028
0.02197816232085166,2.029
0.022045584796365744,2.03
0.022113716074592085,2.031
0.022182389332740204,2.032
0.02225142770950689,2.033
0.022320651416270543,2.034
0.022389884351324135,2.035
0.022458958695986162,2.036
0.022527716645538702,2.037
0.022596009250878412,2.038
0.02266369295289489,2.039
0.02273062447253606,2.04
0.022796654448385904,2.041
0.02286162138560583,2.042
0.022925350241557268,2.043
0.0229876588106445,2.044
0.023048369444018432,2.045
0.023107321233149354,2.046
0.0231643795108138,2.047
0.023219440948957237,2.048
0.0232724334149495,2.049
0.02332331084523439,2.05
0.023372044285986507,2.051
0.02341861066704429,2.052
0.02346298158175399,2.053
0.02350511589387256,2.054
0.023544959298696586,2.055
0.02358244949477292,2.056
0.023617522707318032,2.057
0.023650118792513986,2.058
0.023680184307497895,2.059
0.023707673607752014,2.06
0.023732548153386133,2.061
0.023754774302403636,2.062
0.023774319919087735,2.063
0.023791150132587445,2.064
0.023805222573694974,2.065
0.023816482422336024,2.066
0.023824857908438916,2.067
0.023830257529694383,2.068
0.023832569841205763,2.069
0.023831664978286298,2.07
0.023827396277132724,2.071
0.023819601033665358,2.072
0.023808100010131603,2.073
0.023792695916437744,2.074
0.02377317276558222,2.075
0.023749298680361373,2.076
0.023720832461440897,2.077
0.0236875316299323,2.078
0.023649159040059844,2.079
0.02360548543860923,2.08
0.02355628584906779,2.081
0.023501331515615356,2.082
0.02344038651813165,2.083
0.02337321720905065,2.084
0.02329961082673221,2.085
0.023219393624560002,2.086
0.023132442610470202,2.087
0.023038688761370173,2.088
0.022938111283413633,2.089
0.022830723839885398,2.09
0.022716556209708406,2.091
0.022595640093388346,2.092
0.02246800892114811,2.093
0.0223337117094272,2.094
0.022192830941015065,2.095
0.02204549540660573,2.096
0.021891884585214193,2.097
0.02173222419648394,2.098
0.021566774155809123,2.099
0.02139581158358989,2.1
0.021219614181897512,2.101
0.021038452067476246,2.102
0.02085259128984654,2.103
0.02066230259646138,2.104
0.020467867837012887,2.105
0.020269581750941987,2.106
0.02006774942831732,2.107
0.019862679968225463,2.108
0.019654678293864573,2.109
0.019444039801821654,2.11
0.01923105152894997,2.111
0.019015997516421954,2.112
0.018799162844056264,2.113
0.018580833234012162,2.114
0.018361290660053032,2.115
0.018140808463728696,2.116
0.01791965050695497,2.117
0.017698075102618657,2.118
0.017476339913018165,2.119
0.017254704308465273,2.12
0.0170334284839334,2.121
0.016812770069053334,2.122
0.01659297949924785,2.123
0.016374296112545643,2.124
0.016156946857669205,2.125
0.01594114752564874,2.126
0.01572710451768726,2.127
0.015515015616004416,2.128
0.015305069600671472,2.129
0.015097445083193228,2.13
0.01489230900264809,2.131
0.014689815429203792,2.132
0.014490105325305725,2.133
0.014293307262108878,2.134
0.014099538381986153,2.135
0.013908904945857344,2.136
0.013721502191580076,2.137
0.013537413761326266,2.138
0.013356711787183997,2.139
0.013179458558084169,2.14
0.013005709239227493,2.141
0.012835514390008657,2.142
0.012668921481662907,2.143
0.012505975135361848,2.144
0.012346716166085044,2.145
0.012191179818736037,2.146
0.012039393689620034,2.147
0.011891375906673328,2.148
0.01174713432627243,2.149
0.011606667184578218,2.15
0.01146996480368326,2.151
0.011337011669642363,2.152
0.011207788495626352,2.153
0.011082274024988752,2.154
0.010960446327409985,2.155
0.010842283405875399,2.156
0.010727763032873773,2.157
0.0106168618213775,2.158
0.01050955360262936,2.159
0.010405807256395365,2.16
0.010305584555258925,2.161
0.010208839253445472,2.162
0.010115518176905055,2.163
0.010025563593630354,2.164
0.00993891578852383,2.165
0.00985551542570285,2.166
0.009775305510804005,2.167
0.009698232628160695,2.168
0.009624247055097051,2.169
0.009553301404085883,2.17
0.009485347776940102,2.171
0.009420334613066014,2.172
0.009358205699019725,2.173
0.009298902421092143,2.174
0.009242367267958195,2.175
0.009188546076098971,2.176
0.009137388198875378,2.177
0.009088844889623426,2.178
0.00904286651816232,2.179
0.00899939952897493,2.18
0.008958384477043712,2.181
0.008919756182303952,2.182
0.008883445668380549,2.183
0.00884938269456995,2.184
0.008817498068151406,2.185
0.00878772540540858,2.186
0.008760002051364834,2.187
0.008734268808551535,2.188
0.008710468212034726,2.189
0.008688541608507152,2.19
0.008668426470350881,2.191
0.008650055945652753,2.192
0.00863336106752131,2.193
0.008618274109606859,2.194
0.008604731735285774,2.195
0.008592677640249213,2.196
0.008582064604240955,2.197
0.008572855602539424,2.198
0.008565023506924323,2.199
0.008558549061333815,2.2
0.00855341718685114,2.201
0.00854961249860804,2.202
0.008547116148380756,2.203
0.008545905773044062,2.204
0.008545957806264185,2.205
0.008547249929411924,2.206
0.008549762432245792,2.207
0.00855347853734716,2.208
0.008558384140639518,2.209
0.008564467363878678,2.21
0.008571718092604996,2.211
0.008580127401126835,2.212
0.008589686590878266,2.213
0.008600385589974268,2.214
0.008612210784918091,2.215
0.008625143021382004,2.216
0.008639156770214755,2.217
0.008654220399081378,2.218
0.008670296367207212,2.219
0.008687340997267581,2.22
0.008705305143475476,2.221
0.00872413675355033,2.222
0.008743784430063583,2.223
0.008764200224285427,2.224
0.008785340322181949,2.225
0.008807163048099911,2.226
0.008829625544956171,2.227
0.008852682932991261,2.228
0.00887629226665841,2.229
0.00890041887802475,2.23
0.008925041250858612,2.231
0.008950152662290784,2.232
0.008975759503346371,2.233
0.009001876989730923,2.234
0.009028523465060802,2.235
0.009055714978819481,2.236
0.009083462213413598,2.237
0.009111770503861093,2.238
0.009140641348749066,2.239
0.009170073629172014,2.24
0.009200064196699446,2.241
0.009230608140131283,2.242
0.009261698939523092,2.243
0.00929332853478019,2.244
0.009325487173340963,2.245
0.009358162831159563,2.246
0.009391340065351764,2.247
0.009424998346584114,2.248
0.009459110355794402,2.249
0.00949364114826203,2.25
0.009528548516379888,2.251
0.00956378371881145,2.252
0.009599291617029937,2.253
0.00963501006824585,2.254
0.009670869173204599,2.255
0.009706791199275077,2.256
0.009742691321491479,2.257
0.009778478432809873,2.258
0.009814055215670761,2.259
0.00984931743956765,2.26
0.009884153574446976,2.261
0.009918446009484294,2.262
0.009952073785866815,2.263
0.009984915531830486,2.264
0.010016851336768388,2.265
0.010047762759812978,2.266
0.010077530738490355,2.267
0.010106032818130002,2.268
0.01013314303458852,2.269
0.010158736331948297,2.27
0.010182695376052212,2.271
0.010204916242147396,2.272
0.010225310829447,2.273
0.010243805082456437,2.274
0.010260333275758843,2.275
0.010274831256168902,2.276
0.010287233960816477,2.277
0.010297479555907709,2.278
0.010305516441849143,2.279
0.010311308435984401,2.28
0.010314836623193453,2.281
0.010316098178967096,2.282
0.010315102860180902,2.283
0.010311868004162238,2.284
0.010306412818822953,2.285
0.010298753164356264,2.286
0.010288898963485822,2.287
0.010276855417754237,2.288
0.01026262645570582,2.289
0.010246218146586092,2.29
0.01022764121560264,2.291
0.01020691264657135,2.292
0.010184056475806492,2.293
0.01015910384419811,2.294
0.010132092230053921,2.295
0.010103063662708866,2.296
0.010072061756942577,2.297
0.010039127984766161,2.298
0.010004298863500825,2.299
0.009967606006600729,2.3
0.009929078954520894,2.301
0.009888748805141654,2.302
0.009846651003404917,2.303
0.009802826697452059,2.304
0.009757322433457958,2.305
0.009710188023353872,2.306
0.009661472993768372,2.307
0.009611223638434049,2.308
0.009559483432333349,2.309
0.009506297029254188,2.31
0.009451714911965088,2.311
0.009395795717337148,2.312
0.009338605036922938,2.313
0.009280211319744094,2.314
0.009220681842627169,2.315
0.009160082477448818,2.316
0.009098481633583804,2.317
0.009035955062534374,2.318
0.00897258857295878,2.319
0.008908477925237256,2.32
0.0088437262859448,2.321
0.008778439919798778,2.322
0.00871272349769697,2.323
0.008646677500205558,2.324
0.00858039919505235,2.325
0.008513985637677043,2.326
0.008447536208072334,2.327
0.00838115366615838,2.328
0.008314943785100235,2.329
0.00824901391968104,2.33
0.008183470990410576,2.331
0.00811841936201747,2.332
0.008053958974638198,2.333
0.007990183893629627,2.334
0.007927181342566108,2.335
0.007865031357471184,2.336
0.007803807134198263,2.337
0.007743575857930638,2.338
0.007684399718888173,2.339
0.007626336925402335,2.34
0.007569442536480986,2.341
0.007513768892359472,2.342
0.007459365436376294,2.343
0.007406277827797139,2.344
0.0073545467098511475,2.345
0.0073042071687844665,2.346
0.0072552895328679735,2.347
0.007207820825805301,2.348
0.0071618258143782525,2.349
0.007117327231927684,2.35
0.00707434520958669,2.351
0.007032896119515056,2.352
0.006992991274252166,2.353
0.0069546361417177635,2.354
0.006917830371216477,2.355
0.006882568200668151,2.356
0.0068488387551885795,2.357
0.006816626224409224,2.358
0.006785910139624166,2.359
0.00675666593166149,2.36
0.006728865847648156,2.361
0.006702480178995537,2.362
0.0066774786277800716,2.363
0.0066538315483236675,2.364
0.006631510771455843,2.365
0.006610489750747785,2.366
0.006590742847506229,2.367
0.006572243686794498,2.368
0.006554963084053173,2.369
0.0065388680293951285,2.37
0.006523922818230146,2.371
0.006510091487172572,2.372
0.0064973399647829284,2.373
0.006485637164132811,2.374
0.00647495494521801,2.375
0.006465267180253294,2.376
0.006456548321785191,2.377
0.006448771863292322,2.378
0.006441908946327851,2.379
0.0064359272186286605,2.38
0.006430789957227965,2.381
0.00642645543583028,2.382
