VaMe,time
0.0024655262365707053,0.001
0.0026541663820115625,0.002
0.002842615805401986,0.003
0.0030306503022164053,0.004
0.003218053713213127,0.005
0.003404621819977154,0.006
0.003590164738296398,0.007
0.003774507558896685,0.008
0.003957489263017816,0.009
0.004138960096090543,0.01
0.004318777718011193,0.011
0.004496802897870758,0.012
0.004672896365816398,0.013
0.004846918173262222,0.014
0.005018728900375204,0.015
0.0051881907790179,0.016
0.005355167608277838,0.017
0.005519523484623273,0.018
0.005681120913380866,0.019
0.005839819337565001,0.02
0.005995475145582568,0.021
0.006147943260409071,0.022
0.006297079507896616,0.023
0.0064427430031649136,0.024
0.006584798101924035,0.025
0.006723115477166089,0.026
0.006857571837331554,0.027
0.006988047893817194,0.028
0.00711442509775356,0.029
0.0072365836741703216,0.03
0.0073544047229162045,0.031
0.007467776108407529,0.032
0.007576599456194496,0.033
0.007680795992040729,0.034
0.007780309974033186,0.035
0.00787510895822236,0.036
0.00796518061326276,0.037
0.008050526413699013,0.038
0.008131153884582784,0.039
0.008207071161566321,0.04
0.008278287034758148,0.041
0.008344815226245552,0.042
0.008406679003506416,0.043
0.008463913837802048,0.044
0.008516567946564475,0.045
0.008564701283506494,0.046
0.0086083836398139,0.047
0.0086476924339434,0.048
0.008682710559310195,0.049
0.008713524413674562,0.05
0.008740222021520175,0.051
0.008762891025562651,0.052
0.008781616352550575,0.053
0.008796478013835006,0.054
0.008807550534155554,0.055
0.008814904991228766,0.056
0.008818612707471472,0.057
0.008818748952716256,0.058
0.008815395685305523,0.059
0.008808642786692545,0.06
0.00879858743203435,0.061
0.008785331537714361,0.062
0.008768977824225532,0.063
0.008749626293354457,0.064
0.008727373538217512,0.065
0.008702315239289249,0.066
0.008674549445572256,0.067
0.008644178201571312,0.068
0.008611306698744868,0.069
0.008576040375461285,0.07
0.008538481702521276,0.071
0.008498729116491695,0.072
0.008456878735932422,0.073
0.008413026897307649,0.074
0.008367271574078143,0.075
0.008319712346624854,0.076
0.008270449389156116,0.077
0.008219582002257976,0.078
0.008167207069260798,0.079
0.008113417546124145,0.08
0.008058301077624607,0.081
0.008001939352036884,0.082
0.007944409019343734,0.083
0.007885784156045319,0.084
0.007826139383931003,0.085
0.007765552694625945,0.086
0.007704107266212852,0.087
0.007641891716163812,0.088
0.007578998480192011,0.089
0.007515520687852126,0.09
0.007451549245151244,0.091
0.007387172329746913,0.092
0.0073224774691044376,0.093
0.0072575540550610775,0.094
0.007192494415528117,0.095
0.007127393075731461,0.096
0.007062344642977619,0.097
0.006997441149791645,0.098
0.0069327700025443055,0.099
0.006868413172867627,0.1
0.006804447095381904,0.101
0.006740942558619647,0.102
0.006677964769745168,0.103
0.006615573882785502,0.104
0.00655382553205641,0.105
0.00649277080210877,0.106
0.00643245581108677,0.107
0.006372921728258195,0.108
0.0063142056921139155,0.109
0.006256342153587319,0.11
0.006199363947294158,0.111
0.0061433028685750546,0.112
0.006088189894843084,0.113
0.006034055312944322,0.114
0.005980928988706441,0.115
0.005928840843901446,0.116
0.005877821366244186,0.117
0.0058279017806609264,0.118
0.0057791134552121655,0.119
0.00573148649589351,0.12
0.005685048509639629,0.121
0.005639825006782143,0.122
0.0055958416027352565,0.123
0.005553126602514713,0.124
0.005511712649694735,0.125
0.005471637099757956,0.126
0.005432941381223322,0.127
0.005395669799137043,0.128
0.005359868183524557,0.129
0.005325582579419687,0.13
0.005292857983163078,0.131
0.005261737072402641,0.132
0.005232259036165883,0.133
0.005204458873242424,0.134
0.005178367394426369,0.135
0.0051540116253566744,0.136
0.0051314151019874925,0.137
0.005110597823783601,0.138
0.005091575911187802,0.139
0.005074361170662464,0.14
0.0050589608424811945,0.141
0.005045377746786284,0.142
0.005033610868535782,0.143
0.005023656241090895,0.144
0.00501550790294843,0.145
0.005009158718745924,0.146
0.0050046009049008475,0.147
0.005001826131996805,0.148
0.005000825109044862,0.149
0.005001586638754416,0.15
0.00500409646609432,0.151
0.005008336689925174,0.152
0.005014286137627315,0.153
0.005021921065997573,0.154
0.005031215304218986,0.155
0.005042139744622035,0.156
0.005054662068769249,0.157
0.005068747666490717,0.158
0.005084361577117417,0.159
0.005101470437986839,0.16
0.005120043625644433,0.161
0.00514005322861871,0.162
0.005161472789724559,0.163
0.005184275264182114,0.164
0.005208431479501006,0.165
0.0052339103329905184,0.166
0.005260680399343402,0.167
0.005288711447668677,0.168
0.00531797477214865,0.169
0.005348442112978441,0.17
0.005380083715529066,0.171
0.005412866759955882,0.172
0.005446754918440788,0.173
0.005481708406393775,0.174
0.005517683978863802,0.175
0.0055546356484895,0.176
0.005592516731099701,0.177
0.00563128242420532,0.178
0.005670891734942626,0.179
0.0057113081774675814,0.18
0.005752499144249274,0.181
0.005794434077622566,0.182
0.005837081951190387,0.183
0.005880409303221101,0.184
0.005924380055457309,0.185
0.005968956820983116,0.186
0.0060141021518661675,0.187
0.006059778642612966,0.188
0.006105947845480532,0.189
0.006152568560814591,0.19
0.006199595365781086,0.191
0.006246977999240549,0.192
0.006294661349311433,0.193
0.006342585357960483,0.194
0.00639068476077524,0.195
0.006438889148504126,0.196
0.006487123499156952,0.197
0.006535308795549242,0.198
0.0065833624195100375,0.199
0.006631198421771848,0.2
0.0066787280357021115,0.201
0.006725860876913592,0.202
0.006772507155861675,0.203
0.006818580904341184,0.204
0.006864003731171841,0.205
0.006908708116124877,0.206
0.006952638937574909,0.207
0.0069957520273885064,0.208
0.00703800984688666,0.209
0.007079377421080903,0.21
0.007119823015181871,0.211
0.007159324079744443,0.212
0.007197874343778007,0.213
0.007235488210617266,0.214
0.007272201309625045,0.215
0.007308067587081665,0.216
0.007343153913866022,0.217
0.007377533482045362,0.218
0.007411279673900116,0.219
0.0074444624963840265,0.22
0.007477148317483692,0.221
0.0075094011945874735,0.222
0.007541283884085299,0.223
0.007572858195855685,0.224
0.007604185100249503,0.225
0.007635324829671818,0.226
0.0076663368976058605,0.227
0.007697279723531706,0.228
0.007728209562617482,0.229
0.0077591788285600646,0.23
0.007790234529034823,0.231
0.007821417529060645,0.232
0.007852762449238451,0.233
0.007884297811685512,0.234
0.007916046964006022,0.235
0.0079480302699018,0.236
0.007980267876211618,0.237
0.008012781918910292,0.238
0.008045597486576224,0.239
0.008078742133641927,0.24
0.008112244045766928,0.241
0.008146129379580994,0.242
0.008180420097488381,0.243
0.008215133902917886,0.244
0.008250286492545566,0.245
0.008285894676022827,0.246
0.008321978839363656,0.247
0.008358563983194114,0.248
0.008395679059116805,0.249
0.008433354748397024,0.25
0.008471620319109542,0.251
0.008510500536703528,0.252
0.008550013594384839,0.253
0.008590170616579563,0.254
0.008630976604041421,0.255
0.00867243202496694,0.256
0.008714533933606328,0.257
0.008757275723744391,0.258
0.0088006458132274,0.259
0.008844627159633401,0.26
0.008889198962860913,0.261
0.008934339387996558,0.262
0.008980027316524695,0.263
0.00902624232879529,0.264
0.009072963107568064,0.265
0.009120164881940751,0.266
0.009167816854691703,0.267
0.009215880562361238,0.268
0.009264309375451632,0.269
0.009313048801390741,0.27
0.009362037719906846,0.271
0.009411210770754127,0.272
0.00946050138975814,0.273
0.009509844661759425,0.274
0.009559179328899752,0.275
0.009608448442020098,0.276
0.009657598233197916,0.277
0.009706575206393446,0.278
0.009755323018599488,0.279
0.009803782270861495,0.28
0.009851894518180205,0.281
0.009899608088768832,0.282
0.009946882615892959,0.283
0.009993691060462767,0.284
0.01004001935254657,0.285
0.010085864312754895,0.286
0.010131230665106935,0.287
0.010176127748976499,0.288
0.010220566171453694,0.289
0.010264554332756394,0.29
0.010308095222740161,0.291
0.010351185156147115,0.292
0.010393815729321089,0.293
0.010435977948457414,0.294
0.010477666618610116,0.295
0.010518883977504712,0.296
0.01055964204651249,0.297
0.010599963195693713,0.298
0.010639878569633575,0.299
0.010679424350355205,0.3
0.010718636685550722,0.301
0.01075754760043785,0.302
0.010796184351062051,0.303
0.010834572001198396,0.304
0.01087273663555566,0.305
0.01091070722015938,0.306
0.010948515637034925,0.307
0.010986194967801363,0.308
0.011023776348784016,0.309
0.01106128576932478,0.31
0.011098743302983233,0.311
0.011136165868654397,0.312
0.011173571660557118,0.313
0.0112109837198609,0.314
0.011248431374064076,0.315
0.011285949060858901,0.316
0.011323572621768245,0.317
0.011361334887796923,0.318
0.011399264235919254,0.319
0.011437387788506429,0.32
0.011475736373475659,0.321
0.011514347465216542,0.322
0.011553264788374628,0.323
0.011592535150738796,0.324
0.011632203946983236,0.325
0.011672311087496577,0.326
0.01171288869932523,0.327
0.011753960997632975,0.328
0.011795545662289353,0.329
0.01183765534639731,0.33
0.011880297889076564,0.331
0.011923474935022358,0.332
0.011967180837839726,0.333
0.012011404154825286,0.334
0.012056131469387036,0.335
0.01210135134502703,0.336
0.012147056906831499,0.337
0.01219324676187375,0.338
0.012239924462650882,0.339
0.012287096834534118,0.34
0.01233477148466158,0.341
0.01238295376227343,0.342
0.012431643470284302,0.343
0.012480832099222336,0.344
0.012530501921157556,0.345
0.012580627487559408,0.346
0.012631178445776837,0.347
0.012682122326838003,0.348
0.012733426727266966,0.349
0.012785060651815342,0.35
0.012836994780018745,0.351
0.012889200425087942,0.352
0.012941647010702032,0.353
0.012994298588174365,0.354
0.013047111411946758,0.355
0.01310003450026372,0.356
0.013153012325139341,0.357
0.013205986809355806,0.358
0.013258896615384713,0.359
0.013311674330987105,0.36
0.013364245250160769,0.361
0.013416530656582437,0.362
0.01346845367573829,0.363
0.01351994387145336,0.364
0.013570938814587272,0.365
0.013621382533834391,0.366
0.013671221371475776,0.367
0.013720398599956787,0.368
0.013768850555417425,0.369
0.0138165068958504,0.37
0.013863294668331116,0.371
0.013909143710785811,0.372
0.013953991691982814,0.373
0.013997788362750556,0.374
0.014040498742212415,0.375
0.014082104656189394,0.376
0.014122603887043828,0.377
0.01416200637502209,0.378
0.01420032747015588,0.379
0.01423758024756345,0.38
0.014273771747458159,0.381
0.014308906066660442,0.382
0.014342991195788966,0.383
0.014376045058499409,0.384
0.014408099134821314,0.385
0.014439199529226364,0.386
0.014469405332168289,0.387
0.014498784160773825,0.388
0.01452740552446618,0.389
0.01455533492710129,0.39
0.01458263290465813,0.391
0.014609359696604308,0.392
0.014635581452371309,0.393
0.014661373745734351,0.394
0.014686820812447151,0.395
0.014712010616667447,0.396
0.01473702809488429,0.397
0.014761951750899362,0.398
0.014786856385475326,0.399
0.014811818233374161,0.4
0.014836917398524725,0.401
0.014862236078477023,0.402
0.014887853818697398,0.403
0.01491384269305041,0.404
0.014940265355611871,0.405
0.014967175804760133,0.406
0.014994619811321943,0.407
0.015022633553925272,0.408
0.015051242848330147,0.409
0.015080465398036296,0.41
0.015110314765376375,0.411
0.015140803096447867,0.412
0.015171941057915713,0.413
0.015203735074454753,0.414
0.01523618386435549,0.415
0.015269277795079788,0.416
0.01530300243790373,0.417
0.015337343625007596,0.418
0.015372290591441939,0.419
0.015407835819472025,0.42
0.015443971670341823,0.421
0.01548068527442189,0.422
0.015517955042968259,0.423
0.01555575138478113,0.424
0.015594040152555963,0.425
0.015632785205279387,0.426
0.01567194798804794,0.427
0.015711484449695792,0.428
0.015751342062919078,0.429
0.015791460408373162,0.43
0.015831775730908687,0.431
0.01587222660270122,0.432
0.015912757998385322,0.433
0.015953322724419686,0.434
0.015993879939629762,0.435
0.016034390798390183,0.436
0.016074812539677453,0.437
0.016115094945505153,0.438
0.016155182785031384,0.439
0.016195023056628063,0.44
0.016234572726308693,0.441
0.016273803805224404,0.442
0.01631270433826213,0.443
0.016351274783681917,0.444
0.016389520485724215,0.445
0.016427443630115016,0.446
0.0164650400814158,0.447
0.016502302647228972,0.448
0.016539225858614826,0.449
0.016575806990045037,0.45
0.01661204236170152,0.451
0.016647921870977384,0.452
0.01668342657614278,0.453
0.016718531159837027,0.454
0.016753207876505947,0.455
0.016787428101072664,0.456
0.016821160445960565,0.457
0.016854366716144046,0.458
0.016886999187399623,0.459
0.016919002520340894,0.46
0.01695031957872162,0.461
0.016980897603455454,0.462
0.01701069214412346,0.463
0.017039667834814712,0.464
0.0170677959581459,0.465
0.017095049284735417,0.466
0.01712139570370489,0.467
0.017146793948039855,0.468
0.017171194588081567,0.469
0.017194545987569466,0.47
0.01721680225051404,0.471
0.017237930677215293,0.472
0.017257917227331897,0.473
0.017276768602351344,0.474
0.017294509718931792,0.475
0.017311176033433857,0.476
0.017326803478519007,0.477
0.01734142403474124,0.478
0.01735507238848823,0.479
0.017367798793449053,0.48
0.017379679795375323,0.481
0.017390822884958752,0.482
0.017401364340752165,0.483
0.01741146090535712,0.484
0.01742127772375691,0.485
0.017430977528817584,0.486
0.017440716583229997,0.487
0.01745064775928568,0.488
0.017460925532966003,0.489
0.01747170858954117,0.49
0.017483159589997858,0.491
0.017495443205647214,0.492
0.017508723552119364,0.493
0.017523161933415677,0.494
0.01753891537979336,0.495
0.017556135961914476,0.496
0.017574970488721853,0.497
0.017595560077404943,0.498
0.01761803918976644,0.499
0.017642533927364,0.5
0.017669159593501575,0.501
0.0176980182062605,0.502
0.017729197667285024,0.503
0.017762773762987658,0.504
0.01779881420443184,0.505
0.017837383264110045,0.506
0.017878546193582222,0.507
0.01792237273772828,0.508
0.01796893885005061,0.509
0.018018325783954414,0.51
0.018070616146917195,0.511
0.01812588792131285,0.512
0.018184210016118058,0.513
0.01824564297021353,0.514
0.018310243989745255,0.515
0.018378072038549204,0.516
0.01844918981237171,0.517
0.018523661874738133,0.518
0.01860154959617803,0.519
0.018682905011636657,0.52
0.0187677672668243,0.521
0.018856163428133583,0.522
0.018948111103849807,0.523
0.019043619678919363,0.524
0.01914268949443504,0.525
0.019245309698567633,0.526
0.01935145563067238,0.527
0.01946108649075798,0.528
0.019574143773713398,0.529
0.019690550560460682,0.53
0.019810211345987497,0.531
0.019933012116383212,0.532
0.020058821208855895,0.533
0.020187492049549026,0.534
0.020318868183376963,0.535
0.02045278988994811,0.536
0.02058910085410976,0.537
0.020727652776671286,0.538
0.02086830577401264,0.539
0.021010923286216003,0.54
0.021155363774679237,0.541
0.021301476712058266,0.542
0.02144910804560895,0.543
0.021598110831719083,0.544
0.021748353870641685,0.545
0.021899725640230513,0.546
0.022052133826994804,0.547
0.02220550145248146,0.548
0.022359760733641338,0.549
0.022514845494108857,0.55
0.02267068311124754,0.551
0.022827188782528887,0.552
0.022984265867120525,0.553
0.02314181270628042,0.554
0.02329973205770827,0.555
0.023457939021075742,0.556
0.023616365192791953,0.557
0.023774957902481242,0.558
0.023933674202019018,0.559
0.02409247103245342,0.56
0.024251296311799144,0.561
0.024410086886780105,0.562
0.024568773890942912,0.563
0.024727289771175446,0.564
0.024885571745145187,0.565
0.025043560196145353,0.566
0.02520119251240133,0.567
0.025358395580850967,0.568
0.025515083702369476,0.569
0.025671165778226767,0.57
0.02582655733452405,0.571
0.025981190307339613,0.572
0.026135016792898917,0.573
0.02628800557599036,0.574
0.02644013199460534,0.575
0.02659136579949591,0.576
0.02674166632197179,0.577
0.026890990022441687,0.578
0.027039304661945946,0.579
0.0271866016880911,0.58
0.027332903196780334,0.581
0.027478262590070888,0.582
0.027622758850895747,0.583
0.027766485356156313,0.584
0.027909535788617133,0.585
0.02805199245170901,0.586
0.028193922583487345,0.587
0.02833538243062322,0.588
0.02847642316907809,0.589
0.028617094259625362,0.59
0.02875744413477907,0.591
0.028897519849714014,0.592
0.029037367211345977,0.593
0.029177032157394256,0.594
0.02931656305070441,0.595
0.029456012580455552,0.596
0.029595437605869947,0.597
0.029734895722433614,0.598
0.029874438345825944,0.599
0.03001410219859537,0.6
0.030153903823782725,0.601
0.030293840624072647,0.602
0.030433896593735858,0.603
0.030574048688159428,0.604
0.030714272126337667,0.605
0.030854544806151678,0.606
0.030994851076325415,0.607
0.031135184647511537,0.608
0.03127554998258107,0.609
0.03141596125640511,0.61
0.0315564380034105,0.611
0.03169699692159213,0.612
0.03183764177899926,0.613
0.031978357936794655,0.614
0.03211911673731255,0.615
0.03225988663880557,0.616
0.03240064427098666,0.617
0.032541381957716636,0.618
0.03268211117655746,0.619
0.03282286215671621,0.62
0.03296367991561601,0.621
0.03310461692583443,0.622
0.03324572259335619,0.623
0.03338703187313638,0.624
0.03352855957879057,0.625
0.033670305138522705,0.626
0.03381226393145705,0.627
0.033954437960540394,0.628
0.03409684210430615,0.629
0.03423950487190983,0.63
0.03438246341769736,0.631
0.03452575325922364,0.632
0.03466939595445659,0.633
0.03481339259921288,0.634
0.034957728091693924,0.635
0.03510238077940937,0.636
0.035247328949801544,0.637
0.03539255084732851,0.638
0.035538018944078265,0.639
0.03568369076546257,0.64
0.035829500017324885,0.641
0.03597535224594851,0.642
0.0361211261950843,0.643
0.036266678074961506,0.644
0.03641184648770424,0.645
0.036556458463104215,0.646
0.03670033751724897,0.647
0.03684331338059641,0.648
0.03698523154487435,0.649
0.03712595959681335,0.65
0.037265386873483033,0.651
0.03740341454179911,0.652
0.03753993967167622,0.653
0.037674849056617575,0.654
0.03780803559261471,0.655
0.0379394291837274,0.656
0.03806902513210772,0.657
0.038196900403048586,0.658
0.038323214226603085,0.659
0.03844819218055628,0.66
0.03857209728916598,0.661
0.03869520111508161,0.662
0.038817774314183366,0.663
0.03894010208930285,0.664
0.03906250788016711,0.665
0.039185367417541875,0.666
0.03930910790551127,0.667
0.03943419400997137,0.668
0.03956110513992515,0.669
0.03969031378680927,0.67
0.0398222774940557,0.671
0.03995744676977752,0.672
0.04009627687097539,0.673
0.040239231462186165,0.674
0.04038677544498291,0.675
0.040539361441996116,0.676
0.04069741949624869,0.677
0.04086135712414353,0.678
0.04103156624676255,0.679
0.041208428618350584,0.68
0.041392315929996974,0.681
0.04158358541336445,0.682
0.0417825731392774,0.683
0.041989587390024535,0.684
0.04220490419150098,0.685
0.04242876623293741,0.686
0.042661385148178535,0.687
0.04290294590616687,0.688
0.043153611193171605,0.689
0.043413523261184084,0.69
0.043682801353631735,0.691
0.043961536977657104,0.692
0.0442497950619743,0.693
0.04454762628638726,0.694
0.04485508535685013,0.695
0.045172245687082044,0.696
0.0454992044684056,0.697
0.0458360758635158,0.698
0.04618297454695716,0.699
0.04653999986150443,0.7
0.046907233923717054,0.701
0.04728475505964608,0.702
0.04767265378280187,0.703
0.04807103937150944,0.704
0.04848003409789106,0.705
0.048899757845029306,0.706
0.04933030954306924,0.707
0.04977175441204777,0.708
0.05022412134645206,0.709
0.05068740573226058,0.71
0.05116157181273489,0.711
0.0516465544985546,0.712
0.05214226350880401,0.713
0.052648591555789284,0.714
0.05316542570114952,0.715
0.05369265847675457,0.716
0.054230194058757876,0.717
0.05477794541739965,0.718
0.055335821028894394,0.719
0.05590370704986842,0.72
0.05648145973305826,0.721
0.05706891682139882,0.722
0.05766591851495714,0.723
0.05827232365195878,0.724
0.05888801496726759,0.725
0.059512892707728846,0.726
0.06014685769240475,0.727
0.06078978962726294,0.728
0.061441534018681514,0.729
0.062101907304978624,0.73
0.06277071304131561,0.731
0.06344775434550183,0.732
0.06413283451042195,0.733
0.06482574485281699,0.734
0.06552624594083639,0.735
0.06623405670085016,0.736
0.06694886079918129,0.737
0.0676703224216243,0.738
0.06839809838310373,0.739
0.06913184143252306,0.74
0.06987119481273436,0.741
0.07061577924880265,0.742
0.0713651764590066,0.743
0.07211891880397511,0.744
0.07287649326933832,0.745
0.07363735665000079,0.746
0.07440095214788908,0.747
0.07516672085203988,0.748
0.07593410552226507,0.749
0.07670254532778409,0.75
0.07747146079655233,0.751
0.07824023376019916,0.752
0.07900819795974762,0.753
0.07977465258758373,0.754
0.0805388903200341,0.755
0.08130022211861732,0.756
0.08205798872296093,0.757
0.08281155603030568,0.758
0.0835602954047967,0.759
0.08430355509713887,0.76
0.08504063624765651,0.761
0.08577078716200165,0.762
0.08649321555644734,0.763
0.08720710639311313,0.764
0.0879116368423281,0.765
0.08860598837119345,0.766
0.08928935790415482,0.767
0.08996096806929094,0.768
0.09062007411175232,0.769
0.09126596301995471,0.77
0.09189793963455524,0.771
0.0925152995240685,0.772
0.09311730457234939,0.773
0.0937031876800369,0.774
0.09427219292354133,0.775
0.09482362801832243,0.776
0.09535690297346451,0.777
0.09587154245728693,0.778
0.09636716829828525,0.779
0.09684345387769067,0.78
0.09730006792656991,0.781
0.09773664767645455,0.782
0.0981528251718041,0.783
0.09854828050049091,0.784
0.09892278254127977,0.785
0.09927620207902604,0.786
0.09960849732280246,0.787
0.09991967523431536,0.788
0.1002097412872947,0.789
0.10047866852976049,0.79
0.10072641342966857,0.791
0.10095296858724596,0.792
0.10115841786541725,0.793
0.1013429690536103,0.794
0.10150695494250096,0.795
0.10165080264853167,0.796
0.10177497897649698,0.797
0.10187993419362251,0.798
0.10196607883534577,0.799
0.1020338067902117,0.8
0.10208353864245413,0.801
0.10211575464846445,0.802
0.10213100752906462,0.803
0.10212991569609804,0.804
0.10211313925342742,0.805
0.10208134284177425,0.806
0.10203515513259191,0.807
0.10197514414485208,0.808
0.10190182143981018,0.809
0.1018156640173551,0.81
0.10171713095662288,0.811
0.10160666030934504,0.812
0.10148464951789124,0.813
0.1013514460822248,0.814
0.10120737395840602,0.815
0.10105278472366439,0.816
0.10088809971664996,0.817
0.10071381888098883,0.818
0.10053049038861914,0.819
0.10033866374049705,0.82
0.1001388763382184,0.821
0.09993169781498709,0.822
0.09971779739505027,0.823
0.09949798815501307,0.824
0.09927323213710135,0.825
0.09904461021966,0.826
0.09881326751957481,0.827
0.0985803515415164,0.828
0.09834696668619151,0.829
0.0981141607320415,0.83
0.09788293354066481,0.831
0.09765424502583836,0.832
0.0974290109489567,0.833
0.09720808906010907,0.834
0.09699226295094333,0.835
0.09678223090617842,0.836
0.09657860229966521,0.837
0.09638190034726864,0.838
0.09619257267967962,0.839
0.09601101133844037,0.84
0.09583757827870354,0.841
0.09567262953326089,0.842
0.09551653244617495,0.843
0.09536967276335216,0.844
0.09523245100142241,0.845
0.09510526974240632,0.846
0.09498851462796863,0.847
0.09488253190284751,0.848
0.09478760685739905,0.849
0.09470395128271457,0.85
0.0946317060863398,0.851
0.09457095566943588,0.852
0.09452174611205211,0.853
0.094484102615196,0.854
0.09445804417177163,0.855
0.0944435931240383,0.856
0.09444077706330076,0.857
0.09444962138689204,0.858
0.09447013254679881,0.859
0.09450227492884768,0.86
0.09454594946536125,0.861
0.09460098454883749,0.862
0.09466714126359074,0.863
0.09474412407866518,0.864
0.09483158937754066,0.865
0.09492915049593983,0.866
0.09503637846166796,0.867
0.0951527955850235,0.868
0.09527786290090452,0.869
0.09541097287760987,0.87
0.09555145814768112,0.871
0.09569860954029714,0.872
0.09585168661429039,0.873
0.09600991127669985,0.874
0.0961724509055693,0.875
0.09633841169523796,0.876
0.09650685479927743,0.877
0.09667682289478495,0.878
0.09684735900369186,0.879
0.09701751250954055,0.88
0.09718633591450744,0.881
0.09735287748734966,0.882
0.09751617379382857,0.883
0.09767524260759096,0.884
0.09782907226512251,0.885
0.09797660571070484,0.886
0.09811673273911206,0.887
0.09824831223493366,0.888
0.09837022701330898,0.889
0.09848145057909768,0.89
0.0985811029832126,0.891
0.09866848153893405,0.892
0.098743059119739,0.893
0.0988044487045939,0.894
0.09885233995629758,0.895
0.09888643223868905,0.896
0.09890641039633066,0.897
0.09891198690371959,0.898
0.09890297818600381,0.899
0.09887936839374661,0.9
0.09884133738111593,0.901
0.0987892452692687,0.902
0.09872357467611685,0.903
0.09864485156841452,0.904
0.0985535913543985,0.905
0.09845030265967417,0.906
0.09833552549624966,0.907
0.09820985765105458,0.908
0.09807394848693908,0.909
0.09792846418699874,0.91
0.09777404481404224,0.911
0.09761128566984698,0.912
0.09744075723931632,0.913
0.09726304164300562,0.914
0.09707875769888633,0.915
0.09688856515151976,0.916
0.09669314863441192,0.917
0.09649318584359612,0.918
0.09628931507542533,0.919
0.09608212630614303,0.92
0.09587218453451755,0.921
0.09566006673894564,0.922
0.09544639045763131,0.923
0.09523182615720815,0.924
0.09501709367732752,0.925
0.09480294549158368,0.926
0.09459014114087462,0.927
0.09437941766389739,0.928
0.09417146163686684,0.929
0.09396689090099655,0.93
0.09376625260842879,0.931
0.0935700352798662,0.932
0.09337868618962794,0.933
0.09319262782134925,0.934
0.093012270893323,0.935
0.09283802196730416,0.936
0.09267028349044244,0.937
0.09250944499559412,0.938
0.09235586596299422,0.939
0.0922098545388879,0.94
0.09207165151103687,0.941
0.09194142732009872,0.942
0.09181928843520125,0.943
0.09170528213828875,0.944
0.09159939321001122,0.945
0.09150153514335853,0.946
0.09141154519002774,0.947
0.09132918819804348,0.948
0.09125416198739583,0.949
0.09118609649690182,0.95
0.09112455250521558,0.951
0.09106903243680432,0.952
0.0910190055623619,0.953
0.09097393783524274,0.954
0.0909333156496945,0.955
0.09089665734193304,0.956
0.0908635096070684,0.957
0.09083342836247954,0.958
0.09080594939104936,0.959
0.09078056677948489,0.96
0.09075674101614016,0.961
0.09073393879834346,0.962
0.09071168552571583,0.963
0.09068961110241239,0.964
0.09066747719793376,0.965
0.09064517709363391,0.966
0.09062270202239775,0.967
0.09060008377337052,0.968
0.0905773529837652,0.969
0.09055455040090377,0.97
0.0905317769229683,0.971
0.09050923483418477,0.972
0.09048723009625059,0.973
0.09046613340768675,0.974
0.09044632292992731,0.975
0.09042815320772733,0.976
0.0904119709924468,0.977
0.09039814411459564,0.978
0.09038706172498844,0.979
0.09037910507884102,0.98
0.09037462382296561,0.981
0.09037394667944139,0.982
0.0903774147862952,0.983
0.09038540636367406,0.984
0.09039833777586781,0.985
0.09041664294602288,0.986
0.09044074047559991,0.987
0.09047100604802417,0.988
0.09050776943997974,0.989
0.09055133752224975,0.99
0.09060202364055663,0.991
0.09066016317727685,0.992
0.09072610633350059,0.993
0.09080019173982948,0.994
0.09088272134797429,0.995
0.0909739600473494,0.996
0.0910741572208943,0.997
0.09118356385525844,0.998
0.09130242576233463,0.999
0.09143095823884491,1.0
0.09156932936843724,1.001
0.09171767227825466,1.002
0.09187611362443787,1.003
0.09204479187976482,1.004
0.09222385318670526,1.005
0.092413427817066,1.006
0.09261360299586302,1.007
0.09282441442549778,1.008
0.09304586298227284,1.009
0.09327793942260794,1.01
0.09352063827235226,1.011
0.09377395449113822,1.012
0.0940378638715252,1.013
0.0943122972320151,1.014
0.09459713054376273,1.015
0.09489220339665778,1.016
0.09519735020534366,1.017
0.0955124205600139,1.018
0.09583727819549165,1.019
0.09617177876483088,1.02
0.09651573867883342,1.021
0.09686892116336726,1.022
0.09723105403607947,1.023
0.09760186227329846,1.024
0.09798109066364365,1.025
0.09836850677720109,1.026
0.09876388383938486,1.027
0.09916697053172696,1.028
0.09957746972586566,1.029
0.0999950500657314,1.03
0.10041938841794391,1.031
0.10085021730720523,1.032
0.10128735273474192,1.033
0.10173068910767726,1.034
0.10218016080252684,1.035
0.10263569457840886,1.036
0.10309719622980247,1.037
0.10356458643069161,1.038
0.10403785073409133,1.039
0.10451706408226627,1.04
0.10500237923213243,1.041
0.10549398716245195,1.042
0.10599206549347552,1.043
0.10649673672815184,1.044
0.10700805251319735,1.045
0.10752599979192017,1.046
0.10805051168663075,1.047
0.10858147350691949,1.048
0.10911872489003034,1.049
0.10966206011966716,1.05
0.11021122550159691,1.051
0.11076591061252704,1.052
0.11132573364448214,1.053
0.11189023081883814,1.054
0.11245886111981893,1.055
0.1130310225717581,1.056
0.11360606492064929,1.057
0.11418328802844839,1.058
0.11476192716105643,1.059
0.11534113975604403,1.06
0.1159200106374019,1.061
0.1164975749077257,1.062
0.1170728410054291,1.063
0.11764479838197682,1.064
0.11821240385817407,1.065
0.1187745546516287,1.066
0.11933007494691958,1.067
0.11987773605800627,1.068
0.12041629526483662,1.069
0.12094452378528066,1.07
0.1214612072025439,1.071
0.12196511892389854,1.072
0.12245499322311543,1.073
0.12292953969600749,1.074
0.1233875087954715,1.075
0.12382777052723415,1.076
0.12424936017746506,1.077
0.12465146559847083,1.078
0.12503336129128892,1.079
0.1253943411687339,1.08
0.1257337171921034,1.081
0.1260508877074841,1.082
0.12634541236595864,1.083
0.126617040295109,1.084
0.12686568215963853,1.085
0.12709134087585905,1.086
0.12729402776795357,1.087
0.12747369927531743,1.088
0.12763023439153368,1.089
0.12776343720387592,1.09
0.12787303563313612,1.091
0.1279586677850915,1.092
0.12801986693175713,1.093
0.12805605970778772,1.094
0.1280665875086921,1.095
0.12805075308872585,1.096
0.12800788441081493,1.097
0.12793739850278368,1.098
0.1278388432864419,1.099
0.12771189855523293,1.1
0.12755632860749067,1.101
0.12737190778599525,1.102
0.12715837741063848,1.103
0.126915473577642,1.104
0.12664299386481306,1.105
0.1263408488511582,1.106
0.1260090796322944,1.107
0.1256478483765291,1.108
0.12525741487285957,1.109
0.12483811070480734,1.11
0.1243903163536496,1.111
0.12391443862111591,1.112
0.12341088024703835,1.113
0.12288000294449455,1.114
0.12232211201452825,1.115
0.12173749249434562,1.116
0.12112648645187209,1.117
0.12048957458950194,1.118
0.11982743500300201,1.119
0.11914096649491794,1.12
0.11843127234380359,1.121
0.11769960762047854,1.122
0.11694730057344109,1.123
0.11617567548535578,1.124
0.11538602048683766,1.125
0.11457961617034608,1.126
0.11375778863758787,1.127
0.11292194510187374,1.128
0.1120735803387683,1.129
0.1112142592281195,1.13
0.11034558459973293,1.131
0.10946916106615223,1.132
0.10858656414928583,1.133
0.1076993199471728,1.134
0.1068088948927534,1.135
0.10591669004184658,1.136
0.10502403382652684,1.137
0.1041321751740986,1.138
0.1032422873852375,1.139
0.10235548666423437,1.14
0.10147285457222241,1.141
0.10059545129347212,1.142
0.09972431484273578,1.143
0.09886044838617694,1.144
0.0980048017229949,1.145
0.09715825413319473,1.146
0.09632160384166524,1.147
0.09549556542536985,1.148
0.09468077244513101,1.149
0.09387778004033566,1.15
0.0930870644569824,1.151
0.09230902452122619,1.152
0.09154399320579648,1.153
0.09079225867941514,1.154
0.0900540858369808,1.155
0.08932972995920992,1.156
0.0886194382597905,1.157
0.08792343860475206,1.158
0.087241919564447,1.159
0.08657501327843568,1.16
0.08592279350370453,1.161
0.08528528859612039,1.162
0.08466249768586259,1.163
0.08405440135423094,1.164
0.08346096612977802,1.165
0.08288214506436675,1.166
0.0823178760332416,1.167
0.0817680777548854,1.168
0.08123264196141565,1.169
0.08071142050739034,1.17
0.08020421168291031,1.171
0.07971075688348568,1.172
0.07923075355901228,1.173
0.0787638763554524,1.174
0.07830979467192972,1.175
0.07786818041424322,1.176
0.07743870297796059,1.177
0.07702101235215748,1.178
0.07661472213506115,1.179
0.07621941108397357,1.18
0.07583464731277062,1.181
0.0754600178700148,1.182
0.07509514435529538,1.183
0.07473967617191013,1.184
0.07439326513451822,1.185
0.0740555411299262,1.186
0.07372611303121424,1.187
0.07340459621282794,1.188
0.07309064502866912,1.189
0.07278397241901013,1.19
0.07248435296152227,1.191
0.07219161173288416,1.192
0.0719056021077511,1.193
0.07162617624813578,1.194
0.07135315745552949,1.195
0.07108633089640591,1.196
0.07082546062060803,1.197
0.07057032049854277,1.198
0.07032072170259737,1.199
0.07007652785999947,1.2
0.06983765401378386,1.201
0.06960404773235161,1.202
0.0693756580690655,1.203
0.06915241124935095,1.204
0.06893421177268567,1.205
0.0687209640660054,1.206
0.06851259223006635,1.207
0.06830904248255748,1.208
0.068110266331894,1.209
0.06791619435356569,1.21
0.0677267227301742,1.211
0.06754172671061061,1.212
0.06736108880754459,1.213
0.06718472227964457,1.214
0.06701258295531921,1.215
0.06684466974906941,1.216
0.06668101468940893,1.217
0.06652166317063862,1.218
0.066366648580334,1.219
0.0662159746792904,1.22
0.066069620539227,1.221
0.06592756628088173,1.222
0.0657898225211099,1.223
0.06565644848098703,1.224
0.0655275529685215,1.225
0.0654032794016823,1.226
0.06528378109287641,1.227
0.06516919580626952,1.228
0.0650596278731486,1.229
0.06495514220513778,1.23
0.06485576902024133,1.231
0.0647615134571672,1.232
0.06467236260013735,1.233
0.06458828421683883,1.234
0.06450921672578895,1.235
0.06443505795677033,1.236
0.0643656633858929,1.237
0.06430085549303975,1.238
0.06424043594932764,1.239
0.06418419443869916,1.24
0.06413191483858104,1.241
0.0640833815241709,1.242
0.06403838688523888,1.243
0.06399673887114934,1.244
0.06395826584047482,1.245
0.0639228158085359,1.246
0.06389024818610814,1.247
0.06386041769740988,1.248
0.06383315436651689,1.249
0.0638082507384499,1.25
0.06378546669590357,1.251
0.06376454902723645,1.252
0.06374525415638978,1.253
0.06372736561846018,1.254
0.06371070247576027,1.255
0.06369511654284706,1.256
0.06368047792240415,1.257
0.0636666514621311,1.258
0.06365347270059504,1.259
0.06364073581762268,1.26
0.06362819685461919,1.261
0.06361558155532676,1.262
0.06360258856693024,1.263
0.06358888926934679,1.264
0.0635741297215982,1.265
0.06355793859656812,1.266
0.0635399417887406,1.267
0.06351978103222339,1.268
0.06349713142318184,1.269
0.06347171177229727,1.27
0.06344328251449718,1.271
0.06341162839994324,1.272
0.06337653119099781,1.273
0.06333775134515238,1.274
0.06329503689782862,1.275
0.06324815473020139,1.276
0.06319692430124567,1.277
0.0631412407655261,1.278
0.06308108460919201,1.279
0.06301651900040227,1.28
0.06294767727206897,1.281
0.06287474307127233,1.282
0.06279792513240633,1.283
0.06271742917471797,1.284
0.06263343480586307,1.285
0.06254609032211308,1.286
0.06245552883033625,1.287
0.062361892413830125,1.288
0.06226534844881262,1.289
0.06216609065823901,1.29
0.062064324327881976,1.291
0.06196024182657659,1.292
0.06185400155887846,1.293
0.06174571946515237,1.294
0.06163546818802069,1.295
0.06152327769127634,1.296
0.06140914305838962,1.297
0.06129304415389952,1.298
0.06117496842752111,1.299
0.06105492426391904,1.3
0.06093293871003006,1.301
0.06080904019663226,1.302
0.0606832356994706,1.303
0.060555500045668065,1.304
0.0604257857223676,1.305
0.060294040938678364,1.306
0.060160220261495666,1.307
0.06002428329197794,1.308
0.05988618361471301,1.309
0.059745852099735486,1.31
0.05960318064185864,1.311
0.05945801366946042,1.312
0.05931015011686217,1.313
0.059159351442987805,1.314
0.05900535158050769,1.315
0.05884786901850065,1.316
0.05868662152622988,1.317
0.05852134145347964,1.318
0.05835178712342044,1.319
0.05817774462201518,1.32
0.05799901497771878,1.321
0.05781539154187303,1.322
0.05762665097044624,1.323
0.057432577417130565,1.324
0.057233008283621656,1.325
0.0570278753586189,1.326
0.056817226203973385,1.327
0.05660122135743872,1.328
0.056380108796595114,1.329
0.05615418232045962,1.33
0.05592373893832277,1.331
0.055689058748665615,1.332
0.05545041740747122,1.333
0.055208113613357465,1.334
0.05496248935865811,1.335
0.0547139348711244,1.336
0.054462878080603995,1.337
0.05420976114082541,1.338
0.053955013401357804,1.339
0.053699037573695346,1.34
0.05344221600355786,1.341
0.0531849228984924,1.342
0.052927525521691506,1.343
0.05267037340791774,1.344
0.05241378984674457,1.345
0.052158078687742665,1.346
0.05190354207313036,1.347
0.05165049437418217,1.348
0.051399263921388466,1.349
0.051150183011396726,1.35
0.05090357101518119,1.351
0.050659717350193804,1.352
0.05041887078178666,1.353
0.050181236560835604,1.354
0.04994697730628079,1.355
0.049716214729773646,1.356
0.04948903376529895,1.357
0.04926549124882297,1.358
0.049045628466171894,1.359
0.0488294836671395,1.36
0.0486170988377166,1.361
0.048408515724968106,1.362
0.04820376292696265,1.363
0.04800284769320942,1.364
0.04780576472131513,1.365
0.04761251538233557,1.366
0.04742312053196652,1.367
0.04723761720724153,1.368
0.047056042182808205,1.369
0.046878418355061964,1.37
0.04670475948204476,1.371
0.046535089377870535,1.372
0.04636945871910088,1.373
0.046207949058149435,1.374
0.04605066374368981,1.375
0.04589770975634057,1.376
0.04574917762857464,1.377
0.045605130191184944,1.378
0.045465605980321136,1.379
0.045330631339155915,1.38
0.04520023236306052,1.381
0.0450744433548892,1.382
0.044953311091310726,1.383
0.044836893696975064,1.384
0.044725252850885425,1.385
0.044618440444305595,1.386
0.04451648674937132,1.387
0.044419399636109184,1.388
0.04432717581592011,1.389
0.04423981513896236,1.39
0.044157329681382765,1.391
0.04407974515523487,1.392
0.04400709517408542,1.393
0.04393940990376188,1.394
0.04387670229236431,1.395
0.04381895817389657,1.396
0.043766136262213734,1.397
0.043718177056732845,1.398
0.043675013871472775,1.399
0.04363658050536786,1.4
0.04360281354359881,1.401
0.04357364903320795,1.402
0.04354901430606727,1.403
0.04352881705005246,1.404
0.04351293600695871,1.405
0.04350121861493585,1.406
0.04349348657902357,1.407
0.043489544768623614,1.408
0.04348918875985921,1.409
0.043492209070877655,1.41
0.04349839099022318,1.411
0.04350750865240109,1.412
0.04351931540868947,1.413
0.043533540455740094,1.414
0.04354990078592628,1.415
0.043568123765402186,1.416
0.04358796731141618,1.417
0.043609227555803876,1.418
0.04363172874273104,1.419
0.04365530076753928,1.42
0.0436797659551537,1.421
0.043704950758544914,1.422
0.04373070907343281,1.423
0.043756933600168135,1.424
0.04378354626288527,1.425
0.04381047495750037,1.426
0.04383763505876701,1.427
0.04386492816787328,1.428
0.04389224871335625,1.429
0.0439194826554269,1.43
0.04394650011081152,1.431
0.043973156959164254,1.432
0.043999310335509564,1.433
0.04402483570478494,1.434
0.044049631986411666,1.435
0.04407361086100038,1.436
0.04409667721223749,1.437
0.04411871787049583,1.438
0.0441396097257063,1.439
0.04415923766880119,1.44
0.044177507148022065,1.441
0.04419434675838316,1.442
0.044209703487246566,1.443
0.04422353436443448,1.444
0.044235797379143064,1.445
0.04424644259226392,1.446
0.04425540255270055,1.447
0.044262582852791804,1.448
0.044267859286856955,1.449
0.044271086920703265,1.45
0.04427211631441259,1.451
0.0442708075493871,1.452
0.04426703627379008,1.453
0.04426068938306966,1.454
0.04425165162741586,1.455
0.044239791942105464,1.456
0.04422496214604872,1.457
0.044207010046102585,1.458
0.0441857945796197,1.459
0.04416119033220903,1.46
0.04413307778837549,1.461
0.04410132600151343,1.462
0.044065783567650736,1.463
0.04402628735124353,1.464
0.04398267979925809,1.465
0.043934821493957076,1.466
0.04388259509904158,1.467
0.04382590241680993,1.468
0.043764656943642975,1.469
0.043698773950608574,1.47
0.043628159067853216,1.471
0.04355269687758767,1.472
0.04347224507938957,1.473
0.04338664125302514,1.474
0.043295722625182505,1.475
0.043199352267206365,1.476
0.0430974443187158,1.477
0.0429899821466244,1.478
0.04287702401955077,1.479
0.04275869223604395,1.48
0.042635146824092154,1.481
0.04250655807305737,1.482
0.04237310107276716,1.483
0.04223497814145192,1.484
0.0420924486192251,1.485
0.041945844841352144,1.486
0.041795569034831115,1.487
0.04164207493518157,1.488
0.04148584008644924,1.489
0.04132733787590545,1.49
0.04116702230345569,1.491
0.04100533126351604,1.492
0.04084269856594054,1.493
0.0406795623149056,1.494
0.04051636605796551,1.495
0.04035355413390938,1.496
0.04019156343427678,1.497
0.04003081392622396,1.498
0.03987169991565619,1.499
0.03971458343886622,1.5
0.0395597905802896,1.501
0.0394076105983535,1.502
0.03925829686056095,1.503
0.039112068810878385,1.504
0.03896911502540865,1.505
0.03882959756270655,1.506
0.03869365725262062,1.507
0.03856141888417277,1.508
0.0384329948084327,1.509
0.038308485472779374,1.51
0.03818797590945921,1.511
0.03807152926566725,1.512
0.037959182206243704,1.513
0.037850947025209455,1.514
0.037746819173841366,1.515
0.037646784634043105,1.516
0.03755082343276263,1.517
0.03745890879543832,1.518
0.03737100297475744,1.519
0.03728705125667417,1.52
0.03720697550341266,1.521
0.03713066854102636,1.522
0.037057991156875705,1.523
0.036988772879911244,1.524
0.03692281575725267,1.525
0.03685989956981917,1.526
0.036799787650639904,1.527
0.036742232716575084,1.528
0.03668698164660045,1.529
0.03663377770029519,1.53
0.03658235863882248,1.531
0.03653245024364504,1.532
0.03648375866934919,1.533
0.03643596946264155,1.534
0.03638875744528473,1.535
0.03634180245801879,1.536
0.036294803436794094,1.537
0.036247486806577925,1.538
0.03619960740453063,1.539
0.03615094113765512,1.54
0.036101270374806066,1.541
0.03605036799378234,1.542
0.03599799140360767,1.543
0.03594389211074248,1.544
0.03588783311920787,1.545
0.03582960382406693,1.546
0.03576902843510792,1.547
0.03570596747870221,1.548
0.03564031272177967,1.549
0.03557197677916987,1.55
0.03550087953935715,1.551
0.035426933953727355,1.552
0.035350033785332136,1.553
0.03527004592700841,1.554
0.03518680869675649,1.555
0.035100134982937445,1.556
0.03500981827071115,1.557
0.034915641067458286,1.558
0.0348173860423424,1.559
0.03471484918448103,1.56
0.03460785273127537,1.561
0.03449625456031186,1.562
0.03437995064615299,1.563
0.03425886817108283,1.564
0.03413294963529596,1.565
0.03400213552447737,1.566
0.033866359723073156,1.567
0.03372556340351612,1.568
0.03357971604033117,1.569
0.03342882900385351,1.57
0.03327295544586577,1.571
0.033112175885841796,1.572
0.03294657657455812,1.573
0.032776238862985904,1.574
0.032601251092638055,1.575
0.03242173109690473,1.576
0.032237840423592914,1.577
0.03204978271071785,1.578
0.03185778755664015,1.579
0.03166208906938041,1.58
0.03146291595170604,1.581
0.03126050127531361,1.582
0.031055100609704917,1.583
0.030847003739613032,1.584
0.030636535552376377,1.585
0.03042404775274988,1.586
0.0302099042539468,1.587
0.02999446493924,1.588
0.029778075353581325,1.589
0.0295610670989994,1.59
0.029343764620614013,1.591
0.029126490405592634,1.592
0.028909565049344693,1.593
0.028693302915742114,1.594
0.02847800541560262,1.595
0.028263954388890632,1.596
0.028051408316722128,1.597
0.027840602372244602,1.598
0.02763175047745227,1.599
0.027425047247819977,1.6
0.027220669346025465,1.601
0.027018776384492946,1.602
0.02681951116934574,1.603
0.026622998800745076,1.604
0.02642934464194231,1.605
0.026238632747281464,1.606
0.026050927011959314,1.607
0.025866275295522947,1.608
0.025684714522616944,1.609
0.025506274736355358,1.61
0.02533098096941162,1.611
0.025158852319076053,1.612
0.024989898190680405,1.613
0.024824112983341202,1.614
0.02466147190056991,1.615
0.024501929334181112,1.616
0.02434541884153698,1.617
0.02419185513722267,1.618
0.024041140077312558,1.619
0.023893171326528292,1.62
0.0237478492996289,1.621
0.023605078642832004,1.622
0.023464763433777746,1.623
0.023326800650169604,1.624
0.023191080337939745,1.625
0.023057495814127128,1.626
0.022925958273165924,1.627
0.022796408580562925,1.628
0.022668822721927398,1.629
0.022543209751658803,1.63
0.02241960245576166,1.631
0.02229804321998716,1.632
0.022178571399883884,1.633
0.022061219633840345,1.634
0.02194601966517416,1.635
0.021833010334037985,1.636
0.021722241195059895,1.637
0.021613770369766853,1.638
0.02150765795492446,1.639
0.021403957507099055,1.64
0.021302709004253576,1.641
0.02120393533359996,1.642
0.02110764142748123,1.643
0.021013815135959346,1.644
0.020922430661787512,1.645
0.020833454197082112,1.646
0.020746849388181516,1.647
0.020662580523247872,1.648
0.020580612443259125,1.649
0.020500906917275453,1.65
0.02042341703384368,1.651
0.020348084304129,1.652
0.02027484242706507,1.653
0.02020362591003934,1.654
0.02013437871304916,1.655
0.020067059751743895,1.656
0.020001643796329117,1.657
0.019938117064526757,1.658
0.019876468645679685,1.659
0.01981668278684747,1.66
0.019758738438566372,1.661
0.01970261641143306,1.662
0.019648307778606114,1.663
0.019595817897380546,1.664
0.01954516475083022,1.665
0.019496372711091822,1.666
0.019449464022063764,1.667
0.019404451866602012,1.668
0.019361338939023764,1.669
0.01932012172706884,1.67
0.01928079685414714,1.671
0.019243366073043774,1.672
0.019207838428155263,1.673
0.01917422890943825,1.674
0.019142553426715714,1.675
0.019112821785193166,1.676
0.019085032957769376,1.677
0.019059175523784617,1.678
0.01903523064440033,1.679
0.019013173041100645,1.68
0.018992968642689657,1.681
0.018974570996498654,1.682
0.018957919405982616,1.683
0.018942939157690422,1.684
0.018929541668841105,1.685
0.018917624360570335,1.686
0.018907072582324692,1.687
0.018897763973734365,1.688
0.01888957267416023,1.689
0.018882370856175303,1.69
0.0188760268397922,1.691
0.018870400719589467,1.692
0.018865339770859916,1.693
0.0188606756688639,1.694
0.018856223831851773,1.695
0.018851785163242808,1.696
0.018847151266724135,1.697
0.018842112339568118,1.698
0.018836464604818554,1.699
0.018830013952318345,1.7
0.018822573392119527,1.701
0.01881395579342052,1.702
0.01880397024902482,1.703
0.01879242954844386,1.704
0.018779165480277464,1.705
0.01876404322569736,1.706
0.01874696980202732,1.707
0.018727895259979373,1.708
0.01870680686622372,1.709
0.018683717526931785,1.71
0.018658651146755707,1.711
0.01863163042305744,1.712
0.018602673249510728,1.713
0.01857179790310367,1.714
0.018539030656693697,1.715
0.018504410449890273,1.716
0.01846798952549194,1.717
0.0184298306558947,1.718
0.01839000179244704,1.719
0.018348569323229556,1.72
0.018305591641214716,1.721
0.01826111506954216,1.722
0.018215173891288516,1.723
0.01816779506398686,1.724
0.018119006452816205,1.725
0.018068845834273414,1.726
0.01801736730210338,1.727
0.017964642396550604,1.728
0.01791075496321049,1.729
0.017855791815738428,1.73
0.017799835317985582,1.731
0.017742963496453785,1.732
0.01768525630557262,1.733
0.017626802136300298,1.734
0.01756770112097229,1.735
0.017508065393569163,1.736
0.017448017669599608,1.737
0.017387689444468512,1.738
0.017327219622406305,1.739
0.017266753682952354,1.74
0.017206442807706585,1.741
0.017146441977064802,1.742
0.017086906113152115,1.743
0.017027984729151766,1.744
0.016969818173470607,1.745
0.016912538439331295,1.746
0.016856273198250536,1.747
0.016801149055809345,1.748
0.01674729175554181,1.749
0.016694823489876127,1.75
0.016643858629764804,1.751
0.01659449970052796,1.752
0.016546835086767315,1.753
0.01650093841309312,1.754
0.016456868729152543,1.755
0.016414671515104135,1.756
0.016374380788979147,1.757
0.016336021706759806,1.758
0.016299612845470792,1.759
0.016265167842296518,1.76
0.016232696339643745,1.761
0.01620220429764672,1.762
0.016173693899717286,1.763
0.016147163472966068,1.764
0.016122607918445258,1.765
0.016100019922732828,1.766
0.016079391679840124,1.767
0.01606071621306034,1.768
0.016043987041793644,1.769
0.016029195234523938,1.77
0.016016324945784734,1.771
0.01600535168137051,1.772
0.015996246377001113,1.773
0.015988982992702374,1.774
0.01598354547980051,1.775
0.015979932224801117,1.776
0.015978157658466094,1.777
0.01597825126126738,1.778
0.015980254606273996,1.779
0.015984217261459793,1.78
0.015990192362670363,1.781
0.015998232557930637,1.782
0.016008386820780793,1.783
0.01602069826266554,1.784
0.016035202551536124,1.785
0.016051926164298454,1.786
0.016070884611639958,1.787
0.01609208292663015,1.788
0.016115520539463617,1.789
0.016141199413674357,1.79
0.016169132439099995,1.791
0.01619934965626402,1.792
0.01623190070681328,1.793
0.01626685271091146,1.794
0.01630428388782733,1.795
0.016344274648600086,1.796
0.0163868997026936,1.797
0.01643222491200899,1.798
0.01648030894958612,1.799
0.01653120608560622,1.8
0.0165849672138667,1.801
0.016641638799650624,1.802
0.01670126026864642,1.803
0.016763860740895947,1.804
0.016829457107087345,1.805
0.016898055070635052,1.806
0.01696965224029028,1.807
0.017044240954015792,1.808
0.017121809352749526,1.809
0.01720234016799676,1.81
0.017285807769535432,1.811
0.01737217627154303,1.812
0.01746140202987519,1.813
0.017553440374896062,1.814
0.01764825306446773,1.815
0.017745813085726453,1.816
0.017846105038738295,1.817
0.017949120615881994,1.818
0.018054850861507248,1.819
0.018163280264007837,1.82
0.018274387280245538,1.821
0.018388149665867905,1.822
0.01850454892642155,1.823
0.018623570436721488,1.824
0.01874519927974082,1.825
0.018869413899983336,1.826
0.01899618096130084,1.827
0.019125453790847433,1.828
0.019257173257345505,1.829
0.019391268121622722,1.83
0.019527653598593955,1.831
0.019666229135868976,1.832
0.019806876849262856,1.833
0.019949461006649842,1.834
0.020093828659278168,1.835
0.020239811996308206,1.836
0.02038723209627431,1.837
0.0205359024633902,1.838
0.020685630873523222,1.839
0.020836218909835228,1.84
0.02098745932153158,1.841
0.02113913217070395,1.842
0.021291001830497678,1.843
0.02144281701889536,1.844
0.021594314241200244,1.845
0.02174522340781131,1.846
0.02189527466001683,1.847
0.02204420602868969,1.848
0.022191771247785517,1.849
0.02233774633189685,1.85
0.022481932914489286,1.851
0.02262415612305219,1.852
0.022764255496145948,1.853
0.022902072502295888,1.854
0.023037446174341728,1.855
0.0231702247378273,1.856
0.023300286219618032,1.857
0.023427555922245206,1.858
0.023552014848299458,1.859
0.02367369774208104,1.86
0.023792681272455013,1.861
0.02390906502420134,1.862
0.024022952369811154,1.863
0.02413444194477945,1.864
0.024243633302851543,1.865
0.024350637876040367,1.866
0.024455585558287463,1.867
0.02455862459156901,1.868
0.02465991609372088,1.869
0.024759625017771826,1.87
0.024857909889720885,1.871
0.024954914757730443,1.872
0.025050766287770906,1.873
0.02514557510096442,1.874
0.025239437316643878,1.875
0.02533243349865773,1.876
0.025424625704225996,1.877
0.025516056126086834,1.878
0.025606749904003124,1.879
0.025696720650298023,1.88
0.025785975579702976,1.881
0.025874518365355176,1.882
0.025962348682270382,1.883
0.026049457980413304,1.884
0.02613582348183034,1.885
0.02622140553361099,1.886
0.026306150991825136,1.887
0.026389998419871708,1.888
0.026472879166678984,1.889
0.026554713531022633,1.89
0.026635407678058252,1.891
0.02671485739178508,1.892
0.026792957007586524,1.893
0.026869606008140486,1.894
0.026944707723836687,1.895
0.02701816137411207,1.896
0.02708985687727845,1.897
0.027159681330937695,1.898
0.02722753447668661,1.899
0.027293343745900783,1.9
0.027357073038549833,1.901
0.027418723732651022,1.902
0.027478328276315956,1.903
0.02753593788050763,1.904
0.027591607202264067,1.905
0.027645381453684725,1.906
0.02769729234255531,1.907
0.027747363766174173,1.908
0.027795621262654977,1.909
0.02784209943993766,1.91
0.02788684561413127,1.911
0.02792991972986448,1.912
0.027971391077516655,1.913
0.028011332765370277,1.914
0.028049815181239213,1.915
0.028086899619146635,1.916
0.028122632815635994,1.917
0.028157042533926355,1.918
0.028190134114599197,1.919
0.02822188845388107,1.92
0.02825226212210856,1.921
0.028281189307882447,1.922
0.028308584296332755,1.923
0.02833434346844586,1.924
0.02835834645301599,1.925
0.028380456274195588,1.926
0.028400518311652547,1.927
0.028418358029016752,1.928
0.02843377859582606,1.929
0.02844656132401835,1.93
0.028456471251144064,1.931
0.02846326724821282,1.932
0.028466714397645684,1.933
0.028466596069015082,1.934
0.02846272217118463,1.935
0.028454929337297798,1.936
0.02844307103449857,1.937
0.028427004546654464,1.938
0.028406590692837116,1.939
0.02838171355367955,1.94
0.028352308484517027,1.941
0.028318382651715376,1.942
0.02828002124869357,1.943
0.02823737901056716,1.944
0.028190659608734313,1.945
0.02814008914376254,1.946
0.028085895093062124,1.947
0.028028300960957167,1.948
0.02796753436010647,1.949
0.027903836538406373,1.95
0.02783746545591641,1.951
0.02776869245738788,1.952
0.02769779558391591,1.953
0.02762505255748486,1.954
0.027550735611588262,1.955
0.02747510900815837,1.956
0.02739842879694294,1.957
0.027320943591411975,1.958
0.027242895018964965,1.959
0.027164516883488272,1.96
0.027086032652203728,1.961
0.027007651445737288,1.962
0.026929563467628283,1.963
0.026851936614917055,1.964
0.026774915360221786,1.965
0.02669862086482159,1.966
0.02662315069525968,1.967
0.026548578194924222,1.968
0.02647495233756442,1.969
0.02640229791501412,1.97
0.02633061588326779,1.971
0.026259884793252797,1.972
0.026190063913532607,1.973
0.02612109720942737,1.974
0.026052916902841478,1.975
0.02598544582501674,1.976
0.025918598230996574,1.977
0.02585227910218023,1.978
0.02578638232554162,1.979
0.02572078841273938,1.98
0.025655362504283723,1.981
0.02558995323568088,1.982
0.02552439264580306,1.983
0.025458496786170733,1.984
0.025392066206945278,1.985
0.025324885214035107,1.986
0.025256719902997445,1.987
0.025187318009359666,1.988
0.02511641434175802,1.989
0.025043741714185285,1.99
0.024969044011800643,1.991
0.024892087819282257,1.992
0.024812669439233857,1.993
0.02473061462298503,1.994
0.024645769698518602,1.995
0.024557987225956757,1.996
0.02446711663968758,1.997
0.024373009362955608,1.998
0.024275535351887017,1.999
0.024174600581112093,2.0
0.024070158752243644,2.001
0.02396221507969464,2.002
0.023850821442783766,2.003
0.023736063011312078,2.004
0.023618039767650697,2.005
0.02349685286871637,2.006
0.0233726055788116,2.007
0.02324541630163433,2.008
0.023115432278152534,2.009
0.022982836197084477,2.01
0.022847844472663147,2.011
0.02271069852578795,2.012
0.0225716511528669,2.013
0.022430952386781482,2.014
0.022288842158109272,2.015
0.02214555257316018,2.016
0.022001313233654556,2.017
0.021856352149873953,2.018
0.021710891362247683,2.019
0.021565141292796408,2.02
0.021419298529249925,2.021
0.021273547622504173,2.022
0.02112806299223842,2.023
0.020983007876786388,2.024
0.02083853136816634,2.025
0.020694767157232428,2.026
0.020551835914171288,2.027
0.020409849349141446,2.028
0.020268913256013266,2.029
0.020129128815025994,2.03
0.01999059256636746,2.031
0.019853395575388972,2.032
0.019717622155994926,2.033
0.01958334823573723,2.034
0.01945063919396969,2.035
0.019319547303973082,2.036
0.019190110162199073,2.037
0.019062352046720486,2.038
0.01893628838136886,2.039
0.01881193143171924,2.04
0.01868929521018656,2.041
0.018568398380716503,2.042
0.01844926467932438,2.043
0.018331921092715305,2.044
0.01821639460858342,2.045
0.018102708400573275,2.046
0.0179908778060589,2.047
0.017880906671077054,2.048
0.01777278632139809,2.049
0.017666499219726073,2.05
0.01756202596096367,2.051
0.017459352248332095,2.052
0.017358473398872712,2.053
0.017259395238640046,2.054
0.017162131323047437,2.055
0.017066697416375273,2.056
0.01697310481198172,2.057
0.016881354561792246,2.058
0.01679143456755269,2.059
0.01670331953612624,2.06
0.016616971649121664,2.061
0.016532340293200408,2.062
0.01644936101667671,2.063
0.016367954696599712,2.064
0.01628802795819238,2.065
0.016209475690475803,2.066
0.01613218598142834,2.067
0.016056046988431636,2.068
0.01598095435609075,2.069
0.01590681713206248,2.07
0.015833560071923367,2.071
0.015761120923290968,2.072
0.015689443235820822,2.073
0.015618469086508652,2.074
0.015548138184168248,2.075
0.015478394888569122,2.076
0.015409197838752626,2.077
0.015340526613343846,2.078
0.015272383426429084,2.079
0.015204789880654773,2.08
0.015137779641948084,2.081
0.015071389132437713,2.082
0.015005650151245034,2.083
0.014940588125810065,2.084
0.014876225591794176,2.085
0.014812587090643217,2.086
0.014749702742819672,2.087
0.014687610038146486,2.088
0.014626353992910552,2.089
0.014565985639606295,2.09
0.01450655873812121,2.091
0.01444812498088005,2.092
0.014390729483024705,2.093
0.014334409682907036,2.094
0.014279198707022017,2.095
0.01422513052091281,2.096
0.014172243717397427,2.097
0.01412058272164289,2.098
0.0140701963688611,2.099
0.014021134283600684,2.1
0.013973442076586816,2.101
0.013927157300202712,2.102
0.013882308324957742,2.103
0.01383891646132515,2.104
0.013796999663227026,2.105
0.013756576440059965,2.106
0.013717669697035447,2.107
0.01368031025896115,2.108
0.013644539314129851,2.109
0.013610408715960122,2.11
0.013577978246052716,2.111
0.013547310053880343,2.112
0.013518463106731493,2.113
0.013491492091064608,2.114
0.013466451859332262,2.115
0.0134434036703496,2.116
0.013422419414630252,2.117
0.01340358280011351,2.118
0.013386987900568654,2.119
0.013372735769571972,2.12
0.013360929939163381,2.121
0.013351671597496423,2.122
0.013345055197706028,2.123
0.013341165334821693,2.124
0.013340075480768645,2.125
0.01334184814994796,2.126
0.013346535341521039,2.127
0.013354178609686062,2.128
0.013364808900844245,2.129
0.013378446485968056,2.13
0.01339510117881123,2.131
0.013414772877753969,2.132
0.013437452358944788,2.133
0.013463122204282835,2.134
0.013491757765100944,2.135
0.013523328112448134,2.136
0.013557796960127053,2.137
0.01359512352771491,2.138
0.013635263238226746,2.139
0.013678168063199924,2.14
0.013723786298170454,2.141
0.013772061615721113,2.142
0.013822931395389534,2.143
0.013876324511973721,2.144
0.013932159133749419,2.145
0.013990341508377899,2.146
0.014050766169431194,2.147
0.014113316772782734,2.148
0.014177866637745154,2.149
0.014244278841981692,2.15
0.014312406115861289,2.151
0.014382090749894006,2.152
0.014453164587513952,2.153
0.014525449040707059,2.154
0.014598755057138896,2.155
0.014672883111304701,2.156
0.014747623497247944,2.157
0.01482275731350523,2.158
0.01489805843322772,2.159
0.014973296440677193,2.16
0.015048240112768604,2.161
0.015122660709317866,2.162
0.015196334244576283,2.163
0.015269042078041696,2.164
0.015340569502578238,2.165
0.015410702365725797,2.166
0.015479222370919176,2.167
0.015545903215831554,2.168
0.015610510774358769,2.169
0.015672808494940065,2.17
0.01573256598796519,2.171
0.01578956822491905,2.172
0.01584362378312795,2.173
0.015894570861446803,2.174
0.015942279781680467,2.175
0.015986651045052883,2.176
0.01602760868532941,2.177
0.01606508953003728,2.178
0.01609903162336169,2.179
0.016129368743208514,2.18
0.0161560349198706,2.181
0.016178974280831704,2.182
0.016198149642818706,2.183
0.016213547631849984,2.184
0.01622518053006613,2.185
0.016233085339525593,2.186
0.0162373206320589,2.187
0.016237961696875452,2.188
0.01623509440158087,2.189
0.01622880813346409,2.19
0.016219188658035785,2.191
0.016206313033662906,2.192
0.016190248857318058,2.193
0.016171057424561503,2.194
0.01614879799740247,2.195
0.016123531064096787,2.196
0.016095320110132122,2.197
0.016064232007772253,2.198
0.016030336172962647,2.199
0.01599370265243743,2.2
0.01595439933251148,2.201
0.015912488530047737,2.202
0.015868023404146434,2.203
0.015821045029268326,2.204
0.015771581039707844,2.205
0.015719645605982296,2.206
0.015665239589585444,2.207
0.01560835107420423,2.208
0.01554895786355436,2.209
0.01548703235078769,2.21
0.015422547243251051,2.211
0.01535547996334746,2.212
0.015285813690771616,2.213
0.015213534096326685,2.214
0.015138624491636363,2.215
0.015061065880184986,2.216
0.014980845050150291,2.217
0.014897966000907951,2.218
0.014812458110210274,2.219
0.014724378053206363,2.22
0.014633805290927754,2.221
0.014540832354602129,2.222
0.014445553723378789,2.223
0.014348060279031929,2.224
0.014248443076960887,2.225
0.014146801763882616,2.226
0.014043251056184782,2.227
0.013937922855308326,2.228
0.01383096407893595,2.229
0.013722530984986603,2.23
0.0136127816358738,2.231
0.013501869531375745,2.232
0.013389941682267592,2.233
0.013277141284581694,2.234
0.01316361172673598,2.235
0.013049499061981563,2.236
0.012934952269293533,2.237
0.012820121630546176,2.238
0.01270515579155387,2.239
0.012590198229749971,2.24
0.01247538400847675,2.241
0.012360837719236876,2.242
0.01224667276836112,2.243
0.012132991269541466,2.244
0.012019884103319363,2.245
0.011907431167482824,2.246
0.011795701671108041,2.247
0.011684754944912812,2.248
0.011574642910507076,2.249
0.011465414429958918,2.25
0.011357120531431173,2.251
0.011249819151518703,2.252
0.011143578051964058,2.253
0.011038474797192777,2.254
0.010934593292840546,2.255
0.010832018188501711,2.256
0.01073083118877508,2.257
0.0106311126073823,2.258
0.010532946541633377,2.259
0.010436425560682387,2.26
0.01034165275351971,2.261
0.010248741065811544,2.262
0.010157810572464742,2.263
0.010068984535305301,2.264
0.009982385063246188,2.265
0.009898129283975396,2.266
0.009816327222215055,2.267
0.009737081901881686,2.268
0.0096604906562811,2.269
0.009586646291009854,2.27
0.009515637629072269,2.271
0.00944754953990916,2.272
0.00938246262077122,2.273
0.009320452665072901,2.274
0.009261590016975994,2.275
0.009205938895780967,2.276
0.009153556764696213,2.277
0.00910449378863606,2.278
0.009058792376362262,2.279
0.009016486791932959,2.28
0.008977602899939941,2.281
0.008942158155115891,2.282
0.008910161804990265,2.283
0.008881615106138848,2.284
0.008856511375272868,2.285
0.00883483586883545,2.286
0.008816565717309476,2.287
0.008801670209013351,2.288
0.008790111459062564,2.289
0.00878184523191269,2.29
0.00877682168161881,2.291
0.008774985882296304,2.292
0.008776278110389613,2.293
0.008780633922566894,2.294
0.008787984136147868,2.295
0.00879825482146724,2.296
0.008811367333550783,2.297
0.008827238268285596,2.298
0.008845779105234942,2.299
0.008866895413536535,2.3
0.008890486080698017,2.301
0.008916443478036367,2.302
0.008944654813376682,2.303
0.008975003845592982,2.304
0.009007372078990787,2.305
0.009041639230677825,2.306
0.009077683254823481,2.307
0.009115380375855207,2.308
0.00915460551835701,2.309
0.009195233296724866,2.31
0.009237139466486109,2.311
0.009280202501962724,2.312
0.009324304750774207,2.313
0.009369332459321207,2.314
0.009415173980579849,2.315
0.009461716512817462,2.316
0.009508843982127407,2.317
0.009556438836652626,2.318
0.009604387047578069,2.319
0.009652583194637418,2.32
0.009700933546391377,2.321
0.009749356740178019,2.322
0.00979778244780632,2.323
0.009846148656960877,2.324
0.009894398145740014,2.325
0.009942474512287492,2.326
0.009990318263559807,2.327
0.010037864295756326,2.328
0.010085042171552015,2.329
0.01013177886391343,2.33
0.010178002180735803,2.331
0.010223643432739259,2.332
0.010268638731088247,2.333
0.010312928635435918,2.334
0.010356456029268572,2.335
0.010399162622888643,2.336
0.010440985873251324,2.337
0.010481858933042149,2.338
0.01052171418046886,2.339
0.01056048788098616,2.34
0.010598123146964348,2.341
0.010634569747581915,2.342
0.010669780627846195,2.343
0.01070370718308371,2.344
0.010736297540773765,2.345
0.010767499915224578,2.346
0.010797268118894645,2.347
0.010825565412614882,2.348
0.010852365477420448,2.349
0.010877650907526386,2.35
0.010901410045608302,2.351
0.010923633107634861,2.352
0.010944308427318652,2.353
0.010963419385393728,2.354
0.010980942254186863,2.355
0.010996844835691256,2.356
0.011011085640215993,2.357
0.011023613771168863,2.358
0.011034370202001556,2.359
0.01104329092446564,2.36
0.011050311775852927,2.361
0.011055374308680196,2.362
0.01105843180653291,2.363
0.011059454324292149,2.364
0.011058431600582229,2.365
0.011055372969854224,2.366
0.011050303931723925,2.367
0.011043259645342465,2.368
0.01103427724923907,2.369
0.011023391500049301,2.37
0.011010636987854285,2.371
0.01099605464408492,2.372
0.01097969795614675,2.373
0.010961636614300843,2.374
0.01094195731998922,2.375
0.010920762087176985,2.376
0.010898164597624582,2.377
0.010874285233460113,2.378
0.010849245403942455,2.379
0.010823162346710354,2.38
0.010796146497918631,2.381
0.01076830228523102,2.382
0.01073973038359532,2.383
0.010710529166422667,2.384
0.010680794843955704,2.385
0.010650620699785817,2.386
0.010620095916262926,2.387
0.010589304409227236,2.388
0.010558323917279878,2.389
0.010527225386854995,2.39
0.010496072538933377,2.391
0.010464921444056167,2.392
0.010433819970828212,2.393
0.010402807128930132,2.394
0.010371912573369134,2.395
0.010341156555865691,2.396
0.010310550231570233,2.397
0.010280095935134164,2.398
0.010249787168149617,2.399
0.010219608329957807,2.4
0.010189534470995524,2.401
0.010159531409493962,2.402
0.010129556277218702,2.403
0.010099558241962604,2.404
0.010069479124200361,2.405
0.010039253730238198,2.406
0.010008809775936931,2.407
0.009978067371076956,2.408
0.009946938430194698,2.409
0.009915326854295073,2.41
0.009883130014345454,2.411
0.009850241115127679,2.412
0.009816551599861273,2.413
0.009781952892491334,2.414
0.009746336843083006,2.415
0.009709594317870865,2.416
0.009671612653889192,2.417
0.009632275175632487,2.418
0.009591465459730183,2.419
0.009549074806457225,2.42
0.009505009230254324,2.421
0.009459193415726796,2.422
0.00941157036070719,2.423
0.009362096441930937,2.424
0.00931073383890068,2.425
0.009257445369576888,2.426
0.00920219593451288,2.427
0.009144958915896034,2.428
0.009085722745418724,2.429
0.009024494945023937,2.43
0.008961303257021212,2.431
0.00889619415846884,2.432
0.008829229231976224,2.433
0.008760479981716364,2.434
0.00869002179588345,2.435
0.008617928455434319,2.436
0.008544269534728163,2.437
0.008469111657404478,2.438
0.00839252162628496,2.439
0.008314569135109076,2.44
0.008235328488113224,2.441
0.008154879534303954,2.442
0.008073308006498442,2.443
0.00799070540735302,2.444
0.007907168510735887,2.445
0.007822798446999697,2.446
0.007737699246032057,2.447
0.00765197568093471,2.448
0.007565730640422314,2.449
0.007479063268731655,2.45
0.007392069345450426,2.451
0.007304843702875224,2.452
0.007217482886829238,2.453
0.007130086555341132,2.454
0.0070427571665935525,2.455
0.006955598196661281,2.456
0.0068687115415414285,2.457
0.006782195079990017,2.458
0.006696141328997956,2.459
0.006610637239596579,2.46
0.00652576426728373,2.461
0.006441598150693914,2.462
0.006358208626439921,2.463
0.006275659472344136,2.464
0.006194009065011785,2.465
0.00611331144027929,2.466
0.006033617612689392,2.467
0.005954976757824161,2.468
0.005877436917284992,2.469
0.005801045069956387,2.47
0.005725846621909936,2.471
0.0056518845272467465,2.472
0.005579198296067182,2.473
0.005507823143586296,2.474
0.00543778960202925,2.475
0.0053691238675031075,2.476
0.005301848858114765,2.477
0.005235985727433562,2.478
0.005171555526033157,2.479
0.005108580643368917,2.48
0.005047085617671871,2.481
0.004987097007080365,2.482
0.00492864226574628,2.483
0.004871747957259298,2.484
0.004816438143813695,2.485
0.004762733848579989,2.486
0.004710653609506343,2.487
0.004660214322038044,2.488
0.004611431818516449,2.489
0.004564321222519013,2.49
0.004518897237577105,2.491
0.004475174373737381,2.492
0.00443316696594342,2.493
0.0043928887791548615,2.494
0.004354352126934526,2.495
0.004317566899972606,2.496
0.0042825403143945525,2.497
0.004249277659337111,2.498
0.004217783323426506,2.499
0.004188061277522698,2.5
0.004160114777151888,2.501
0.004133945479545193,2.502
0.004109552513357877,2.503
0.004086932188708452,2.504
0.004066078499525524,2.505
0.004046983851511488,2.506
0.004029639448295159,2.507
0.0040140352014943915,2.508
0.0040001592785540675,2.509
0.003987997474446904,2.51
0.003977532602926476,2.511
0.003968744099131072,2.512
0.003961608014097076,2.513
0.0039560974537852876,2.514
0.003952183313547983,2.515
0.00394983505452314,2.516
0.00394902125653219,2.517
0.003949709717744405,2.518
0.003951866996332095,2.519
0.003955457576887321,2.52
0.003960443214926812,2.521
0.003966782935775943,2.522
0.003974433501569837,2.523
0.003983349739006484,2.524
0.003993484366532739,2.525
0.00400478757633648,2.526
0.004017207153273973,2.527
0.004030689582338255,2.528
0.004045181609382143,2.529
0.0040606313143423875,2.53
0.004076988046238997,2.531
0.004094201270275455,2.532
0.004112219617697679,2.533
0.004130991762892452,2.534
0.0041504690764702775,2.535
0.004170608461037673,2.536
0.004191374060979326,2.537
0.0042127374728826335,2.538
0.004234676602749938,2.539
0.0042571735097399095,2.54
0.004280211727036669,2.541
0.00430377403706966,2.542
0.004327842054216621,2.543
0.004352397991873463,2.544
0.004377427412626064,2.545
0.004402921507732774,2.546
0.00442887815621972,2.547
0.004455301510107909,2.548
0.0044822001996193345,2.549
0.004509584604333494,2.55
0.004537464086358339,2.551
0.0045658454261256805,2.552
0.004594732880378915,2.553
0.004624128847049721,2.554
0.004654034068699133,2.555
0.00468444721888763,2.556
0.004715364138820853,2.557
0.004746777082422054,2.558
0.004778674360822981,2.559
0.0048110404558785866,2.56
0.004843856238421447,2.561
0.004877098931478633,2.562
0.004910741820361755,2.563
0.004944754053294431,2.564
0.004979100868561116,2.565
0.0050137441833580775,2.566
0.005048643204791632,2.567
0.005083754810441098,2.568
0.005119033599856721,2.569
0.005154431602908018,2.57
0.0051898976940191145,2.571
0.005225376879468154,2.572
0.0052608097869095176,2.573
0.005296132587756148,2.574
0.005331277190563242,2.575
0.005366171379928179,2.576
0.005400738781780423,2.577
0.005434898735525353,2.578
0.005468566193868457,2.579
0.005501651736459991,2.58
0.0055340617318357455,2.581
0.005565698636042084,2.582
0.005596461381931027,2.583
0.005626245791981396,2.584
0.005654944939639608,2.585
0.005682449377566407,2.586
0.005708647130385422,2.587
0.005733423316389151,2.588
0.005756659463004566,2.589
0.0057782332322974415,2.59
0.005798019595537711,2.591
0.005815893780811423,2.592
0.005831735455759572,2.593
0.005845433347720421,2.594
0.005856889386809979,2.595
0.005866021259354556,2.596
0.005872762289422195,2.597
0.005877058004330476,2.598
0.005878860476265283,2.599
0.005878124530017097,2.6
0.005874809642811925,2.601
0.005868886340874295,2.602
0.0058603428020066375,2.603
0.005849188961688582,2.604
0.005835457539057173,2.605
0.0058192021933065365,2.606
0.005800493332571675,2.607
0.005779412299491542,2.608
0.005756045151202371,2.609
0.00573047821063924,2.61
0.0057027972194185345,2.611
0.005673089326258085,2.612
0.005641445359518232,2.613
0.005607960786485212,2.614
0.005572735301359327,2.615
0.005535871555913575,2.616
0.005497473593473689,2.617
0.005457645442260955,2.618
0.005416490129465073,2.619
0.0053741091768639395,2.62
0.005330602491017973,2.621
0.005286068480728218,2.622
0.005240604215003635,2.623
0.005194305470602962,2.624
0.005147266595042766,2.625
0.005099580194790481,2.626
0.005051336714455488,2.627
0.005002623988474079,2.628
0.004953526828055916,2.629
0.004904126666941959,2.63
0.0048545012528846436,2.631
0.004804724365248845,2.632
0.0047548655713790565,2.633
0.0047049900779479155,2.634
0.00465515874235273,2.635
0.004605428258660357,2.636
0.0045558514417138075,2.637
0.004506477450866577,2.638
0.004457351814840163,2.639
0.0044085163734724694,2.64
0.004360009553555157,2.641
0.004311867234308067,2.642
0.004264123961552734,2.643
0.004216814096836159,2.644
0.004169972653875762,2.645
0.0041236357187411235,2.646
0.0040778404241722434,2.647
0.004032624504744216,2.648
0.003988025500507844,2.649
0.003944079709682762,2.65
0.003900821130587597,2.651
0.0038582808597929816,2.652
0.0038164872188310188,2.653
0.003775466267530797,2.654
0.003735242164466503,2.655
0.0036958371544581615,2.656
0.003657271222258062,2.657
0.003619561608292705,2.658
0.0035827225523615046,2.659
0.0035467655036568223,2.66
0.0035116996259923782,2.661
0.003477532282506791,2.662
0.0034442693394268354,2.663
0.0034119152273054446,2.664
0.0033804727184165257,2.665
0.003349942486351494,2.666
0.003320322773369444,2.667
0.003291609590684555,2.668
0.003263797517127574,2.669
0.003236880756123966,2.67
0.003210854096544486,2.671
0.003185713581776973,2.672
0.003161456781897082,2.673
0.0031380826307088813,2.674
0.0031155908646245483,2.675
0.0030939811608964034,2.676
0.003073252132331615,2.677
0.003053400462139818,2.678
0.003034420524063255,2.679
0.003016304514820512,2.68
0.0029990427032740062,2.681
0.002982623444709779,2.682
0.0029670329465986463,2.683
0.0029522550029705934,2.684
0.0029382709410639626,2.685
0.0029250598101533093,2.686
0.002912598610768985,2.687
0.002900862373771223,2.688
0.00288982403854619,2.689
0.0028794542526103624,2.69
0.0028697213962499907,2.691
0.00286059205181566,2.692
0.0028520318212026724,2.693
0.00284400628048605,2.694
0.002836481951610718,2.695
0.002829427206239682,2.696
0.0028228129991076556,2.697
0.002816613328699315,2.698
0.002810805342701663,2.699
0.0028053690373360507,2.7
0.002800286536496554,2.701
0.002795540973905792,2.702
0.002791115192162698,2.703
0.0027869908877237886,2.704
0.002783148817648955,2.705
0.002779569902539213,2.706
0.0027762365012285184,2.707
0.002773133358791454,2.708
0.0027702481131622737,2.709
0.002767571406205557,2.71
0.0027650966995787308,2.711
0.002762819908331701,2.712
0.002760738936842332,2.713
0.0027588531561867904,2.714
0.0027571628270483877,2.715
0.002755668455982195,2.716
0.0027543700711385975,2.717
