VaMe,time
-0.00045875343866424176,0.001
-0.00020762261861508437,0.002
4.173775226764298e-05,0.003
0.0002890949273080998,0.004
0.0005342209215766976,0.005
0.000776893974288837,0.006
0.0010168988159012294,0.007
0.0012540254016892727,0.008
0.001488067260892749,0.009
0.0017188220262132619,0.01
0.0019460955314091512,0.011
0.0021697078777308323,0.012
0.0023894988159798396,0.013
0.0026053307017411525,0.014
0.0028170881484773144,0.015
0.003024674163878017,0.016
0.003228003786301739,0.017
0.003426998511867114,0.018
0.0036215855848507885,0.019
0.0038117025366492083,0.02
0.003997303092250579,0.021
0.004178360748824896,0.022
0.004354868779871543,0.023
0.004526836873013142,0.024
0.004694285342676851,0.025
0.004857238781241758,0.026
0.00501572174360548,0.027
0.0051697575662203454,0.028
0.005319368398374932,0.029
0.005464574507421868,0.03
0.005605393934323216,0.031
0.005741844210509757,0.032
0.005873945232785795,0.033
0.006001720968777899,0.034
0.006125198578708634,0.035
0.006244405709456797,0.036
0.006359369404225401,0.037
0.006470119231905121,0.038
0.0065766927139010055,0.039
0.006679139385894497,0.04
0.006777521709948141,0.041
0.006871912668427894,0.042
0.006962390883331439,0.043
0.007049035623370356,0.044
0.007131924781344503,0.045
0.007211136436747448,0.046
0.007286751264792077,0.047
0.007358853154146395,0.048
0.007427527535276097,0.049
0.007492858446279721,0.05
0.007554926485201578,0.051
0.007613809309615869,0.052
0.007669583885038041,0.053
0.007722328362058934,0.054
0.007772122273355162,0.055
0.007819044862492538,0.056
0.007863172676732722,0.057
0.007904578901315755,0.058
0.007943335787152433,0.059
0.007979518572556122,0.06
0.008013208481403324,0.061
0.0080444936268119,0.062
0.008073467558605385,0.063
0.008100225821988074,0.064
0.008124862213568519,0.065
0.008147467466447846,0.066
0.008168131368031508,0.067
0.008186946244891115,0.068
0.008204009406109828,0.069
0.008219423763215475,0.07
0.008233296740726712,0.071
0.00824573782463539,0.072
0.0082568553142619,0.073
0.008266753302063697,0.074
0.008275530235979192,0.075
0.00828327937949913,0.076
0.008290089870094537,0.077
0.008296047086386047,0.078
0.008301232126043357,0.079
0.0083057207810708,0.08
0.008309582521501425,0.081
0.008312879977600739,0.082
0.008315669222810846,0.083
0.008318000869904441,0.084
0.008319921719107731,0.085
0.00832147653298162,0.086
0.008322709487662817,0.087
0.008323664945164996,0.088
0.008324387366730747,0.089
0.008324920389245477,0.09
0.008325305258184758,0.091
0.008325578925072564,0.092
0.008325772325440059,0.093
0.008325909547347035,0.094
0.008326008099387097,0.095
0.008326079608360527,0.096
0.008326130233679136,0.097
0.008326160666638757,0.098
0.008326165925235674,0.099
0.008326135258051946,0.1
0.008326052480544091,0.101
0.008325896952469622,0.102
0.00832564520228182,0.103
0.008325272988813841,0.104
0.008324757427074475,0.105
0.008324078727165425,0.106
0.008323221114266246,0.107
0.008322172607394797,0.108
0.008320923512383858,0.109
0.008319463720585866,0.11
0.008317779691234222,0.111
0.008315853115662112,0.112
0.008313662419386409,0.113
0.008311185722286995,0.114
0.008308403221985174,0.115
0.008305298204824374,0.116
0.008301856707563489,0.117
0.008298066125173894,0.118
0.008293913250133948,0.119
0.008289382297840688,0.12
0.008284453409979832,0.121
0.008279101947652764,0.122
0.008273298632375263,0.123
0.008267010328154507,0.124
0.008260201043619127,0.125
0.008252832619769583,0.126
0.008244864587161015,0.127
0.008236253042199628,0.128
0.008226949480346631,0.129
0.008216901445173208,0.13
0.008206055840460231,0.131
0.008194363746434301,0.132
0.0081817850068694,0.133
0.008168291409729073,0.134
0.008153867665859413,0.135
0.00813850965901037,0.136
0.008122219974163479,0.137
0.008105002527769224,0.138
0.008086860489152069,0.139
0.008067799800005826,0.14
0.008047835276139993,0.141
0.008026994892126996,0.142
0.008005320448995972,0.143
0.00798286475071839,0.144
0.007959686262975996,0.145
0.007935843295462226,0.146
0.007911390644386958,0.147
0.007886379913860216,0.148
0.007860861441867746,0.149
0.007834885415978335,0.15
0.007808501690065065,0.151
0.007781758689624615,0.152
0.0077547017168876605,0.153
0.007727371200004165,0.154
0.007699802025464563,0.155
0.007672024673808637,0.156
0.0076440674252127435,0.157
0.007615958440926547,0.158
0.007587727133306787,0.159
0.007559404599703192,0.16
0.007531022961359144,0.161
0.007502613537599338,0.162
0.007474204505788561,0.163
0.007445820037756623,0.164
0.007417482403385176,0.165
0.007389215991133798,0.166
0.007361051201135772,0.167
0.007333027116163282,0.168
0.007305192565055126,0.169
0.0072776054745260004,0.17
0.007250330678267897,0.171
0.007223436557344997,0.172
0.007196991246568399,0.173
0.007171059846068685,0.174
0.007145704053435922,0.175
0.0071209840230273,0.176
0.007096960852070491,0.177
0.00707369840456249,0.178
0.007051264030036484,0.179
0.007029728086939651,0.18
0.007009162352379823,0.181
0.006989637616319107,0.182
0.006971221169069212,0.183
0.006953975304990067,0.184
0.006937957283308118,0.185
0.0069232198172287825,0.186
0.006909811088071173,0.187
0.0068977742590011345,0.188
0.0068871469477232135,0.189
0.006877960964508874,0.19
0.006870242250430789,0.191
0.006864010836517837,0.192
0.006859281147816749,0.193
0.006856063309209327,0.194
0.006854365490939523,0.195
0.006854196541911115,0.196
0.006855567982212338,0.197
0.006858494650570665,0.198
0.006862993699693263,0.199
0.006869082203166678,0.2
0.006876774517142964,0.201
0.006886081105874994,0.202
0.006897009359854088,0.203
0.006909565049547576,0.204
0.006923753023289494,0.205
0.006939576956194146,0.206
0.0069570385595776945,0.207
0.006976136687877633,0.208
0.0069968666579658945,0.209
0.007019219910077332,0.21
0.007043183990493993,0.211
0.0070687427870531425,0.212
0.007095876992802729,0.213
0.00712456483856259,0.214
0.007154783127131951,0.215
0.007186508466570746,0.216
0.007219718378331215,0.217
0.007254391777793919,0.218
0.007290508323395797,0.219
0.007328046571022132,0.22
0.007366982063759992,0.221
0.007407287319201974,0.222
0.007448934305308651,0.223
0.00749189779840624,0.224
0.00753615777320652,0.225
0.007581700071934071,0.226
0.007628515339260369,0.227
0.007676596574840879,0.228
0.007725935908285795,0.229
0.007776521541689953,0.23
0.007828336055917652,0.231
0.007881356363831847,0.232
0.007935554132758073,0.233
0.00799089555266899,0.234
0.00804734056713431,0.235
0.008104842378566533,0.236
0.008163347519470386,0.237
0.00822279597195636,0.238
0.008283121282668282,0.239
0.008344251597718412,0.24
0.008406112170434963,0.241
0.008468628779271556,0.242
0.008531731077726597,0.243
0.008595355017889208,0.244
0.008659443573767266,0.245
0.008723945119076516,0.246
0.008788809788203334,0.247
0.008853986464341502,0.248
0.008919423864640862,0.249
0.00898507589515506,0.25
0.00905090787383151,0.251
0.009116900394573076,0.252
0.009183049525532252,0.253
0.009249363303630468,0.254
0.009315855569252485,0.255
0.00938253992385346,0.256
0.009449427399835005,0.257
0.009516528526315585,0.258
0.009583856616276696,0.259
0.009651429294332835,0.26
0.00971926777993681,0.261
0.00978739465198499,0.262
0.009855830974970954,0.263
0.009924593587494998,0.264
0.009993693112113322,0.265
0.010063132932331199,0.266
0.010132909073360228,0.267
0.01020301067241439,0.268
0.01027342057974138,0.269
0.010344115632372782,0.27
0.010415066292312482,0.271
0.010486235670742937,0.272
0.01055757850460013,0.273
0.010629040928877015,0.274
0.010700561268338796,0.275
0.010772071236992972,0.276
0.010843496935203516,0.277
0.010914759481637459,0.278
0.010985775314526448,0.279
0.011056456222695391,0.28
0.011126709189170457,0.281
0.01119643614188403,0.282
0.011265533691724115,0.283
0.011333892901479979,0.284
0.011401399101748068,0.285
0.011467931784825379,0.286
0.011533364658510735,0.287
0.011597565966655284,0.288
0.011660399092292885,0.289
0.011721723195443796,0.29
0.011781393254458844,0.291
0.01183925900457568,0.292
0.011895163954672777,0.293
0.011948947498025806,0.294
0.012000451694026392,0.295
0.012049530756562518,0.296
0.012096059903663484,0.297
0.012139940994233924,0.298
0.012181103266134611,0.299
0.012219498374747527,0.3
0.01225509091298814,0.301
0.012287849657622451,0.302
0.012317746688984834,0.303
0.012344765494932167,0.304
0.01236891145664764,0.305
0.012390218194768668,0.306
0.012408747738890119,0.307
0.012424585161832171,0.308
0.012437829372723608,0.309
0.012448582922787483,0.31
0.012456944976100415,0.311
0.012463010030347452,0.312
0.01246687026450021,0.313
0.012468617296647513,0.314
0.012468341312100312,0.315
0.012466128146185916,0.316
0.01246205659925536,0.317
0.012456198390661572,0.318
0.012448620717370216,0.319
0.012439388956212912,0.32
0.01242856723090623,0.321
0.012416216473208393,0.322
0.01240239226796424,0.323
0.012387146112736854,0.324
0.012370530980192536,0.325
0.012352608238099801,0.326
0.012333452638988659,0.327
0.012313153880820046,0.328
0.012291814472982282,0.329
0.01226954435091742,0.33
0.012246453964600739,0.331
0.0122226494490371,0.332
0.012198232718443457,0.333
0.01217330505246594,0.334
0.01214797037195079,0.335
0.012122336056969087,0.336
0.012096511253499675,0.337
0.012070603454421952,0.338
0.012044714544539108,0.339
0.012018937733828255,0.34
0.011993356138957587,0.341
0.011968042464935323,0.342
0.01194305916116054,0.343
0.01191845933387045,0.344
0.011894288458700214,0.345
0.01187058599206425,0.346
0.011847385915088023,0.347
0.011824715843588808,0.348
0.011802595364517793,0.349
0.011781035432234162,0.35
0.011760039985354484,0.351
0.011739608624105386,0.352
0.011719738380167339,0.353
0.011700423557505859,0.354
0.011681653802370363,0.355
0.011663412125352138,0.356
0.011645675284302518,0.357
0.011628416929953773,0.358
0.011611611485074537,0.359
0.011595236719986196,0.36
0.011579274190178835,0.361
0.011563707351289133,0.362
0.011548517920402112,0.363
0.011533682759837882,0.364
0.011519174219762212,0.365
0.011504964241181859,0.366
0.011491029476866468,0.367
0.01147735476448184,0.368
0.011463933891682246,0.369
0.011450767517949195,0.37
0.011437858611657425,0.371
0.011425207085446039,0.372
0.01141280710758489,0.373
0.011400648990301781,0.374
0.011388723202463714,0.375
0.01137702308826402,0.376
0.011365545166076947,0.377
0.011354287317304356,0.378
0.011343245542243556,0.379
0.011332410355584478,0.38
0.011321764350122169,0.381
0.011311281950375325,0.382
0.011300930807613865,0.383
0.011290673604057626,0.384
0.011280469728965127,0.385
0.011270276862525153,0.386
0.011260052413094062,0.387
0.011249754454725418,0.388
0.011239341606811861,0.389
0.011228771311537251,0.39
0.011217996914444679,0.391
0.011206965955096107,0.392
0.01119562210097003,0.393
0.011183909975422708,0.394
0.01117177992260182,0.395
0.011159190427894778,0.396
0.011146107143304902,0.397
0.01113249872736704,0.398
0.011118332210079766,0.399
0.01110357219712495,0.4
0.01108818497798533,0.401
0.011072143668652158,0.402
0.01105543020529105,0.403
0.0110380327827653,0.404
0.01101994044425057,0.405
0.011001139949037059,0.406
0.010981618872327535,0.407
0.010961372451941414,0.408
0.010940408804548519,0.409
0.010918749727006863,0.41
0.010896426963030755,0.411
0.01087347567153135,0.412
0.010849928955717927,0.413
0.010825817044222537,0.414
0.010801170592966675,0.415
0.010776024422325422,0.416
0.010750419086569995,0.417
0.01072439983340774,0.418
0.010698013363699757,0.419
0.010671303554749796,0.42
0.01064430848439576,0.421
0.010617060374328028,0.422
0.01058958712771777,0.423
0.010561912769005982,0.424
0.010534056116326069,0.425
0.010506030038078009,0.426
0.010477843736245484,0.427
0.010449507252529059,0.428
0.010421035348456419,0.429
0.010392448734985307,0.43
0.010363771933920917,0.431
0.010335028940976454,0.432
0.010306240685725391,0.433
0.010277427624837179,0.434
0.010248615797349769,0.435
0.010219842070011914,0.436
0.010191155983436982,0.437
0.0101626175565163,0.438
0.010134291861104453,0.439
0.010106243450073686,0.44
0.010078534793580686,0.441
0.010051229515174552,0.442
0.010024396812070104,0.443
0.009998113551530885,0.444
0.009972463162974052,0.445
0.009947531804698333,0.446
0.009923403491757358,0.447
0.009900157559164695,0.448
0.009877870381854227,0.449
0.009856619108547253,0.45
0.009836484141304105,0.451
0.009817549206202182,0.452
0.009799899227728184,0.453
0.009783616894451525,0.454
0.00976877976747216,0.455
0.00975545969466684,0.456
0.009743724263153713,0.457
0.009733638393141258,0.458
0.009725264782157213,0.459
0.009718663158069404,0.46
0.009713888764534188,0.461
0.009710990573292522,0.462
0.009710009864762578,0.463
0.00971097976156631,0.464
0.009713925663610977,0.465
0.009718865937737953,0.466
0.009725812359524291,0.467
0.009734770215859365,0.468
0.009745738129728964,0.469
0.009758707707895218,0.47
0.009773663168453649,0.471
0.009790581117966551,0.472
0.009809430569720619,0.473
0.009830173152712408,0.474
0.009852763342719865,0.475
0.009877148524914761,0.476
0.00990326876478616,0.477
0.009931056271723993,0.478
0.009960434811008927,0.479
0.009991319701230343,0.48
0.01002361884015402,0.481
0.010057234400356163,0.482
0.010092064412828214,0.483
0.010128003623666138,0.484
0.010164943321031298,0.485
0.010202770238716827,0.486
0.010241365120700653,0.487
0.010280601855138783,0.488
0.010320348055324,0.489
0.010360467500826172,0.49
0.010400824069497603,0.491
0.010441285975630363,0.492
0.010481728617621616,0.493
0.010522034368575446,0.494
0.010562089060301,0.495
0.01060177848032795,0.496
0.010640990214164238,0.497
0.010679622037919535,0.498
0.010717592345660477,0.499
0.010754847495171128,0.5
0.010791363520991375,0.501
0.010827141670108316,0.502
0.01086219880989953,0.503
0.010896556503853707,0.504
0.010930235089993126,0.505
0.010963255452661988,0.506
0.010995643863712866,0.507
0.011027434640526851,0.508
0.011058669828630671,0.509
0.011089397240942695,0.51
0.011119668055554493,0.511
0.011149534686311883,0.512
0.011179049098509839,0.513
0.011208261385572177,0.514
0.011237218334963179,0.515
0.011265961834465021,0.516
0.0112945271800374,0.517
0.011322941519279674,0.518
0.011351222709104426,0.519
0.011379378752697582,0.52
0.01140740775872694,0.521
0.011435298142283569,0.522
0.011463028662813783,0.523
0.011490568173468912,0.524
0.011517875742718998,0.525
0.011544902057259573,0.526
0.011571592165705235,0.527
0.011597888886106312,0.528
0.011623736163132732,0.529
0.011649081748215977,0.53
0.011673878650307876,0.531
0.011698084997541054,0.532
0.011721662208149066,0.533
0.011744571611789777,0.534
0.011766770392671069,0.535
0.011788209084882822,0.536
0.011808832553817634,0.537
0.011828583691147266,0.538
0.011847407443314934,0.539
0.011865253642985824,0.54
0.011882078229055525,0.541
0.011897842942547221,0.542
0.01191251389160717,0.543
0.01192605955511725,0.544
0.011938448764757418,0.545
0.011949648980738104,0.546
0.011959624834451014,0.547
0.011968336550597845,0.548
0.011975738046834425,0.549
0.011981775903060569,0.55
0.011986391413154702,0.551
0.011989526348561551,0.552
0.011991130560716004,0.553
0.011991168871000256,0.554
0.011989625324510488,0.555
0.011986503645983549,0.556
0.01198182367369646,0.557
0.011975614580486071,0.558
0.011967906945004705,0.559
0.011958727111195763,0.56
0.011948096446178636,0.561
0.011936034586964095,0.562
0.011922563859384972,0.563
0.011907713349596866,0.564
0.01189152241404936,0.565
0.011874043343895064,0.566
0.011855342525533772,0.567
0.011835499428591318,0.568
0.011814603153748545,0.569
0.011792746898407041,0.57
0.011770021824033482,0.571
0.01174651318251088,0.572
0.011722300584836629,0.573
0.011697460975621694,0.574
0.011672071622396241,0.575
0.011646211928366824,0.576
0.01161996404806763,0.577
0.011593412426186351,0.578
0.01156664231940465,0.579
0.011539737384329452,0.58
0.011512776612032647,0.581
0.011485831444756421,0.582
0.01145896428349034,0.583
0.011432228527209829,0.584
0.011405668801830512,0.585
0.011379320676366224,0.586
0.011353210877263683,0.587
0.011327358740274282,0.588
0.011301777932484098,0.589
0.011276476961900518,0.59
0.011251458163965326,0.591
0.011226716684759492,0.592
0.011202241481556643,0.593
0.011178018296853427,0.594
0.011154032444491254,0.595
0.011130269409250432,0.596
0.011106712876018181,0.597
0.011083342131796651,0.598
0.011060132152770049,0.599
0.011037057315174466,0.6
0.011014095934080034,0.601
0.010991232404556735,0.602
0.010968455600585724,0.603
0.01094575457079089,0.604
0.010923115635606802,0.605
0.010900524776531634,0.606
0.010877974164207273,0.607
0.010855468480930422,0.608
0.010833028173743434,0.609
0.01081068892274633,0.61
0.010788497605350864,0.611
0.010766505861556882,0.612
0.010744763985128082,0.613
0.010723318842386855,0.614
0.010702216671777667,0.615
0.010681507459898834,0.616
0.010661247545082651,0.617
0.01064149964486995,0.618
0.010622330885849277,0.619
0.010603809787058422,0.62
0.010586003282161301,0.621
0.010568974695944791,0.622
0.010552783110786154,0.623
0.010537483893694834,0.624
0.010523129567038155,0.625
0.010509769971529173,0.626
0.010497451046655884,0.627
0.010486212959530342,0.628
0.010476089795879464,0.629
0.010467111921758542,0.63
0.010459309253095928,0.631
0.01045271295256344,0.632
0.010447354504979729,0.633
0.010443262770084182,0.634
0.010440461218134257,0.635
0.010438967449553407,0.636
0.010438794464726205,0.637
0.010439951390925331,0.638
0.01044244248562212,0.639
0.010446265278349348,0.64
0.010451409735789332,0.641
0.010457859334483222,0.642
0.010465593061790724,0.643
0.010474587162978385,0.644
0.010484816461340099,0.645
0.010496255526596977,0.646
0.010508879846044815,0.647
0.010522666896063236,0.648
0.010537596727110079,0.649
0.010553651500455044,0.65
0.01057081346913244,0.651
0.010589061801935345,0.652
0.010608370514939304,0.653
0.010628709888795527,0.654
0.010650050876692558,0.655
0.0106723699485758,0.656
0.010695652524159157,0.657
0.01071989437622578,0.658
0.010745100981453716,0.659
0.01077128519431285,0.66
0.0107984639240645,0.661
0.010826654543024186,0.662
0.010855871484994744,0.663
0.010886123333335279,0.664
0.010917411200713089,0.665
0.010949729470481562,0.666
0.010983068824844127,0.667
0.011017420140433037,0.668
0.01105277778039334,0.669
0.011089141470289374,0.67
0.0111265165205599,0.671
0.011164912606701978,0.672
0.011204341560426018,0.673
0.011244814570216049,0.674
0.011286339014729026,0.675
0.011328915587830083,0.676
0.011372537334221933,0.677
0.01141719152687424,0.678
0.0114628630433457,0.679
0.011509537168943668,0.68
0.011557200738569737,0.681
0.011605841333470337,0.682
0.011655444738317073,0.683
0.011705991523557495,0.684
0.01175745430565655,0.685
0.011809796811042448,0.686
0.011862974085588342,0.687
0.011916932371757156,0.688
0.011971608529956336,0.689
0.012026930108180752,0.69
0.012082816297865666,0.691
0.012139178529908383,0.692
0.012195919964845934,0.693
0.012252935407419223,0.694
0.01231011384750527,0.695
0.012367343608747179,0.696
0.01242451810982779,0.697
0.012481540220508985,0.698
0.012538323742648887,0.699
0.012594791053763883,0.7
0.01265086755738581,0.701
0.012706476881236002,0.702
0.012761541721720969,0.703
0.012815990415831017,0.704
0.012869764509331033,0.705
0.012922823416635408,0.706
0.012975145387366549,0.707
0.01302672556002794,0.708
0.013077572141337944,0.709
0.013127701439852599,0.71
0.013177131972269137,0.711
0.013225878585192412,0.712
0.013273949727194343,0.713
0.013321350316276289,0.714
0.013368088277195924,0.715
0.01341418093372159,0.716
0.013459659132084993,0.717
0.013504568440890017,0.718
0.01354896745120669,0.719
0.013592923817226637,0.72
0.013636509086350506,0.721
0.013679793427847432,0.722
0.013722841112065634,0.723
0.013765707182084846,0.724
0.013808435378277301,0.725
0.01385105711279147,0.726
0.01389359111847177,0.727
0.01393604336319432,0.728
0.013978407212438647,0.729
0.014020664487332444,0.73
0.01406278807988597,0.731
0.01410474596948719,0.732
0.01414650573986955,0.733
0.014188038407685222,0.734
0.014229320367955298,0.735
0.014270332583502694,0.736
0.0143110568279704,0.737
0.0143514703285268,0.738
0.014391542030928815,0.739
0.014431232406239752,0.74
0.014470494432637211,0.741
0.01450927305385169,0.742
0.014547505252327593,0.743
0.014585124440878025,0.744
0.014622068325115934,0.745
0.014658285888770212,0.746
0.014693739966887985,0.747
0.01472840387431201,0.748
0.014762253897159862,0.749
0.014795264429300433,0.75
0.014827411666213245,0.751
0.014858683320318965,0.752
0.014889087195736155,0.753
0.014918654435885968,0.754
0.014947436966168468,0.755
0.014975500518164457,0.756
0.01500291562556713,0.757
0.015029749183621755,0.758
0.015056058530196354,0.759
0.015081888847045517,0.76
0.015107273478204352,0.761
0.015132235919036762,0.762
0.01515679191146107,0.763
0.015180950252879855,0.764
0.015204711723564225,0.765
0.015228067373488759,0.766
0.015250998941885464,0.767
0.01527348266527508,0.768
0.015295494653474018,0.769
0.015317015460204567,0.77
0.015338032954896143,0.771
0.015358543585164659,0.772
0.015378552363644073,0.773
0.015398071834091268,0.774
0.01541712002011281,0.775
0.015435717177280794,0.776
0.01545388122323198,0.777
0.015471622776221364,0.778
0.015488942594896613,0.779
0.01550583342616155,0.78
0.01552228467931991,0.781
0.015538287099429234,0.782
0.015553836197173843,0.783
0.015568934214583637,0.784
0.015583590475145742,0.785
0.015597819934569764,0.786
0.01561163980593045,0.787
0.01562506456619855,0.788
0.01563810112298799,0.789
0.015650747293573818,0.79
0.015662994791630122,0.791
0.01567483416097831,0.792
0.01568625852118499,0.793
0.015697264816156516,0.794
0.015707852296014915,0.795
0.015718018367595767,0.796
0.015727753351811015,0.797
0.015737037709811077,0.798
0.015745843729355016,0.799
0.015754138935342412,0.8
0.015761887270447777,0.801
0.015769047120229945,0.802
0.015775568844427292,0.803
0.015781395726705498,0.804
0.01578646894647859,0.805
0.015790732936740208,0.806
0.015794137353659497,0.807
0.015796634238285798,0.808
0.015798172171430782,0.809
0.01579869300899819,0.81
0.015798135297916602,0.811
0.015796441612114676,0.812
0.01579356463029154,0.813
0.015789469959983062,0.814
0.015784136146796024,0.815
0.015777552852356373,0.816
0.01576971804901594,0.817
0.015760634555548107,0.818
0.01575030569954926,0.819
0.01573873032515523,0.82
0.015725899462455558,0.821
0.01571179791322797,0.822
0.01569641097975717,0.823
0.015679733125281422,0.824
0.015661775294790924,0.825
0.015642569041958345,0.826
0.015622166443319626,0.827
0.01560063549797323,0.828
0.015578051680794283,0.829
0.015554488431674016,0.83
0.015530011735475363,0.831
0.015504681102176093,0.832
0.015478552840658324,0.833
0.015451680852576819,0.834
0.015424114348444432,0.835
0.01539589421006239,0.836
0.015367049873241851,0.837
0.015337598109868423,0.838
0.015307544247842433,0.839
0.015276885494998333,0.84
0.015245615353396708,0.841
0.015213727768828952,0.842
0.015181219716232808,0.843
0.015148091298757977,0.844
0.015114342943915421,0.845
0.015079970765235123,0.846
0.015044963940580023,0.847
0.015009307859545323,0.848
0.01497299203529439,0.849
0.014936018419835776,0.85
0.014898406692163671,0.851
0.014860194993557398,0.852
0.014821435901943921,0.853
0.01478218862518552,0.854
0.01474251059383363,0.855
0.014702454043288075,0.856
0.014662070492743165,0.857
0.01462141958309123,0.858
0.014580577094087822,0.859
0.014539639618914716,0.86
0.014498724928976272,0.861
0.014457967759584524,0.862
0.014417511804697842,0.863
0.01437750048896468,0.864
0.01433807089114859,0.865
0.014299353186239927,0.866
0.014261472964662642,0.867
0.014224552617114174,0.868
0.014188710827780802,0.869
0.014154061013430908,0.87
0.014120709465207694,0.871
0.014088753488864422,0.872
0.014058279626775836,0.873
0.01402936216573335,0.874
0.01400206233877642,0.875
0.013976428712383521,0.876
0.013952499092235844,0.877
0.013930303811776734,0.878
0.01390986972907063,0.879
0.013891223965130787,0.88
0.01387439644362695,0.881
0.013859420576674466,0.882
0.013846331852202375,0.883
0.013835164463804683,0.884
0.013825947011829282,0.885
0.013818699803325838,0.886
0.013813435795257411,0.887
0.013810164024079242,0.888
0.013808892508376901,0.889
0.013809628625499972,0.89
0.013812376704235631,0.891
0.013817134783334148,0.892
0.013823894093853126,0.893
0.013832642465533685,0.894
0.013843368569127943,0.895
0.01385606323935058,0.896
0.01387071690866319,0.897
0.013887315963793972,0.898
0.01390584307467012,0.899
0.013926283309808144,0.9
0.013948632289470127,0.901
0.013972901782842728,0.902
0.013999120795726247,0.903
0.014027332072054179,0.904
0.014057584932199324,0.905
0.014089927003607111,0.906
0.014124399183393739,0.907
0.014161036081899508,0.908
0.014199869151508743,0.909
0.014240928722975603,0.91
0.014284244027496059,0.911
0.014329841905467346,0.912
0.014377744895220973,0.913
0.014427969152480815,0.914
0.014480522498184122,0.915
0.014535402845687443,0.916
0.014592597214072309,0.917
0.014652081425675983,0.918
0.014713820442889948,0.919
0.014777769188607157,0.92
0.014843873652627855,0.921
0.01491207209847812,0.922
0.014982296193352448,0.923
0.015054471823781848,0.924
0.015128519242627321,0.925
0.015204352140309515,0.926
0.015281875607738483,0.927
0.015360984169398142,0.928
0.01544156199724094,0.929
0.015523486159707653,0.93
0.015606631612816958,0.931
0.01569087625917251,0.932
0.015776105090897264,0.933
0.01586221262108477,0.934
0.015949102770261785,0.935
0.016036685601423795,0.936
0.016124871395287198,0.937
0.01621356530596231,0.938
0.016302667454302845,0.939
0.01639207968424027,0.94
0.016481715042549326,0.941
0.016571505531142155,0.942
0.016661405844987192,0.943
0.016751391935967946,0.944
0.01684145389702701,0.945
0.01693158554451236,0.946
0.017021777945101138,0.947
0.017112022598066448,0.948
0.01720232064196765,0.949
0.017292690026574874,0.95
0.017383166437058156,0.951
0.017473797905889796,0.952
0.017564635482869913,0.953
0.017655724712987184,0.954
0.017747102414528662,0.955
0.01783879827717341,0.956
0.017930836708060997,0.957
0.0180232359895394,0.958
0.018116005137834245,0.959
0.018209140266936766,0.96
0.018302622606256206,0.961
0.01839641912296376,0.962
0.01849048449340112,0.963
0.018584762760895688,0.964
0.018679188079514474,0.965
0.018773684480523318,0.966
0.01886816462401499,0.967
0.01896252784095518,0.968
0.01905665889338967,0.969
0.019150429520258933,0.97
0.019243703456116076,0.971
0.019336343775780276,0.972
0.019428220974857958,0.973
0.019519220224589316,0.974
0.019609245824570413,0.975
0.019698220581785254,0.976
0.019786078763391345,0.977
0.019872756244856633,0.978
0.019958188112425244,0.979
0.02004231991359825,0.98
0.020125125754354385,0.981
0.02020662243168988,0.982
0.02028687433792856,0.983
0.020365988176900125,0.984
0.020444098643111936,0.985
0.020521350335374035,0.986
0.02059788671223692,0.987
0.020673853216902828,0.988
0.02074940881559289,0.989
0.020824735585024057,0.99
0.02090004193312308,0.991
0.02097555978009673,0.992
0.021051537236782047,0.993
0.02112822860936517,0.994
0.021205884050522802,0.995
0.021284742310856006,0.996
0.02136502936599762,0.997
0.02144696178228987,0.998
0.021530750940960346,0.999
0.021616605463493525,1.0
0.021704731230920978,1.001
0.021795329120048137,1.002
0.021888590783584246,1.003
0.02198469380878606,1.004
0.02208379918214067,1.005
0.022186052653391405,1.006
0.02229158756562554,1.007
0.02240052559068349,1.008
0.022512974719919563,1.009
0.022629027515837064,1.01
0.022748763017977052,1.011
0.022872251621588516,1.012
0.02299955901925971,1.013
0.023130746252349826,1.014
0.023265865810265653,1.015
0.023404957153421013,1.016
0.023548046436156024,1.017
0.02369515129528254,1.018
0.023846286679214533,1.019
0.02400146780453002,1.02
0.024160709174344132,1.021
0.024324020265343492,1.022
0.02449139936522739,1.023
0.02466282818523288,1.024
0.024838269994067602,1.025
0.025017671464719563,1.026
0.025200965779128788,1.027
0.025388075033729463,1.028
0.025578911734359885,1.029
0.025773379632696602,1.03
0.025971373775257732,1.031
0.026172779231233397,1.032
0.026377467869398468,1.033
0.02658529410449997,1.034
0.02679609341262065,1.035
0.027009686392159546,1.036
0.027225885905857852,1.037
0.027444502791586254,1.038
0.02766534775568994,1.039
0.02788822900605402,1.04
0.028112946317934845,1.041
0.028339283720972906,1.042
0.02856700453820693,1.043
0.028795851297172083,1.044
0.029025549192980556,1.045
0.029255810289719776,1.046
0.0294863371821662,1.047
0.02971682582429804,1.048
0.02994696698403439,1.049
0.030176445506603925,1.05
0.030404936705333556,1.051
0.030632100433252096,1.052
0.03085757601675521,1.053
0.031080981739542136,1.054
0.03130191817251176,1.055
0.03151997058895451,1.056
0.03173470720483127,1.057
0.031945674983240135,1.058
0.032152398158335996,1.059
0.03235438195504735,1.06
0.03255111830168879,1.061
0.03274208953173263,1.062
0.03292676905587801,1.063
0.0331046194547372,1.064
0.033275088217458705,1.065
0.03343760231960055,1.066
0.03359156640143498,1.067
0.033736370226799976,1.068
0.033871406005020435,1.069
0.033996091581028676,1.07
0.03410989466361629,1.071
0.03421235250409913,1.072
0.03430308021378136,1.073
0.03438176143962539,1.074
0.034448122778942054,1.075
0.034501911002538646,1.076
0.034542898543128364,1.077
0.034570918274845895,1.078
0.03458590229582088,1.079
0.034587901976915345,1.08
0.03457708248115756,1.081
0.03455369484345387,1.082
0.03451803580671474,1.083
0.03447041409481802,1.084
0.03441114010480386,1.085
0.03434053625500259,1.086
0.034258949337792444,1.087
0.0341667521854396,1.088
0.03406433446205078,1.089
0.03395208718269584,1.09
0.033830387104745605,1.091
0.03369958796421643,1.092
0.03356002007309235,1.093
0.03341199171546478,1.094
0.033255787857352524,1.095
0.03309167111375959,1.096
0.032919890941828345,1.097
0.03274069904393138,1.098
0.032554364639169456,1.099
0.032361184745786864,1.1
0.032161486227731836,1.101
0.03195561765934514,1.102
0.03174393375067956,1.103
0.031526783495935115,1.104
0.03130451341444549,1.105
0.031077483393138598,1.106
0.030846082402015904,1.107
0.0306107352948102,1.108
0.030371899300650207,1.109
0.030130052391104944,1.11
0.029885677114805574,1.111
0.029639245198265763,1.112
0.029391209457781776,1.113
0.02914200490954163,1.114
0.02889205344434994,1.115
0.028641766318555972,1.116
0.028391543510025517,1.117
0.028141771007419665,1.118
0.027892816959237815,1.119
0.027645027834784057,1.12
0.02739872641943354,1.121
0.027154212716374183,1.122
0.02691176655079056,1.123
0.02667164985006763,1.124
0.02643410757553261,1.125
0.026199367109322372,1.126
0.025967636364436164,1.127
0.025739101812527695,1.128
0.02551392838481733,1.129
0.025292262064252096,1.13
0.025074233914552765,1.131
0.02485996396187278,1.132
0.024649564292388702,1.133
0.02444314126454491,1.134
0.02424079689408235,1.135
0.0240426295398368,1.136
0.023848733870633278,1.137
0.023659199724309507,1.138
0.023474109114696575,1.139
0.023293531790182384,1.14
0.023117522933960705,1.141
0.022946126853608386,1.142
0.02277938543864014,1.143
0.022617346473890205,1.144
0.022460068008231776,1.145
0.02230761722889116,1.146
0.022160063886754403,1.147
0.022017471120586385,1.148
0.02187988985969735,1.149
0.021747360103532256,1.15
0.02161991453933011,1.151
0.021497578440756015,1.152
0.02138036572144255,1.153
0.02126827619776094,1.154
0.021161297577989353,1.155
0.021059409745712018,1.156
0.02096258719917946,1.157
0.02087079849656561,1.158
0.0207840034896816,1.159
0.020702149616711605,1.16
0.020625169514337807,1.161
0.020552982654707046,1.162
0.020485501752289418,1.163
0.02042264198875212,1.164
0.0203643300873521,1.165
0.020310510281904254,1.166
0.020261144560981603,1.167
0.020216205835782257,1.168
0.02017566703379214,1.169
0.020139495123087735,1.17
0.02010765599010678,1.171
0.02008012462415391,1.172
0.020056891692939477,1.173
0.020037963294652267,1.174
0.02002335482256018,1.175
0.020013081506422593,1.176
0.020007149730249075,1.177
0.020005553061167098,1.178
0.020008273009994887,1.179
0.020015280675496874,1.18
0.020026536340725962,1.181
0.020041987114519,1.182
0.02006156420830728,1.183
0.02008518131074682,1.184
0.020112734215483985,1.185
0.020144101317984817,1.186
0.020179145531508347,1.187
0.02021771784577083,1.188
0.020259661014087528,1.189
0.020304811269033305,1.19
0.020352996801059543,1.191
0.020404034059057455,1.192
0.020457726062697888,1.193
0.02051386572494312,1.194
0.02057224186842546,1.195
0.02063264398627463,1.196
0.02069486435782072,1.197
0.02075869787027816,1.198
0.020823940150749173,1.199
0.02089038432894442,1.2
0.0209578164685742,1.201
0.021026011155058977,1.202
0.021094731350262335,1.203
0.02116373522362338,1.204
0.021232787427276568,1.205
0.021301670124612145,1.206
0.021370190437416458,1.207
0.021438182007290633,1.208
0.021505499242883103,1.209
0.021572005548907813,1.21
0.02163756172493284,1.211
0.02170202174222286,1.212
0.02176523493912723,1.213
0.021827046619328806,1.214
0.021887294926240565,1.215
0.02194581082478888,1.216
0.022002424252027364,1.217
0.02205696937063274,1.218
0.02210928249168975,1.219
0.022159197742277054,1.22
0.022206551885289843,1.221
0.022251201293613833,1.222
0.022293042493395164,1.223
0.022332026820714782,1.224
0.022368165172713637,1.225
0.022401522481790087,1.226
0.02243220340805723,1.227
0.022460332769489093,1.228
0.022486038119027774,1.229
0.022509443848873073,1.23
0.022530678500780645,1.231
0.022549886526628614,1.232
0.022567235990081952,1.233
0.022582920142035563,1.234
0.02259715400194309,1.235
0.022610167751132785,1.236
0.022622199034299004,1.237
0.02263348613846937,1.238
0.02264426346694167,1.239
0.022654759818307856,1.24
0.02266519893932351,1.241
0.022675801005645105,1.242
0.0226867834252317,1.243
0.022698359726212508,1.244
0.02271073603779343,1.245
0.022724106138127434,1.246
0.022738648156595855,1.247
0.022754525662920234,1.248
0.022771892096282505,1.249
0.02279089519418777,1.25
0.022811679338592086,1.251
0.022834385518203288,1.252
0.022859149445245672,1.253
0.022886098712317896,1.254
0.022915349873701994,1.255
0.022947006023602928,1.256
0.02298115501436864,1.257
0.023017868140971426,1.258
0.023057199043773496,1.259
0.023099182721052054,1.26
0.023143834747959616,1.261
0.02319115090220785,1.262
0.02324110733012754,1.263
0.023293661226558304,1.264
0.0233487518743238,1.265
0.023406301836935258,1.266
0.02346621807865385,1.267
0.023528392764466232,1.268
0.023592703482412276,1.269
0.023659012656786074,1.27
0.023727165991811325,1.271
0.023796990352352415,1.272
0.023868292685423526,1.273
0.023940861591340602,1.274
0.024014471302792016,1.275
0.024088886617737167,1.276
0.024163867554276925,1.277
0.02423917262072159,1.278
0.02431455938522468,1.279
0.02438978118787262,1.28
0.024464581073117282,1.281
0.024538688154159213,1.282
0.02461182078725633,1.283
0.024683693685667314,1.284
0.024754022380579197,1.285
0.024822521185571572,1.286
0.024888896447152326,1.287
0.024952843411305773,1.288
0.025014053483518664,1.289
0.025072227983217184,1.29
0.02512708957879994,1.291
0.02517838617938649,1.292
0.025225885404826665,1.293
0.02526936205695893,1.294
0.025308588880668715,1.295
0.025343341214384817,1.296
0.025373413327962314,1.297
0.02539863476705374,1.298
0.025418878382265867,1.299
0.025434058186772423,1.3
0.02544411848771219,1.301
0.02544901727409974,1.302
0.025448709346940653,1.303
0.02544313744912135,1.304
0.025432234884587523,1.305
0.02541593338777406,1.306
0.025394168986719298,1.307
0.025366884446085234,1.308
0.025334029777615175,1.309
0.025295562430717233,1.31
0.02525144843853026,1.311
0.025201664971911956,1.312
0.025146203543465806,1.313
0.025085071845207144,1.314
0.025018291466709492,1.315
0.024945890018370175,1.316
0.024867892066545955,1.317
0.024784319179807442,1.318
0.024695203595958018,1.319
0.024600607352692448,1.32
0.024500636054676197,1.321
0.024395442529557082,1.322
0.02428522030241129,1.323
0.02417018919935946,1.324
0.024050577564446292,1.325
0.02392660795675862,1.326
0.02379849235699157,1.327
0.023666436057129498,1.328
0.023530643839447835,1.329
0.023391324214644533,1.33
0.023248691813588733,1.331
0.023102969119417893,1.332
0.022954387982336837,1.333
0.022803190519491805,1.334
0.022649628530840682,1.335
0.02249396073167368,1.336
0.022336447781389566,1.337
0.02217734582823999,1.338
0.022016899915367823,1.339
0.02185533924706889,1.34
0.021692876083122044,1.341
0.021529708098988323,1.342
0.021366022461288173,1.343
0.021202000336527395,1.344
0.021037821418619998,1.345
0.02087366800120099,1.346
0.020709727844619687,1.347
0.020546195185283646,1.348
0.020383269633805972,1.349
0.020221153139436107,1.35
0.020060045424968007,1.351
0.019900138527838698,1.352
0.01974161213863372,1.353
0.01958463243493713,1.354
0.019429355226540185,1.355
0.019275930889566723,1.356
0.019124508163945446,1.357
0.018975235643104976,1.358
0.018828260843357106,1.359
0.01868372717326025,1.36
0.018541769574639783,1.361
0.01840251038929917,1.362
0.018266057528406376,1.363
0.01813250545020881,1.364
0.018001937001132465,1.365
0.017874424138460965,1.366
0.017750027141383774,1.367
0.01762879291454481,1.368
0.017510753559031624,1.369
0.017395926356818994,1.37
0.01728431524129211,1.371
0.01717591297586286,1.372
0.01707070353024876,1.373
0.01696866459682091,1.374
0.016869770096052186,1.375
0.016773992155500468,1.376
0.016681301759275777,1.377
0.01659166724227889,1.378
0.01650505083111887,1.379
0.016421405952705664,1.38
0.01634067889222952,1.381
0.016262814939227776,1.382
0.0161877655971994,1.383
0.016115493707534564,1.384
0.016045975236029977,1.385
0.015979197649084884,1.386
0.015915155502645696,1.387
0.015853844329088065,1.388
0.015795254293339493,1.389
0.015739365649437932,1.39
0.01568614767762443,1.391
0.015635560726516052,1.392
0.015587559447633284,1.393
0.015542095924766325,1.394
0.015499122433505274,1.395
0.015458593706645093,1.396
0.015420468389411355,1.397
0.015384709296986897,1.398
0.015351282156227768,1.399
0.015320152720469769,1.4
0.015291282498131565,1.401
0.015264624347063337,1.402
0.015240120403580165,1.403
0.015217703540077503,1.404
0.015197300502113403,1.405
0.015178834410338505,1.406
0.015162226028581034,1.407
0.015147394109514262,1.408
0.01513425519524555,1.409
0.015122723155732066,1.41
0.015112708538909513,1.411
0.01510411757550797,1.412
0.015096850546945477,1.413
0.015090799413353463,1.414
0.015085845523245885,1.415
0.015081859165666515,1.416
0.015078701757269606,1.417
0.015076229434428207,1.418
0.015074296580026724,1.419
0.015072758911768276,1.42
0.01507147626688803,1.421
0.015070315054971108,1.422
0.015069150002235288,1.423
0.015067864562222097,1.424
0.015066349442146298,1.425
0.015064499015383228,1.426
0.01506220608882944,1.427
0.015059357351168763,1.428
0.015055833417729847,1.429
0.01505151507590218,1.43
0.015046292965252967,1.431
0.015040076827976449,1.432
0.015032801913921829,1.433
0.015024431113652276,1.434
0.015014952166738786,1.435
0.015004370409413865,1.436
0.014992698624790211,1.437
0.014979947130251458,1.438
0.014966118514097133,1.439
0.014951208566896225,1.44
0.014935209950698115,1.441
0.014918115063907656,1.442
0.014899917764197022,1.443
0.014880614800395599,1.444
0.014860207343118942,1.445
0.014838702436935684,1.446
0.014816113781602327,1.447
0.014792461128569053,1.448
0.014767767754356448,1.449
0.014742055905285677,1.45
0.014715341601302435,1.451
0.01468763225751106,1.452
0.014658929116632738,1.453
0.014629231980329511,1.454
0.014598542517687626,1.455
0.01456686454265464,1.456
0.014534201052105672,1.457
0.014500549542870942,1.458
0.014465899919161787,1.459
0.014430238027406988,1.46
0.014393552393883263,1.461
0.01435583981390121,1.462
0.014317107735239972,1.463
0.01427737309234536,1.464
0.014236657901130857,1.465
0.014194983084948577,1.466
0.014152364083609315,1.467
0.014108811966396332,1.468
0.014064339960591957,1.469
0.014018971839927912,1.47
0.013972748871331155,1.471
0.013925733528305836,1.472
0.013878009075505068,1.473
0.013829675015224578,1.474
0.013780839405689378,1.475
0.013731610284596189,1.476
0.013682089642097113,1.477
0.013632372212168314,1.478
0.013582547625945206,1.479
0.013532702786771615,1.48
0.013482923070883054,1.481
0.013433292725726879,1.482
0.013383895175989986,1.483
0.013334813695936426,1.484
0.013286132535499425,1.485
0.013237938217430854,1.486
0.013190320471040018,1.487
0.013143372197222914,1.488
0.013097187973653534,1.489
0.013051860882058513,1.49
0.013007478486311792,1.491
0.012964120518708147,1.492
0.012921860230903512,1.493
0.012880768050756951,1.494
0.012840914754698746,1.495
0.012802372778948539,1.496
0.012765215590374822,1.497
0.012729515481159278,1.498
0.012695340348550412,1.499
0.012662750376523218,1.5
0.012631795999918476,1.501
0.01260251784835484,1.502
0.012574947690706204,1.503
0.012549108970991964,1.504
0.012525016482912757,1.505
0.012502675426467526,1.506
0.012482080327967061,1.507
0.01246321446685944,1.508
0.01244605013450167,1.509
0.012430549318974844,1.51
0.012416664118945354,1.511
0.012404336610673881,1.512
0.012393498842005439,1.513
0.012384074265406083,1.514
0.012375981078426706,1.515
0.012369136420972067,1.516
0.01236345980283092,1.517
0.012358874429678002,1.518
0.012355305630760706,1.519
0.012352676998284242,1.52
0.012350907415392305,1.521
0.012349912552324652,1.522
0.0123496106092677,1.523
0.012349928799006638,1.524
0.012350807641387176,1.525
0.012352201898893337,1.526
0.012354077884101044,1.527
0.012356407548893706,1.528
0.01235916176237444,1.529
0.012362307612654238,1.53
0.012365812167915179,1.531
0.012369649111056997,1.532
0.012373803262130558,1.533
0.012378270957697437,1.534
0.012383056288013665,1.535
0.012388164767566672,1.536
0.012393598335183172,1.537
0.012399355182741639,1.538
0.012405433326275866,1.539
0.012411833684732327,1.54
0.012418559913398176,1.541
0.012425615072713135,1.542
0.012432997638994752,1.543
0.012440700483325755,1.544
0.012448713723586375,1.545
0.012457028255020989,1.546
0.01246563647341423,1.547
0.012474529608963478,1.548
0.012483694345993496,1.549
0.012493112558964582,1.55
0.012502764772050812,1.551
0.012512633958462872,1.552
0.012522706516145765,1.553
0.012532969780478027,1.554
0.012543407582874798,1.555
0.012553997163945417,1.556
0.012564709897602066,1.557
0.01257551456756297,1.558
0.012586380263602433,1.559
0.012597277457346394,1.56
0.012608177217843658,1.561
0.012619048863409454,1.562
0.012629856675857254,1.563
0.012640557246699938,1.564
0.01265109934128737,1.565
0.012661426344252087,1.566
0.012671479294442357,1.567
0.012681198650813692,1.568
0.012690524175107984,1.569
0.012699393096838298,1.57
0.012707737143081762,1.571
0.012715479589729359,1.572
0.012722533970111994,1.573
0.012728805193032454,1.574
0.012734192177037135,1.575
0.012738590883332613,1.576
0.012741897291812217,1.577
0.012744009830575696,1.578
0.012744830339985615,1.579
0.012744262524508181,1.58
0.012742208195556517,1.581
0.0127385647603716,1.582
0.012733227858199058,1.583
0.01272609833976315,1.584
0.012717089015811188,1.585
0.012706127514192258,1.586
0.012693153882778266,1.587
0.012678114016683744,1.588
0.012660953673819367,1.589
0.012641618749547797,1.59
0.012620061818943104,1.591
0.012596249239916773,1.592
0.01257016390617457,1.593
0.012541802374809835,1.594
0.012511167798850137,1.595
0.012478263006264305,1.596
0.012443089106197808,1.597
0.01240565045114607,1.598
0.012365961379458452,1.599
0.012324050474506878,1.6
0.012279961234727802,1.601
0.012233749507094441,1.602
0.012185478263384958,1.603
0.012135211122858508,1.604
0.012083007956781168,1.605
0.012028925872503302,1.606
0.011973024956783972,1.607
0.011915375019191186,1.608
0.01185606030336216,1.609
0.011795180923500143,1.61
0.011732850753925623,1.611
0.011669192202529046,1.612
0.011604329385971444,1.613
0.011538382775305585,1.614
0.011471468186023738,1.615
0.011403699614738675,1.616
0.011335192707279588,1.617
0.011266066552370361,1.618
0.011196443470986785,1.619
0.011126447286815453,1.62
0.01105620073180628,1.621
0.010985822654600626,1.622
0.01091542557187812,1.623
0.010845113886906753,1.624
0.010774982849829211,1.625
0.010705118094366214,1.626
0.010635595460655557,1.627
0.0105664810144485,1.628
0.01049783158705952,1.629
0.010429696165076495,1.63
0.010362117946599973,1.631
0.010295136479843443,1.632
0.010228789230937943,1.633
0.010163112019254277,1.634
0.010098138017230127,1.635
0.010033895678602966,1.636
0.009970407029331158,1.637
0.00990768790732818,1.638
0.009845750150386832,1.639
0.009784604358791952,1.64
0.009724262140078736,1.641
0.009664737444656905,1.642
0.009606046763180174,1.643
0.009548207922021263,1.644
0.009491237507490279,1.645
0.009435148186151049,1.646
0.009379948405605893,1.647
0.009325645540222732,1.648
0.009272250644510299,1.649
0.00921978243222927,1.65
0.00916826940549234,1.651
0.009117749811753383,1.652
0.009068269347706964,1.653
0.009019876903714726,1.654
0.008972619921703078,1.655
0.008926542539222666,1.656
0.008881688133458257,1.657
0.008838103941781122,1.658
0.008795844535992706,1.659
0.008754972843186208,1.66
0.008715558643869512,1.661
0.008677674932308,1.662
0.008641393444791782,1.663
0.008606781873594446,1.664
0.008573904307182516,1.665
0.008542823377551455,1.666
0.00851360160873335,1.667
0.008486301013657618,1.668
0.008460981233905625,1.669
0.008437697159271815,1.67
0.008416497478383836,1.671
0.00839742483373207,1.672
0.008380516585490747,1.673
0.008365804921171126,1.674
0.008353316162679914,1.675
0.008343070051324631,1.676
0.008335079795988734,1.677
0.008329352757446852,1.678
0.008325890904191157,1.679
0.00832469053380921,1.68
0.00832574181942883,1.681
0.008329029339080118,1.682
0.008334533939088921,1.683
0.00834223497887982,1.684
0.008352111744989309,1.685
0.008364143378153395,1.686
0.008378307238479078,1.687
0.0083945765889292,1.688
0.008412919561529017,1.689
0.008433300531835676,1.69
0.008455682715263568,1.691
0.008480030248332727,1.692
0.008506309133195587,1.693
0.008534487096843507,1.694
0.008564532549391593,1.695
0.008596412878925718,1.696
0.008630092324439833,1.697
0.008665529859760423,1.698
0.00870267793716287,1.699
0.008741482709425947,1.7
0.00878188531144944,1.701
0.008823823307341086,1.702
0.008867231821715284,1.703
0.008912044245894892,1.704
0.008958192494184804,1.705
0.009005606807576054,1.706
0.009054215109467932,1.707
0.009103941904903599,1.708
0.009154706758004604,1.709
0.009206422798816116,1.71
0.009258996276131514,1.711
0.009312327645892862,1.712
0.009366313294659827,1.713
0.00942084658125355,1.714
0.009475817482883083,1.715
0.009531111075129968,1.716
0.009586606356273331,1.717
0.00964217691939782,1.718
0.00969769290016326,1.719
0.009753022155907327,1.72
0.009808029522357807,1.721
0.00986257537658902,1.722
0.00991651629110253,1.723
0.009969708720383375,1.724
0.010022013341994056,1.725
0.010073297124518136,1.726
0.010123431876341115,1.727
0.010172290176422795,1.728
0.010219742256813949,1.729
0.010265657573507522,1.73
0.010309910662900948,1.731
0.010352387537278136,1.732
0.01039298949338907,1.733
0.010431632915258258,1.734
0.010468244629477659,1.735
0.010502754763684195,1.736
0.010535092969799792,1.737
0.01056519232580341,1.738
0.010592997721668277,1.739
0.010618472577968432,1.74
0.010641600914530654,1.741
0.010662384502533026,1.742
0.01068083593661945,1.743
0.010696970278392911,1.744
0.010710800262589108,1.745
0.010722338028431777,1.746
0.010731600396249567,1.747
0.010738613012107335,1.748
0.010743411622867667,1.749
0.010746040802065392,1.75
0.01074655095482464,1.751
0.010744994564882824,1.752
0.010741422500004904,1.753
0.010735880836175268,1.754
0.010728408422280088,1.755
0.010719035602240325,1.756
0.010707784594683701,1.757
0.010694671414875047,1.758
0.010679708654029332,1.759
0.010662908554059028,1.76
0.010644286097712195,1.761
0.010623861837024002,1.762
0.010601664027137175,1.763
0.010577729494154808,1.764
0.010552102676960329,1.765
0.0105248325227334,1.766
0.01049596789532467,1.767
0.010465554065384094,1.768
0.01043363311545309,1.769
0.010400247985125819,1.77
0.010365447215264645,1.771
0.01032928815740036,1.772
0.010291838146733045,1.773
0.010253173897863425,1.774
0.010213379585138526,1.775
0.010172544133575734,1.776
0.010130758199651922,1.777
0.010088111185390452,1.778
0.010044688439625613,1.779
0.010000568886507882,1.78
0.009955823835603478,1.781
0.009910517641097821,1.782
0.009864709792396746,1.783
0.009818457412850956,1.784
0.009771817530345379,1.785
0.009724848917572517,1.786
0.009677613454919456,1.787
0.009630177005719377,1.788
0.009582609737184703,1.789
0.00953498572217329,1.79
0.009487381626710374,1.791
0.009439874396597898,1.792
0.009392538254018855,1.793
0.009345442162890195,1.794
0.009298649291230117,1.795
0.009252218660384948,1.796
0.009206207527724697,1.797
0.009160673147578093,1.798
0.00911567351315101,1.799
0.009071267103847914,1.8
0.009027511743484798,1.801
0.008984462782176086,1.802
0.008942170962653376,1.803
0.008900680475291474,1.804
0.008860027668971954,1.805
0.008820240527369424,1.806
0.008781338617800906,1.807
0.008743333214853466,1.808
0.008706227728449254,1.809
0.008670018834081156,1.81
0.008634698320546976,1.811
0.008600255140175867,1.812
0.00856667706325581,1.813
0.008533951568067409,1.814
0.008502065882131265,1.815
0.008471006291893018,1.816
0.008440756857712768,1.817
0.008411297725210092,1.818
0.008382603825692201,1.819
0.008354645371388672,1.82
0.00832739071490749,1.821
0.008300810503017807,1.822
0.008274881583346735,1.823
0.00824958962912752,1.824
0.008224929869679293,1.825
0.008200905658679333,1.826
0.008177525037087451,1.827
0.008154796295815126,1.828
0.00813272483254075,1.829
0.008111313285065487,1.83
0.008090564315827529,1.831
0.008070483822509935,1.832
0.008051083219230832,1.833
0.008032380541412807,1.834
0.00801440038040162,1.835
0.007997172633864248,1.836
0.007980730123742346,1.837
0.00796510534044741,1.838
0.007950327173363183,1.839
0.007936419104773757,1.84
0.007923399408152124,1.841
0.007911282078522893,1.842
0.007900077187685203,1.843
0.007889790577034891,1.844
0.007880423308734728,1.845
0.007871971183433357,1.846
0.007864424471249217,1.847
0.00785776789678034,1.848
0.007851980890990576,1.849
0.00784703811535776,1.85
0.00784291020754829,1.851
0.007839564583660327,1.852
0.007836966015649495,1.853
0.00783507665203297,1.854
0.007833855201833943,1.855
0.007833255576642842,1.856
0.007833226366078408,1.857
0.007833712290400446,1.858
0.00783465695545456,1.859
0.007836005398979213,1.86
0.007837705500155228,1.861
0.007839707809604125,1.862
0.007841963583653414,1.863
0.007844421858417192,1.864
0.007847028206211087,1.865
0.007849727126001599,1.866
0.00785246662095145,1.867
0.007855202210776267,1.868
0.00785789895005148,1.869
0.007860531051388682,1.87
0.00786307917209919,1.871
0.007865526131150208,1.872
0.007867853072667455,1.873
0.007870038578518113,1.874
0.00787206115471805,1.875
0.007873903013344397,1.876
0.007875553215832854,1.877
0.007877009616810827,1.878
0.007878279501542306,1.879
0.007879378724301552,1.88
0.007880329188470111,1.881
0.007881154934790701,1.882
0.007881878354728707,1.883
0.007882518981733299,1.884
0.007883095526212715,1.885
0.007883628920848429,1.886
0.007884143986502416,1.887
0.007884669033848078,1.888
0.007885233697183984,1.889
0.00788586585355787,1.89
0.007886589225594912,1.891
0.007887422988447829,1.892
0.007888382882365643,1.893
0.007889482105674911,1.894
0.007890730867153844,1.895
0.007892134954166059,1.896
0.007893695048581747,1.897
0.00789540814986498,1.898
0.007897270395146785,1.899
0.007899279695888767,1.9
0.007901437344271482,1.901
0.007903748294394278,1.902
0.007906219980736049,1.903
0.007908859793009834,1.904
0.007911672248223813,1.905
0.007914658049635743,1.906
0.007917816215249186,1.907
0.007921147803266488,1.908
0.007924659054395027,1.909
0.00792836291130968,1.91
0.007932278645773512,1.911
0.007936429702066032,1.912
0.00794084028323238,1.913
0.007945531727921435,1.914
0.007950520087902539,1.915
0.007955815446164399,1.916
0.0079614219325697,1.917
0.007967337379132267,1.918
0.00797355286073184,1.919
0.007980052650366885,1.92
0.007986814331949237,1.921
0.00799380880137285,1.922
0.008001000720610474,1.923
0.00800835003290035,1.924
0.008015814318785478,1.925
0.0080233513831622,1.926
0.008030921631554463,1.927
0.008038489894952709,1.928
0.008046026356918243,1.929
0.008053506280356705,1.93
0.008060908346914353,1.931
0.008068211717516269,1.932
0.008075392945838785,1.933
0.00808242505073555,1.934
0.008089279873121667,1.935
0.00809593203080271,1.936
0.008102362165785209,1.937
0.008108558521414134,1.938
0.008114516743963372,1.939
0.008120238068451146,1.94
0.008125726205780975,1.941
0.008130983680178365,1.942
0.008136009301725375,1.943
0.008140798344793159,1.944
0.00814534495773955,1.945
0.008149644811034232,1.946
0.0081536965282247,1.947
0.008157501477817975,1.948
0.008161062001973121,1.949
0.008164378639895524,1.95
0.008167447738850935,1.951
0.008170260991631607,1.952
0.008172806911248007,1.953
0.008175072754458466,1.954
0.008177045728196618,1.955
0.00817871335274896,1.956
0.008180063288463796,1.957
0.008181082911777908,1.958
0.008181758766230023,1.959
0.008182075834563221,1.96
0.008182016504299608,1.961
0.008181559156358889,1.962
0.008180676660253901,1.963
0.008179335693544183,1.964
0.008177497747364456,1.965
0.008175121714172609,1.966
0.008172167412695455,1.967
0.008168599502972197,1.968
0.00816439114457378,1.969
0.00815952650916803,1.97
0.008154001294252257,1.971
0.008147820766775154,1.972
0.008140995454747264,1.973
0.008133535950860658,1.974
0.008125450034011822,1.975
0.00811674400868079,1.976
0.008107426232890095,1.977
0.008097509846817948,1.978
0.00808701377499249,1.979
0.008075962334977163,1.98
0.00806438392377105,1.981
0.008052309163930274,1.982
0.008039768718706734,1.983
0.008026790853395796,1.984
0.008013399141743595,1.985
0.007999611367418039,1.986
0.007985440104341712,1.987
0.007970893810451855,1.988
0.007955976942735667,1.989
0.00794068915480764,1.99
0.007925025351016397,1.991
0.007908977918815598,1.992
0.007892540080609108,1.993
0.00787570820921838,1.994
0.007858481737022359,1.995
0.00784086077774555,1.996
0.007822843796495697,1.997
0.007804428342060258,1.998
0.007785614936760052,1.999
0.007766411329812071,2.0
0.007746834799083187,2.001
0.007726911980042624,2.002
0.007706676624063995,2.003
0.007686165976806985,2.004
0.0076654167459169155,2.005
0.007644462154786691,2.006
0.007623331446031776,2.007
0.007602051616077038,2.008
0.007580649812169242,2.009
0.007559155159285363,2.01
0.007537599642166738,2.011
0.007516018005762064,2.012
0.007494446755410235,2.013
0.007472922485173158,2.014
0.007451479883709775,2.015
0.007430149799921733,2.016
0.007408957677177766,2.017
0.0073879225507492265,2.018
0.007367056694212215,2.019
0.007346365869488287,2.02
0.007325850061724425,2.021
0.007305504616556436,2.022
0.0072853216647919775,2.023
0.007265291561326944,2.024
0.007245403956389431,2.025
0.007225648151610854,2.026
0.007206012535572781,2.027
0.007186483125959492,2.028
0.007167041833756708,2.029
0.007147665726571913,2.03
0.007128327872788355,2.031
0.007108998674175905,2.032
0.007089646232847612,2.033
0.007070235501075629,2.034
0.007050727462747509,2.035
0.007031079947531643,2.036
0.007011250126720454,2.037
0.00699119718668656,2.038
0.006970883795942,2.039
0.006950275793054925,2.04
0.006929340096032833,2.041
0.00690804188187244,2.042
0.006886343452969515,2.043
0.006864206263966061,2.044
0.006841594691473832,2.045
0.006818479341692862,2.046
0.00679483900514494,2.047
0.006770661173255535,2.048
0.006745941204682643,2.049
0.006720680349357816,2.05
0.006694882919137116,2.051
0.006668553056370786,2.052
0.006641692075439292,2.053
0.006614297709473182,2.054
0.006586365586897577,2.055
0.006557891772550719,2.056
0.006528875154412255,2.057
0.006499319239742423,2.058
0.006469233235137164,2.059
0.006438632283963643,2.06
0.0064075367660160025,2.061
0.0063759706417354555,2.062
0.006343958951970892,2.063
0.006311525048536156,2.064
0.006278688883572881,2.065
0.006245467305441716,2.066
0.006211875598665799,2.067
0.006177928722419171,2.068
0.006143641421377384,2.069
0.006109027150653447,2.07
0.006074096377436529,2.071
0.0060388554489374715,2.072
0.006003306663666002,2.073
0.005967448637046238,2.074
0.00593127609678257,2.075
0.005894780084624572,2.076
0.005857949887917482,2.077
0.005820776183812935,2.078
0.005783253781394299,2.079
0.005745382799364631,2.08
0.005707167754034519,2.081
0.005668614936084272,2.082
0.005629730030419345,2.083
0.005590518307871831,2.084
0.0055509874350091245,2.085
0.005511150758711065,2.086
0.00547102931729822,2.087
0.005430652154808455,2.088
0.005390055090608555,2.089
0.005349278225529035,2.09
0.0053083627910612465,2.091
0.005267348730861082,2.092
0.005226274533604445,2.093
0.005185179251500002,2.094
0.005144105088160946,2.095
0.005103099175233172,2.096
0.005062214074007933,2.097
0.005021506981578198,2.098
0.004981037853400079,2.099
0.004940866904761947,2.1
0.004901052226766592,2.101
0.004861648329854468,2.102
0.004822705742573727,2.103
0.004784270979097024,2.104
0.0047463864907058,2.105
0.004709090799270571,2.106
0.00467241874311809,2.107
0.00463640152175954,2.108
0.0046010667346243804,2.109
0.0045664390158333045,2.11
0.004532541437251659,2.111
0.0044993972112938475,2.112
0.0044670310928275996,2.113
0.004435470071474242,2.114
0.004404743168580936,2.115
0.004374880397635324,2.116
0.004345911176383768,2.117
0.004317862706911757,2.118
0.004290758952649934,2.119
0.004264620386160833,2.12
0.004239464006746949,2.121
0.004215303257735946,2.122
0.004192148041348264,2.123
0.004170004966635173,2.124
0.004148877548617493,2.125
0.004128766122622308,2.126
0.004109667696455027,2.127
0.004091576193766765,2.128
0.00407448325441731,2.129
0.0040583793901274555,2.13
0.004043255252642101,2.131
0.004029102841237295,2.132
0.004015916424782634,2.133
0.004003692878365508,2.134
0.003992431160543868,2.135
0.0039821308993357235,2.136
0.00397279075203047,2.137
0.003964407835575641,2.138
0.003956978728374356,2.139
0.003950500994737034,2.14
0.003944974022562658,2.141
0.0039403988665965796,2.142
0.003936777307893496,2.143
0.003934110452737653,2.144
0.0039323973773986625,2.145
0.003931634502128718,2.146
0.003931815906249597,2.147
0.003932933957549563,2.148
0.003934979558222827,2.149
0.003937941836881019,2.15
0.003941807494302458,2.151
0.003946560224149594,2.152
0.003952180551288165,2.153
0.003958645989154915,2.154
0.003965931176860428,2.155
0.003974007869184918,2.156
0.003982844896458019,2.157
0.003992408225136958,2.158
0.004002661132358868,2.159
0.00401356437775217,2.16
0.004025076182473944,2.161
0.0040371519580439195,2.162
0.004049744134981331,2.163
0.004062802614058108,2.164
0.004076275880687453,2.165
0.004090112277232393,2.166
0.004104260869649275,2.167
0.004118671510648922,2.168
0.004133293982272705,2.169
0.004148076912982913,2.17
0.0041629679692347845,2.171
0.004177916013100307,2.172
0.00419287408802318,2.173
0.004207801550172851,2.174
0.004222664364786291,2.175
0.004237433277921147,2.176
0.004252080743563712,2.177
0.00426657913013257,2.178
0.004280901993579899,2.179
0.004295027076124631,2.18
0.004308938580562187,2.181
0.004322627691989786,2.182
0.004336091422567746,2.183
0.004349330187654308,2.184
0.004362344907105908,2.185
0.004375134904924568,2.186
0.0043876974041510254,2.187
0.00440002790106245,2.188
0.004412120112693654,2.189
0.004423965290927058,2.19
0.004435551868636601,2.191
0.004446866024858081,2.192
0.004457892483043798,2.193
0.0044686145836595305,2.194
0.0044790135864249585,2.195
0.004489068186298812,2.196
0.0044987552438146795,2.197
0.004508051576798519,2.198
0.004516935880018811,2.199
0.004525390121039448,2.2
0.0045334002254703186,2.201
0.00454095609141592,2.202
0.004548051074396724,2.203
0.004554681087725503,2.204
0.004560843389203102,2.205
0.004566535034570994,2.206
0.00457175127260255,2.207
0.0045764849183405195,2.208
0.00458072759459071,2.209
0.004584472371072182,2.21
0.004587716656611258,2.211
0.004590464566988926,2.212
0.004592728276994359,2.213
0.004594527990369852,2.214
0.004595890404369427,2.215
0.0045968458512755895,2.216
0.004597425037208196,2.217
0.004597657304585403,2.218
0.004597571558497743,2.219
0.0045971986317310835,2.22
0.004596573241319161,2.221
0.0045957348556202645,2.222
0.004594727519089071,2.223
0.004593598823853785,2.224
0.004592398282003005,2.225
0.004591175371506766,2.226
0.0045899776699637644,2.227
0.0045888497590027425,2.228
0.004587833316063211,2.229
0.004586967977458982,2.23
0.004586292247226657,2.231
0.004585844091186943,2.232
0.004585661139777567,2.233
0.004585780492102918,2.234
0.004586238159380567,2.235
0.004587068230949743,2.236
0.004588301941910353,2.237
0.0045899669978404205,2.238
0.004592087468407714,2.239
0.004594684135957123,2.24
0.004597774884988931,2.241
0.004601374863711354,2.242
0.0046054963986220466,2.243
0.004610148756038031,2.244
0.0046153378785382,2.245
0.004621066210903996,2.246
0.004627332667824806,2.247
0.004634132717192283,2.248
0.004641458497772646,2.249
0.004649298871592014,2.25
0.004657639315182329,2.251
0.004666461650250282,2.252
0.004675743880498434,2.253
0.00468546052131903,2.254
0.004695583473431343,2.255
0.00470608310324437,2.256
0.004716929172373106,2.257
0.004728091418643344,2.258
0.004739539703713384,2.259
0.0047512437076524605,2.26
0.004763172184061081,2.261
0.00477529189119029,2.262
0.004787566688591155,2.263
0.004799957583680075,2.264
0.004812423986124503,2.265
0.00482492554778484,2.266
0.0048374238118902915,2.267
0.0048498832535748704,2.268
0.004862271518150938,2.269
0.004874558769606358,2.27
0.004886716169602339,2.271
0.004898713907633855,2.272
0.004910519983870767,2.273
0.004922100835095241,2.274
0.004933423413260463,2.275
0.004944457383506945,2.276
0.004955176523130254,2.277
0.0049655590219997775,2.278
0.004975586701437688,2.279
0.004985243383219551,2.28
0.004994512778007198,2.281
0.0050033764419808715,2.282
0.005011812574931928,2.283
0.00501979606466675,2.284
0.005027299298573025,2.285
0.005034293033219619,2.286
0.0050407470761261635,2.287
0.005046630816116375,2.288
0.005051913621529047,2.289
0.005056565067287083,2.29
0.00506055494389596,2.291
0.005063853063797367,2.292
0.005066428976384241,2.293
0.0050682517551532595,2.294
0.005069289974823071,2.295
0.005069511872460722,2.296
0.005068885559063272,2.297
0.005067379081327945,2.298
0.005064960140121142,2.299
0.0050615953218576554,2.3
0.005057248976178813,2.301
0.00505188253805327,2.302
0.005045455315689303,2.303
0.005037926868317224,2.304
0.0050292601744158245,2.305
0.0050194247524671535,2.306
0.005008399162481771,2.307
0.004996172440982545,2.308
0.004982744159563399,2.309
0.004968123027930472,2.31
0.004952324231967282,2.311
0.004935365928624988,2.312
0.004917265824860648,2.313
0.004898039422934947,2.314
0.004877700712627816,2.315
0.004856264202118473,2.316
0.004833746890954192,2.317
0.004810169810977476,2.318
0.004785559186203126,2.319
0.004759947167056493,2.32
0.004733372019936302,2.321
0.004705877650116454,2.322
0.0046775124094173845,2.323
0.004648327262268264,2.324
0.0046183735211090095,2.325
0.004587700702484409,2.326
0.004556355442912652,2.327
0.004524381824954676,2.328
0.004491822242204609,2.329
0.004458717812164857,2.33
0.004425108101231434,2.331
0.0043910303770254,2.332
0.004356518850095251,2.333
0.004321604463315853,2.334
0.004286315335949518,2.335
0.004250677394769145,2.336
0.004214714739523452,2.337
0.0041784496273369635,2.338
0.00414190211139093,2.339
0.004105089484978659,2.34
0.0040680259623706245,2.341
0.004030723063193255,2.342
0.003993190693335114,2.343
0.003955438529396855,2.344
0.003917477387260131,2.345
0.0038793204246663974,2.346
0.0038409840651246895,2.347
0.003802488514541986,2.348
0.00376385774239155,2.349
0.0037251188460403575,2.35
0.0036863008134399547,2.351
0.003647432852843052,2.352
0.0036085428149992323,2.353
0.0035696565568823398,2.354
0.0035307985551822534,2.355
0.0034919930758184176,2.356
0.003453265113567357,2.357
0.003414640874966573,2.358
0.0033761478441120822,2.359
0.0033378145012107267,2.36
0.0032996697971341324,2.361
0.003261742515796678,2.362
0.0032240606593466653,2.363
0.003186650958272057,2.364
0.003149538551104155,2.365
0.0031127468240046935,2.366
0.003076297373605168,2.367
0.0030402100617898053,2.368
0.0030045031523354155,2.369
0.0029691935274353894,2.37
0.002934296950813029,2.371
0.0028998282779272517,2.372
0.0028658014636412797,2.373
0.0028322292435167752,2.374
0.0027991226093201683,2.375
0.002766490584685578,2.376
0.00273434068084175,2.377
0.0027026797780083907,2.378
0.0026715149658687017,2.379
0.0026408541330524473,2.38
0.002610706236584862,2.381
0.0025810811979709095,2.382
0.0025519894234012283,2.383
0.0025234410345710626,2.384
0.0024954450093410464,2.385
0.0024680084955229706,2.386
0.002441136477299121,2.387
0.0024148318471449255,2.388
0.002389095878176618,2.389
0.0023639289636481265,2.39
0.0023393313088953685,2.391
0.0023153032355173065,2.392
0.002291844902676007,2.393
0.0022689556433400236,2.394
0.002246633651220229,2.395
0.0022248765697025536,2.396
0.0022036826189845804,2.397
0.00218305154407206,2.398
0.00216298501280046,2.399
0.0021434863773400156,2.4
0.0021245598722565546,2.401
0.002106209544221865,2.402
0.002088438424648409,2.403
0.0020712483089324134,2.404
0.002054639954766232,2.405
0.0020386132221318254,2.406
0.0020231669170065764,2.407
0.0020082984614364337,2.408
0.001994003702097685,2.409
0.0019802770118072304,2.41
0.001967111494633288,2.411
0.001954499058150947,2.412
0.0019424303135134,2.413
0.0019308943823954602,2.414
0.001919878727583358,2.415
0.0019093690811289195,2.416
0.0018993494459486572,2.417
0.0018898021863141994,2.418
0.001880708317474882,2.419
0.001872048015893982,2.42
0.0018638012155832093,2.421
0.0018559481060674906,2.422
0.0018484693633790642,2.423
0.001841345998705682,2.424
0.001834558853172137,2.425
0.0018280880721857806,2.426
0.0018219131125252607,2.427
0.001816013503341236,2.428
0.0018103700027319704,2.429
0.0018049656763625707,2.43
0.0017997866407635137,2.431
0.0017948223368120565,2.432
0.0017900652548410868,2.433
0.0017855101195549822,2.434
0.001781152683872194,2.435
0.0017769885554584457,2.436
0.0017730126473364388,2.437
0.0017692193677428607,2.438
0.0017656029643973604,2.439
0.0017621574667043749,2.44
0.001758876255003874,2.441
0.001755751730551975,2.442
0.0017527754410744214,2.443
0.0017499384590920846,2.444
0.0017472315627821585,2.445
0.0017446450433980106,2.446
0.0017421683895918526,2.447
0.0017397903685543502,2.448
0.0017374997649533418,2.449
0.0017352864771320272,2.45
0.001733142502933785,2.451
0.0017310625350228865,2.452
0.001729044038530958,2.453
0.0017270867919758873,2.454
0.0017251919886244493,2.455
0.0017233611420636552,2.456
0.0017215952424006482,2.457
0.0017198945829675074,2.458
0.001718259205065587,2.459
0.00171668949979658,2.46
0.001715186594969245,2.461
0.0017137524034397014,2.462
0.0017123893160869473,2.463
0.0017110996140784671,2.464
0.0017098848936611469,2.465
0.0017087459341733583,2.466
0.0017076831174866489,2.467
0.0017066970226936723,2.468
0.0017057887935123812,2.469
0.0017049601572282447,2.47
0.0017042131552027573,2.471
0.0017035497162955552,2.472
0.001702971219337926,2.473
