VaMe,time
0.0012016279260829705,0.001
0.0013224635102218807,0.002
0.0014442288680000138,0.003
0.0015667836112109367,0.004
0.0016900000933835863,0.005
0.0018137676212958195,0.006
0.0019379941457187194,0.007
0.002062605448411637,0.008
0.0021875422651024324,0.009
0.002312756052459529,0.01
0.00243820428808716,0.011
0.00256384654152504,0.012
0.0026896425826960467,0.013
0.002815552468867051,0.014
0.0029415370512214547,0.015
0.003067557676889832,0.016
0.003193575135871664,0.017
0.003319548530468046,0.018
0.0034454346142323575,0.019
0.0035711875648023533,0.02
0.003696758953293152,0.021
0.003822098146090125,0.022
0.00394715345395696,0.023
0.00407187380364401,0.024
0.004196210450261936,0.025
0.004320118389040985,0.026
0.004443557245987733,0.027
0.004566491483106164,0.028
0.004688889826175465,0.029
0.004810723930934344,0.03
0.004931966439404496,0.031
0.005052588813856179,0.032
0.00517255968197379,0.033
0.005291844330890586,0.034
0.0054104051647859966,0.035
0.00552820237453032,0.036
0.005645194384749328,0.037
0.005761338110445052,0.038
0.0058765891486837266,0.039
0.005990901962918628,0.04
0.006104230083118939,0.041
0.006216526367802065,0.042
0.006327743420748715,0.043
0.006437834258242693,0.044
0.006546753227288468,0.045
0.006654456983374468,0.046
0.006760905121890221,0.047
0.006866059933829836,0.048
0.006969884815342656,0.049
0.007072341744713682,0.05
0.007173389958019579,0.051
0.007272987739636385,0.052
0.007371096410949451,0.053
0.00746768409122815,0.054
0.007562727785772561,0.055
0.007656213492605449,0.056
0.007748134578833184,0.057
0.007838488978053369,0.058
0.0079272758073599,0.059
0.008014492008301708,0.06
0.008100129924605438,0.061
0.008184176819975835,0.062
0.008266616377387535,0.063
0.008347431152949891,0.064
0.008426605061406675,0.065
0.00850412553821764,0.066
0.008579985153160309,0.067
0.008654182358287632,0.068
0.008726721022825842,0.069
0.008797608477448402,0.07
0.008866852244405627,0.071
0.0089344569950997,0.072
0.009000424322549485,0.073
0.00906475615823224,0.074
0.009127459664116573,0.075
0.009188550897061684,0.076
0.009248055836798257,0.077
0.009306008363588561,0.078
0.009362445683198016,0.079
0.009417403281893626,0.08
0.00947091249214258,0.081
0.009523001532860589,0.082
0.009573697501200238,0.083
0.009623026889760062,0.084
0.009671014476773916,0.085
0.009717681498749672,0.086
0.009763043989794827,0.087
0.00980711189040368,0.088
0.009849889121226429,0.089
0.009891374410270822,0.09
0.009931562360040008,0.091
0.00997044411930728,0.092
0.010008007108346694,0.093
0.010044233699125455,0.094
0.010079099797603764,0.095
0.0101125749347797,0.096
0.010144624242489304,0.097
0.01017521079197442,0.098
0.010204296529287926,0.099
0.010231841089048505,0.1
0.01025779946492862,0.101
0.010282121295941322,0.102
0.010304753373102557,0.103
0.010325643335692117,0.104
0.010344741322735267,0.105
0.010361998366837752,0.106
0.010377363672799974,0.107
0.010390785278947837,0.108
0.010402215951750199,0.109
0.01041162091684446,0.11
0.010418982956150772,0.111
0.01042430282982824,0.112
0.010427594892726337,0.113
0.010428879680270372,0.114
0.010428178139520712,0.115
0.010425512161824026,0.116
0.01042091086714742,0.117
0.010414417924083643,0.118
0.010406096306079594,0.119
0.010396029425577387,0.12
0.010384318694019215,0.121
0.010371078022386368,0.122
0.010356426510032034,0.123
0.010340482043744558,0.124
0.010323359055606756,0.125
0.010305170667420573,0.126
0.010286031854123577,0.127
0.010266060740213885,0.128
0.010245377721287183,0.129
0.010224103344198874,0.13
0.01020235600596433,0.131
0.010180250289717883,0.132
0.010157896272257104,0.133
0.010135399633987706,0.134
0.010112862078378445,0.135
0.010090381512158464,0.136
0.010068051612474998,0.137
0.010045960695476775,0.138
0.010024190188527132,0.139
0.010002813435625526,0.14
0.009981895427321903,0.141
0.009961493139446907,0.142
0.009941655628776861,0.143
0.00992242371664883,0.144
0.009903830085570182,0.145
0.009885900405173186,0.146
0.009868654974769263,0.147
0.009852109933795043,0.148
0.00983627746936609,0.149
0.009821164866338895,0.15
0.009806773045315688,0.151
0.009793096276423838,0.152
0.009780124172676806,0.153
0.009767845081663618,0.154
0.009756249318654616,0.155
0.009745331406578234,0.156
0.009735090992004177,0.157
0.009725532322931075,0.158
0.009716662428298582,0.159
0.009708488356032611,0.16
0.009701013964700805,0.161
0.009694237074124916,0.162
0.009688148110729143,0.163
0.009682730647972843,0.164
0.009677962922561373,0.165
0.009673819361878276,0.166
0.009670271927779608,0.167
0.009667291271990572,0.168
0.009664847483118218,0.169
0.009662910070035986,0.17
0.009661446875945121,0.171
0.009660421987314689,0.172
0.009659793529791781,0.173
0.00965951268999325,0.174
0.009659524038538902,0.175
0.009659765795814412,0.176
0.009660169852135466,0.177
0.009660663282238838,0.178
0.009661172194729969,0.179
0.009661626350909357,0.18
0.0096619622468877,0.181
0.00966212312721436,0.182
0.009662055757494199,0.183
0.00966170643333925,0.184
0.009661020716325196,0.185
0.00965994851999289,0.186
0.00965845112153238,0.187
0.009656505956580042,0.188
0.009654107535037787,0.189
0.009651264455443358,0.19
0.009647993225208535,0.191
0.00964431115625972,0.192
0.009640232618791496,0.193
0.009635770849841989,0.194
0.00963094217085895,0.195
0.009625768403147791,0.196
0.00962027621382976,0.197
0.009614493986841178,0.198
0.009608447631272589,0.199
0.009602157428600386,0.2
0.009595637104901184,0.201
0.00958889402084737,0.202
0.00958192889708559,0.203
0.009574735462674986,0.204
0.009567301369482766,0.205
0.00955961028137842,0.206
0.009551643734266667,0.207
0.009543381604703145,0.208
0.009534800866770407,0.209
0.009525873587852495,0.21
0.009516566438789982,0.211
0.009506843002055645,0.212
0.009496667387702105,0.213
0.00948600682766744,0.214
0.009474832044822716,0.215
0.009463115071216438,0.216
0.009450825663358989,0.217
0.009437929822750234,0.218
0.009424392940428666,0.219
0.009410185600375633,0.22
0.009395288395922567,0.221
0.009379693875183998,0.222
0.009363405097914697,0.223
0.009346431041402009,0.224
0.009328780985187758,0.225
0.009310462133873564,0.226
0.009291482562549486,0.227
0.009271856356965426,0.228
0.009251606830365999,0.229
0.009230766556479314,0.23
0.009209374875801275,0.231
0.009187474170293926,0.232
0.00916510639715799,0.233
0.009142311062428916,0.234
0.009119125095589957,0.235
0.00909558420367989,0.236
0.009071724569873933,0.237
0.009047583499166467,0.238
0.009023198067192564,0.239
0.008998602704967601,0.24
0.008973828929317178,0.241
0.00894890919386717,0.242
0.008923882783203132,0.243
0.008898800419049795,0.244
0.00887372600704276,0.245
0.008848735404472423,0.246
0.008823912824872045,0.247
0.008799345942213595,0.248
0.008775121012162677,0.249
0.008751319598420565,0.25
0.008728018006347782,0.251
0.008705288907611448,0.252
0.00868320357267619,0.253
0.008661833526590139,0.254
0.008641251097137117,0.255
0.008621528585135393,0.256
0.008602736166500626,0.257
0.008584939577924196,0.258
0.00856819929713722,0.259
0.008552571648766235,0.26
0.00853811021999911,0.261
0.008524865897283993,0.262
0.008512885504492907,0.263
0.008502210667108538,0.264
0.008492878498030975,0.265
0.008484923729845203,0.266
0.008478380548761622,0.267
0.008473282937366157,0.268
0.008469663365030083,0.269
0.008467550503873423,0.27
0.00846696738187,0.271
0.008467931042876095,0.272
0.008470453313602373,0.273
0.008474541598286152,0.274
0.008480199231793724,0.275
0.008487425399120263,0.276
0.00849621450964202,0.277
0.00850655523522807,0.278
0.00851843052127175,0.279
0.008531819730539368,0.28
0.00854670211849829,0.281
0.00856305975261298,0.282
0.008580878525143786,0.283
0.008600146652897659,0.284
0.0086208514252999,0.285
0.008642977130692703,0.286
0.008666506721259761,0.287
0.008691426120614538,0.288
0.008717728094074858,0.289
0.008745413876424465,0.29
0.008774492282542852,0.291
0.008804976734538297,0.292
0.008836881061014,0.293
0.008870215524181164,0.294
0.008904984941127434,0.295
0.00894118943716162,0.296
0.008978826259582667,0.297
0.009017891000485327,0.298
0.009058377832896997,0.299
0.009100278932082166,0.3
0.009143583300168642,0.301
0.009188275252194743,0.302
0.009234332834478635,0.303
0.009281726488257388,0.304
0.009330418298644458,0.305
0.009380361856679786,0.306
0.009431502308833621,0.307
0.009483776232379783,0.308
0.009537111386110174,0.309
0.009591426532904464,0.31
0.009646631472366865,0.311
0.009702627516950871,0.312
0.009759308706055096,0.313
0.009816563759820611,0.314
0.009874278384547805,0.315
0.009932337315950453,0.316
0.009990625389201578,0.317
0.010049027005007316,0.318
0.01010742399771466,0.319
0.010165693492666278,0.32
0.01022370834085689,0.321
0.010281340942333286,0.322
0.01033846863325128,0.323
0.010394978544477856,0.324
0.010450770947033183,0.325
0.01050576059386456,0.326
0.010559875639929267,0.327
0.010613053905623823,0.328
0.01066523706613927,0.329
0.010716365436684921,0.33
0.010766377193519335,0.331
0.010815212841898103,0.332
0.010862821633593641,0.333
0.010909166598421944,0.334
0.010954227079982948,0.335
0.010997998809529974,0.336
0.011040491931112425,0.337
0.011081727683017246,0.338
0.011121734503587622,0.339
0.011160544089855767,0.34
0.011198187500360576,0.341
0.011234691494580767,0.342
0.011270076500927912,0.343
0.011304358012997442,0.344
0.01133755123330723,0.345
0.011369676849957636,0.346
0.011400765949802792,0.347
0.011430862917700747,0.348
0.011460025712221687,0.349
0.01148832338866799,0.35
0.011515831258965119,0.351
0.011542624843979526,0.352
0.011568774933986427,0.353
0.0115943459698935,0.354
0.011619397328666103,0.355
0.011643984959752938,0.356
0.01166816179699021,0.357
0.011691977250353723,0.358
0.011715476680023793,0.359
0.011738701512658978,0.36
0.011761690198149927,0.361
0.011784479689674322,0.362
0.011807106727010026,0.363
0.011829608060784026,0.364
0.011852018939685146,0.365
0.011874370212373456,0.366
0.011896686331314505,0.367
0.011918986705698277,0.368
0.011941289931428452,0.369
0.011963618211984042,0.37
0.011985999952832366,0.371
0.01200846991464095,0.372
0.012031067091344763,0.373
0.012053830890783263,0.374
0.012076796705786458,0.375
0.012099992791897099,0.376
0.012123440140419441,0.377
0.012147154966100955,0.378
0.012171151921869275,0.379
0.012195446696368047,0.38
0.012220057593381217,0.381
0.012245005950933462,0.382
0.012270315272404433,0.383
0.012296009057347098,0.384
0.01232210755978708,0.385
0.012348624276549909,0.386
0.012375563688280284,0.387
0.012402921228148275,0.388
0.012430684719878975,0.389
0.012458835949582593,0.39
0.012487351819620395,0.391
0.012516204993754713,0.392
0.012545363885173879,0.393
0.012574791879250901,0.394
0.01260444595171124,0.395
0.012634275153824762,0.396
0.012664219543061132,0.397
0.012694209912511828,0.398
0.01272416819336645,0.399
0.01275400792052074,0.4
0.012783633996686784,0.401
0.012812941811032149,0.402
0.012841817251349495,0.403
0.012870138878656217,0.404
0.012897781383384582,0.405
0.012924618642095879,0.406
0.012950525688645294,0.407
0.012975379723364834,0.408
0.01299906045959903,0.409
0.013021449915973099,0.41
0.013042431335011625,0.411
0.013061886532301713,0.412
0.01307969226376135,0.413
0.013095719443200421,0.414
0.013109838749693868,0.415
0.013121930922099316,0.416
0.01313189717712235,0.417
0.013139666410954823,0.418
0.01314519718678592,0.419
0.013148473560726789,0.42
0.013149495393558499,0.421
0.013148267228759235,0.422
0.013144793484066957,0.423
0.013139083784450778,0.424
0.013131163098354168,0.425
0.013121079555171115,0.426
0.01310890745591083,0.427
0.013094745682351602,0.428
0.013078712319040824,0.429
0.013060936637884362,0.43
0.013041550307625818,0.431
0.013020681240560364,0.432
0.01299845308551143,0.433
0.01297498929364008,0.434
0.012950417638409947,0.435
0.01292487227874901,0.436
0.01289849279474829,0.437
0.012871420718018178,0.438
0.01284379471759884,0.439
0.012815746504488667,0.44
0.012787399441762997,0.441
0.012758869522285686,0.442
0.01273026617140305,0.443
0.012701691400480655,0.444
0.01267323881044387,0.445
0.012644994508313705,0.446
0.012617039216017222,0.447
0.012589448866287102,0.448
0.012562293157790616,0.449
0.012535635353251914,0.45
0.012509535834742427,0.451
0.012484057017709977,0.452
0.012459265542601938,0.453
0.012435230138172333,0.454
0.012412016807531564,0.455
0.012389685737904884,0.456
0.012368292769350383,0.457
0.012347893028917315,0.458
0.012328542940432497,0.459
0.012310299610343163,0.46
0.012293218524080812,0.461
0.012277350810316567,0.462
0.0122627410871346,0.463
0.01224942634297904,0.464
0.012237435667695314,0.465
0.012226790180835032,0.466
0.012217502495470526,0.467
0.012209575898567323,0.468
0.012203004492720564,0.469
0.012197774977493293,0.47
0.012193868981608319,0.471
0.012191264454443027,0.472
0.012189935673803462,0.473
0.012189852355498321,0.474
0.012190978750567447,0.475
0.01219327354727042,0.476
0.01219669087015437,0.477
0.012201181917841529,0.478
0.012206696140884344,0.479
0.01221318062217734,0.48
0.012220577738554849,0.481
0.012228824416819528,0.482
0.012237856405294418,0.483
0.01224761617293989,0.484
0.012258059884054316,0.485
0.012269160018737556,0.486
0.012280902267359539,0.487
0.012293278187286361,0.488
0.012306279198383754,0.489
0.012319897282777355,0.49
0.012334131074404711,0.491
0.01234899150119,0.492
0.01236450336483842,0.493
0.012380702788810299,0.494
0.012397631890120922,0.495
0.012415332387530063,0.496
0.012433840302024437,0.497
0.012453183861968396,0.498
0.012473384699100396,0.499
0.012494460102422252,0.5
0.012516424404891948,0.501
0.012539289209026744,0.502
0.012563062837229116,0.503
0.012587749350533318,0.504
0.012613347295615529,0.505
0.012639848113872925,0.506
0.012667234381151303,0.507
0.01269547894079539,0.508
0.012724545937257598,0.509
0.012754393010164239,0.51
0.012784972704243353,0.511
0.01281623188321886,0.512
0.012848110103907606,0.513
0.012880539726657723,0.514
0.012913449015274893,0.515
0.012946766009521068,0.516
0.012980420277584998,0.517
0.013014341535024529,0.518
0.013048455971788398,0.519
0.013082682735561783,0.52
0.013116933120309317,0.521
0.013151112447138779,0.522
0.013185122397787019,0.523
0.013218862160782843,0.524
0.013252228189009375,0.525
0.013285112763902302,0.526
0.01331740166042686,0.527
0.013348972118350655,0.528
0.013379693130109584,0.529
0.013409428582882217,0.53
0.01343804115388994,0.531
0.013465394117621406,0.532
0.013491349829070258,0.533
0.013515767357830444,0.534
0.013538504816421982,0.535
0.01355942869860399,0.536
0.013578425789603202,0.537
0.013595411271706211,0.538
0.013610329244856062,0.539
0.013623144776585699,0.54
0.013633831804774657,0.541
0.01364236767551193,0.542
0.013648740741672695,0.543
0.013652964103671887,0.544
0.013655085048323263,0.545
0.013655186321629615,0.546
0.013653380041221139,0.547
0.013649796750976911,0.548
0.01364457312648531,0.549
0.013637842180051396,0.55
0.013629728568744488,0.551
0.013620348211623362,0.552
0.013609809124889757,0.553
0.013598211720613618,0.554
0.013585648859392174,0.555
0.013572206275087496,0.556
0.013557963681531626,0.557
0.013542996769592,0.558
0.01352738021643017,0.559
0.013511191555067434,0.56
0.013494515290416452,0.561
0.01347744622771016,0.562
0.01346009090702906,0.563
0.013442566452842974,0.564
0.013424996871005155,0.565
0.01340750746346074,0.566
0.01339021899087369,0.567
0.01337324454052399,0.568
0.013356691042774566,0.569
0.01334066394469477,0.57
0.013325272221714722,0.571
0.01331063219129239,0.572
0.013296869497888797,0.573
0.013284118839459196,0.574
0.01327252128953348,0.575
0.013262219496843216,0.576
0.01325335210389168,0.577
0.013246050179489507,0.578
0.013240437464406897,0.579
0.013236632778009915,0.58
0.013234751719105561,0.581
0.013234906516183791,0.582
0.013237204279365615,0.583
0.013241744437853116,0.584
0.013248616756829455,0.585
0.013257901217164546,0.586
0.01326966946957406,0.587
0.013283986232156767,0.588
0.013300909286777624,0.589
0.0133204881128293,0.59
0.013342762936698269,0.591
0.013367766201481002,0.592
0.013395526221911916,0.593
0.01342607089336377,0.594
0.013459429531764969,0.595
0.013495631858121322,0.596
0.013534704510932478,0.597
0.01357666771557639,0.598
0.013621535243237972,0.599
0.013669317564940685,0.6
0.01372002515266071,0.601
0.013773669649904166,0.602
0.0138302626960843,0.603
0.01388981313963063,0.604
0.013952323588628105,0.605
0.01401778721403826,0.606
0.014086185468965768,0.607
0.014157486997740817,0.608
0.014231647620933017,0.609
0.01430861101589767,0.61
0.014388309581476902,0.611
0.014470664913887396,0.612
0.014555587561997811,0.613
0.014642976819351202,0.614
0.014732722447199312,0.615
0.01482470948882734,0.616
0.01491882527946429,0.617
0.015014966619857765,0.618
0.015113045020034263,0.619
0.015212988156132591,0.62
0.015314736341335232,0.621
0.015418234941269378,0.622
0.015523427699355835,0.623
0.0156302570608413,0.624
0.015738671638487377,0.625
0.01584863492579857,0.626
0.015960130241306325,0.627
0.016073160693633768,0.628
0.016187745034076637,0.629
0.01630391098830823,0.63
0.016421687752412012,0.631
0.016541099042657322,0.632
0.016662158121133332,0.633
0.016784866251587073,0.634
0.016909214653971043,0.635
0.017035188214697863,0.636
0.01716276916154081,0.637
0.017291939763814514,0.638
0.017422683396938147,0.639
0.017554983457417583,0.64
0.017688820112120116,0.641
0.017824165615701656,0.642
0.01796097967692688,0.643
0.018099206579818436,0.644
0.01823877528750152,0.645
0.01837960303940053,0.646
0.018521601939409583,0.647
0.01866468655580389,0.648
0.01880877958566857,0.649
0.018953812962682257,0.65
0.0190997231474809,0.651
0.019246443042884698,0.652
0.01939389795550954,0.653
0.0195420106182431,0.654
0.01969071115904115,0.655
0.01983994528224491,0.656
0.01998967827354078,0.657
0.020139895184917055,0.658
0.020290598019308947,0.659
0.02044180078565754,0.66
0.02059352315561505,0.661
0.020745783331592965,0.662
0.0208985909941973,0.663
0.021051942146379343,0.664
0.021205817908291905,0.665
0.021360187246267592,0.666
0.021515011482884632,0.667
0.021670248812653534,0.668
0.021825858315231955,0.669
0.021981803276092626,0.67
0.022138053445153637,0.671
0.02229458570390839,0.672
0.02245138255749652,0.673
0.022608428050506873,0.674
0.02276570126610549,0.675
0.022923169362616354,0.676
0.023080784168218276,0.677
0.02323848410051061,0.678
0.02339619797830499,0.679
0.023553846556946163,0.68
0.023711340759490943,0.681
0.02386857770006093,0.682
0.024025436650230457,0.683
0.02418177717130778,0.684
0.02433743961720831,0.685
0.024492246154450413,0.686
0.024646000789982855,0.687
0.02479848824600236,0.688
0.024949472597263274,0.689
0.025098697707877902,0.69
0.02524589111385216,0.691
0.025390770846631095,0.692
0.025533053435611085,0.693
0.025672461349434343,0.694
0.025808728040386576,0.695
0.025941598630247885,0.696
0.0260708246438829,0.697
0.02619615449944509,0.698
0.026317328197405936,0.699
0.0264340845818209,0.7
0.026546178816803667,0.701
0.02665340059355632,0.702
0.026755585944244178,0.703
0.026852619347772805,0.704
0.02694442511529011,0.705
0.02703094980917728,0.706
0.027112143252652526,0.707
0.02718795097501008,0.708
0.027258323456807544,0.709
0.027323232696778263,0.71
0.027382684459220624,0.711
0.027436722373696883,0.712
0.02748542449022357,0.713
0.02752889400303737,0.714
0.027567246530737673,0.715
0.027600596474535152,0.716
0.027629045214628594,0.717
0.027652674294216605,0.718
0.027671544811220177,0.719
0.027685700640060627,0.72
0.027695172571745138,0.721
0.027699982552976298,0.722
0.027700148048089342,0.723
0.027695685960082757,0.724
0.027686614966540037,0.725
0.02767295510973077,0.726
0.027654724121147962,0.727
0.02763193101385741,0.728
0.027604568748129738,0.729
0.02757260850810917,0.73
0.027535997119820983,0.731
0.027494657913144777,0.732
0.027448495423317197,0.733
0.027397403352942534,0.734
0.027341272745423025,0.735
0.027279996194427916,0.736
0.027213465214342817,0.737
0.027141563496039085,0.738
0.027064166361710985,0.739
0.02698115364629491,0.74
0.02689243025808198,0.741
0.02679794375696457,0.742
0.026697692996330926,0.743
0.026591725795436057,0.744
0.026480125659210308,0.745
0.026362991900060376,0.746
0.02624042476615256,0.747
0.02611252663743428,0.748
0.025979416647894965,0.749
0.02584124622525364,0.75
0.02569820726210264,0.751
0.02555053205282254,0.752
0.025398487134728552,0.753
0.025242363529843805,0.754
0.025082465273723018,0.755
0.02491909722819171,0.756
0.024752554160287352,0.757
0.024583115792818654,0.758
0.02441105040252548,0.759
0.02423662288941309,0.76
0.024060101844706215,0.761
0.023881763754686404,0.762
0.02370189446573121,0.763
0.023520788337301493,0.764
0.023338745734396038,0.765
0.023156069640762604,0.766
0.02297306211786899,0.767
0.022790021026402884,0.768
0.02260723694455298,0.769
0.022424989782638436,0.77
0.02224354514839683,0.771
0.02206315249257584,0.772
0.02188404746423411,0.773
0.021706457900863216,0.774
0.02153061035040802,0.775
0.02135673441131794,0.776
0.02118506344916703,0.777
0.021015831240803164,0.778
0.020849265721499224,0.779
0.020685583478003106,0.78
0.02052498867377243,0.781
0.020367675654110677,0.782
0.02021383081102469,0.783
0.020063631134200014,0.784
0.019917241594963272,0.785
0.019774815604810446,0.786
0.01963649954242625,0.787
0.019502437950623692,0.788
0.019372775918687628,0.789
0.01924765767947953,0.79
0.019127222133520562,0.791
0.019011597546041478,0.792
0.018900899052567945,0.793
0.01879523061377275,0.794
0.01869468897384225,0.795
0.01859936657795921,0.796
0.018509352591819538,0.797
0.018424732311412586,0.798
0.018345585395005803,0.799
0.018271983384377622,0.8
0.018203986923399956,0.801
0.01814164309866255,0.802
0.01808498355237006,0.803
0.018034023860191206,0.804
0.017988763676917065,0.805
0.01794918675176299,0.806
0.017915261127684934,0.807
0.017886940509871534,0.808
0.017864166486462094,0.809
0.017846870024747392,0.81
0.017834971161026333,0.811
0.017828378104684076,0.812
0.017826989065814227,0.813
0.017830698411263987,0.814
0.017839404647116044,0.815
0.017853016200968075,0.816
0.017871452216546953,0.817
0.01789463750148644,0.818
0.017922494771453686,0.819
0.017954941737029436,0.82
0.01799189703557594,0.821
0.018033289752437974,0.822
0.018079065118736026,0.823
0.01812918355485251,0.824
0.018183613491582668,0.825
0.018242321512047077,0.826
0.01830526716785669,0.827
0.018372406577670662,0.828
0.018443699947976365,0.829
0.018519116071274027,0.83
0.018598631466134677,0.831
0.018682224787975054,0.832
0.01876986915812587,0.833
0.018861527641528368,0.834
0.018957155105323878,0.835
0.01905670346829311,0.836
0.019160125361289148,0.837
0.019267374077741133,0.838
0.019378399860792445,0.839
0.019493144253246334,0.84
0.019611536411440526,0.841
0.019733493931450925,0.842
0.019858925900137936,0.843
0.019987734290219588,0.844
0.020119812355126245,0.845
0.020255041123874114,0.846
0.020393286427681193,0.847
0.02053439838079067,0.848
0.02067821272399352,0.849
0.020824551987768457,0.85
0.020973225348407138,0.851
0.021124027269916308,0.852
0.021276735490381653,0.853
0.021431109098703608,0.854
0.021586887333007905,0.855
0.021743789264084715,0.856
0.021901514324606106,0.857
0.022059743470040614,0.858
0.022218139965596562,0.859
0.02237634936498186,0.86
0.022534001371221146,0.861
0.022690717110397208,0.862
0.022846121322014433,0.863
0.02299985523718284,0.864
0.02315158522611256,0.865
0.023301003018490255,0.866
0.023447816320926775,0.867
0.023591736518208093,0.868
0.023732476476835084,0.869
0.02386976334285901,0.87
0.02400335628156856,0.871
0.024133057225594994,0.872
0.02425871065115297,0.873
0.024380193521228995,0.874
0.02449739856120052,0.875
0.02461021698999855,0.876
0.02471852921208524,0.877
0.024822206153349447,0.878
0.024921113927321655,0.879
0.02501511424891131,0.88
0.02510405980043331,0.881
0.02518778797418252,0.882
0.02526611717909452,0.883
0.02533884657398263,0.884
0.02540575643227921,0.885
0.02546660936187947,0.886
0.025521156770779103,0.887
0.02556915222491933,0.888
0.02561036837404376,0.889
0.025644612392886613,0.89
0.025671734827710832,0.891
0.02569162725291176,0.892
0.025704208053846638,0.893
0.025709406155644456,0.894
0.025707159819100787,0.895
0.025697435366609074,0.896
0.025680251273842592,0.897
0.025655691595516193,0.898
0.025623903441834902,0.899
0.025585080219665022,0.9
0.025539437352122434,0.901
0.025487193537082245,0.902
0.025428568516532475,0.903
0.025363793948227974,0.904
0.025293124458461737,0.905
0.025216840655734533,0.906
0.025135243378370253,0.907
0.02504864149823336,0.908
0.024957338156765534,0.909
0.02486162310120528,0.91
0.024761774397084196,0.911
0.024658063606041766,0.912
0.024550757403759886,0.913
0.024440114174139514,0.914
0.024326378327490197,0.915
0.024209777415930542,0.916
0.024090524887596988,0.917
0.02396882558256745,0.918
0.02384487972610255,0.919
0.02371888390638282,0.92
0.02359102907068504,0.921
0.023461496143856567,0.922
0.023330451642135177,0.923
0.023198047272693523,0.924
0.02306442506964273,0.925
0.022929724959016313,0.926
0.02279409070102,0.927
0.02265767229118001,0.928
0.022520624517489662,0.929
0.02238310229362609,0.93
0.02224525405209239,0.931
0.022107215210600235,0.932
0.021969104508855582,0.933
0.021831024721167668,0.934
0.02169306626616443,0.935
0.021555311476877226,0.936
0.021417838662421328,0.937
0.021280725700531092,0.938
0.021144052633418245,0.939
0.021007902521222026,0.94
0.020872359833472638,0.941
0.020737505946234785,0.942
0.020603413118641993,0.943
0.020470141526653784,0.944
0.020337742834335853,0.945
0.020206267709129463,0.946
0.02007577209461116,0.947
0.019946319472120076,0.948
0.019817978604737232,0.949
0.019690817398366194,0.95
0.019564895402004453,0.951
0.01944025950230781,0.952
0.019316944934613164,0.953
0.019194978229120228,0.954
0.01907437807718656,0.955
0.0189551536069301,0.956
0.018837301534870437,0.957
0.0187208038787137,0.958
0.01860562765741588,0.959
0.018491727380914313,0.96
0.01837905025455005,0.961
0.018267543067088065,0.962
0.018157158957921846,0.963
0.01804786192974034,0.964
0.017939627230033044,0.965
0.017832436538487734,0.966
0.017726270016619083,0.967
0.017621102347234976,0.968
0.017516908282384558,0.969
0.017413674084260526,0.97
0.01731140741978594,0.971
0.01721014189667032,0.972
0.017109935613361365,0.973
0.017010864448574938,0.974
0.016913011776174672,0.975
0.016816457924928134,0.976
0.01672127446775181,0.977
0.016627525375714606,0.978
0.016535270881093404,0.979
0.01644456925535843,0.98
0.01635547548778957,0.981
0.01626803783824084,0.982
0.016182293872466825,0.983
0.01609826805103297,0.984
0.016015971465438213,0.985
0.01593540215814423,0.986
0.015856545369614398,0.987
0.015779375121563344,0.988
0.015703857691025617,0.989
0.015629955461660072,0.99
0.015557629380039881,0.991
0.015486839212550766,0.992
0.01541754159138801,0.993
0.015349686549060316,0.994
0.01528321438305002,0.995
0.015218055027555893,0.996
0.015154129963446073,0.997
0.015091354187465595,0.998
0.015029635968991673,0.999
0.014968874881671203,1.0
0.01490896158669856,1.001
0.014849781915455098,1.002
0.014791223210467086,1.003
0.014733178862012052,1.004
0.014675548556133776,1.005
0.014618234156793562,1.006
0.014561134830204367,1.007
0.01450414732750527,1.008
0.014447173141227352,1.009
0.014390127874049299,1.01
0.014332947533244888,1.011
0.01427558959125788,1.012
0.01421802866821513,1.013
0.014160248052320395,1.014
0.01410223097423373,1.015
0.014043957532038708,1.016
0.013985409100638977,1.017
0.013926575306675923,1.018
0.013867458112786264,1.019
0.013808071432529188,1.02
0.013748436968091691,1.021
0.013688577699082329,1.022
0.013628511456634367,1.023
0.013568247760909806,1.024
0.013507788987547115,1.025
0.013447133420864718,1.026
0.01338627758192164,1.027
0.013325217282369095,1.028
0.013263947685595433,1.029
0.013202462523785043,1.03
0.01314075248875037,1.031
0.01307880278264107,1.032
0.013016590370271308,1.033
0.012954082546840972,1.034
0.012891237972015484,1.035
0.012828009137243974,1.036
0.012764344389229073,1.037
0.012700188633151229,1.038
0.012635482789841744,1.039
0.012570162618356378,1.04
0.012504157880175337,1.041
0.012437392829843168,1.042
0.012369788554378482,1.043
0.012301266837779675,1.044
0.012231754278225837,1.045
0.012161184736218673,1.046
0.012089498204732742,1.047
0.012016636395040295,1.048
0.011942539962417816,1.049
0.011867152837104307,1.05
0.011790432472207929,1.051
0.011712359795547989,1.052
0.011632944120185767,1.053
0.011552221434732907,1.054
0.011470246544516907,1.055
0.01138708224294366,1.056
0.011302792066498164,1.057
0.011217441233668891,1.058
0.011131102715123622,1.059
0.011043862099701098,1.06
0.010955818262083581,1.061
0.01086708007753387,1.062
0.010777760510061444,1.063
0.010687970301102485,1.064
0.010597814348490121,1.065
0.010507392059709894,1.066
0.010416799414696396,1.067
0.010326129952212488,1.068
0.010235473851434708,1.069
0.010144915902313681,1.07
0.010054534560780334,1.071
0.009964403845743462,1.072
0.009874597058340904,1.073
0.009785189889206342,1.074
0.00969626138768835,1.075
0.009607892316157447,1.076
0.009520161766293729,1.077
0.009433144984493288,1.078
0.009346914949379365,1.079
0.00926154656315508,1.08
0.009177120269521112,1.081
0.009093723189366026,1.082
0.009011447484283883,1.083
0.008930386616484523,1.084
0.00885063141343604,1.085
0.00877226856849933,1.086
0.008695382245047931,1.087
0.00862005651037695,1.088
0.008546376239845138,1.089
0.008474425935238828,1.09
0.008404287249846352,1.091
0.00833603696986708,1.092
0.008269746856417706,1.093
0.008205484738883792,1.094
0.00814331511517409,1.095
0.008083298457416203,1.096
0.008025489960137442,1.097
0.00796993909440881,1.098
0.007916690294136174,1.099
0.007865783619657387,1.1
0.007817254447757637,1.101
0.0077711327651792846,1.102
0.007727443332155328,1.103
0.007686206916872258,1.104
0.0076474414998526806,1.105
0.007611162416070772,1.106
0.0075773813645229615,1.107
0.007546105226190864,1.108
0.00751733601042508,1.109
0.007491072216214082,1.11
0.0074673105470266475,1.111
0.007446046901297312,1.112
0.007427276306765716,1.113
0.007410991923005771,1.114
0.007397183455204136,1.115
0.007385835506436979,1.116
0.0073769264233188424,1.117
0.0073704278322101755,1.118
0.007366304612758012,1.119
0.007364515117531841,1.12
0.007365011794860444,1.121
0.007367742385654614,1.122
0.0073726515529725775,1.123
0.007379682504643756,1.124
0.007388778077211382,1.125
0.007399880897903542,1.126
0.007412932547983724,1.127
0.007427871960513072,1.128
0.007444633609670178,1.129
0.007463146375459169,1.13
0.007483333724747043,1.131
0.007505115004538024,1.132
0.00752840723308741,1.133
0.007553126965394923,1.134
0.007579191858411375,1.135
0.007606521401917551,1.136
0.007635036285220774,1.137
0.007664656364130687,1.138
0.007695298446975109,1.139
0.007726875971062494,1.14
0.007759301179962443,1.141
0.007792488101874052,1.142
0.007826354435652397,1.143
0.007860821651973651,1.144
0.007895813316420325,1.145
0.007931252206848323,1.146
0.00796705793065417,1.147
0.008003147047358435,1.148
0.008039435738221929,1.149
0.008075842965487011,1.15
0.008112292203013304,1.151
0.008148711046307202,1.152
0.008185028827861329,1.153
0.008221173180060215,1.154
0.008257067433021846,1.155
0.008292630176026458,1.156
0.008327776095517082,1.157
0.008362416191628542,1.158
0.008396456776944776,1.159
0.008429798323476295,1.16
0.008462335319455004,1.161
0.00849395685326487,1.162
0.008524546695557057,1.163
0.008553982568894213,1.164
0.0085821358940992,1.165
0.008608873260365538,1.166
0.008634059291857924,1.167
0.00865755994991253,1.168
0.008679245823628579,1.169
0.008698995129618017,1.17
0.008716695874168198,1.171
0.008732246407482339,1.172
0.008745553619468226,1.173
0.008756528766373594,1.174
0.008765083118023558,1.175
0.00877112735868258,1.176
0.008774576118076057,1.177
0.008775354622546576,1.178
0.008773404086950817,1.179
0.008768684834126735,1.18
0.00876117734480944,1.181
0.008750881487282673,1.182
0.00873781396003627,1.183
0.008722003804245244,1.184
0.008703486278714785,1.185
0.008682297221221092,1.186
0.008658471512824438,1.187
0.008632046698111854,1.188
0.008603068537104453,1.189
0.008571595008487256,1.19
0.008537697745905223,1.191
0.008501461254250529,1.192
0.00846298060208817,1.193
0.008422358401412753,1.194
0.008379701765253445,1.195
0.008335119648413231,1.196
0.008288720655422577,1.197
0.008240611169687093,1.198
0.008190893579356484,1.199
0.008139664675427382,1.2
0.008087014933147828,1.201
0.0080330292825231,1.202
0.007977788960345473,1.203
0.007921373619424342,1.204
0.007863863274882515,1.205
0.007805339931155443,1.206
0.0077458887584621475,1.207
0.0076855987330853625,1.208
0.0076245627255388465,1.209
0.007562877060550838,1.21
0.007500640558765355,1.211
0.007437953040677781,1.212
0.007374913288398078,1.213
0.007311616809441414,1.214
0.007248154460201466,1.215
0.007184612848086265,1.216
0.007121076038052863,1.217
0.007057627286537872,1.218
0.006994350063666975,1.219
0.006931328315566612,1.22
0.006868646195868704,1.221
0.006806387543829317,1.222
0.006744635288899607,1.223
0.0066834707718520575,1.224
0.006622972804997274,1.225
0.006563216486809898,1.226
0.006504272472343399,1.227
0.0064462075250437826,1.228
0.006389086073589995,1.229
0.006332971580107927,1.23
0.006277926793420078,1.231
0.0062240127448094495,1.232
0.00617128729574124,1.233
0.006119804699858169,1.234
0.006069616730372439,1.235
0.0060207742482563074,1.236
0.005973327880944352,1.237
0.0059273274415323094,1.238
0.005882820471968069,1.239
0.005839850779567477,1.24
0.005798457812529807,1.241
0.005758676834223332,1.242
0.005720539107927127,1.243
0.0056840716246524476,1.244
0.005649296621822364,1.245
0.005616231310804046,1.246
0.005584887856677247,1.247
0.005555273455997229,1.248
0.005527390657943508,1.249
0.005501238159332746,1.25
0.005476811937899466,1.251
0.005454106409317965,1.252
0.005433115393677198,1.253
0.0054138327344981745,1.254
0.0053962524309461215,1.255
0.005380368238026175,1.256
0.005366172869915187,1.257
0.005353657115215836,1.258
0.005342809195597634,1.259
0.005333614506918496,1.26
0.005326055569585272,1.261
0.0053201117955534545,1.262
0.005315759033303467,1.263
0.00531296977440079,1.264
0.005311714941120779,1.265
0.005311966923827181,1.266
0.0053137027626671395,1.267
0.005316906559759209,1.268
0.005321570482325493,1.269
0.005327693970726512,1.27
0.0053352811525125485,1.271
0.005344337330810294,1.272
0.005354866647255955,1.273
0.005366872503202086,1.274
0.005380359783795237,1.275
0.005395336771270273,1.276
0.0054118157424499005,1.277
0.005429812358636428,1.278
0.005449344296018952,1.279
0.00547042958108078,1.28
0.005493084984858285,1.281
0.005517324683612698,1.282
0.005543159261367741,1.283
0.005570595005422731,1.284
0.0055996334329151244,1.285
0.005630271180650683,1.286
0.00566250044575278,1.287
0.0056963098439427595,1.288
0.005731685278685158,1.289
0.005768610447097164,1.29
0.005807066774256151,1.291
0.005847032776863482,1.292
0.0058884830912492424,1.293
0.00593138757045141,1.294
0.005975710761444558,1.295
0.006021411715940661,1.296
0.006068443933394923,1.297
0.00611675540958707,1.298
0.00616628879125803,1.299
0.00621698146019641,1.3
0.00626876543960326,1.301
0.006321567419876389,1.302
0.00637530934422718,1.303
0.006429909502723554,1.304
0.006485283539826725,1.305
0.006541344704718777,1.306
0.006598003163193565,1.307
0.00665516525278293,1.308
0.006712734030186282,1.309
0.006770611223050139,1.31
0.006828699270063702,1.311
0.00688690219789087,1.312
0.006945124917479024,1.313
0.007003271225014338,1.314
0.0070612416147946165,1.315
0.007118932498815306,1.316
0.007176237357489261,1.317
0.007233048727340955,1.318
0.007289259867051753,1.319
0.0073447658071657046,1.32
0.007399463831318524,1.321
0.007453253395314649,1.322
0.00750603544981736,1.323
0.007557711114693069,1.324
0.0076081796987057275,1.325
0.007657336647477306,1.326
0.0077050730403933,1.327
0.0077512778489781595,1.328
0.0077958422442791836,1.329
0.007838664418692028,1.33
0.007879653813617582,1.331
0.007918733759456544,1.332
0.007955841448548384,1.333
0.007990924411052825,1.334
0.008023934708649887,1.335
0.008054825886277924,1.336
0.008083556968187685,1.337
0.008110101084868898,1.338
0.008134452900758562,1.339
0.008156631427893711,1.34
0.008176677582088752,1.341
0.008194647332418155,1.342
0.008210603061542606,1.343
0.00822460775663833,1.344
0.008236725218670176,1.345
0.008247024393649575,1.346
0.008255583655209215,1.347
0.008262492908817424,1.348
0.008267853342004116,1.349
0.008271775203885693,1.35
0.008274374233056934,1.351
0.008275767541911696,1.352
0.00827606979457428,1.353
0.008275390315956666,1.354
0.008273831382420091,1.355
0.008271487562807291,1.356
0.008268445874084126,1.357
0.008264786720732834,1.358
0.008260585717116256,1.359
0.008255916220045293,1.36
0.00825085191186979,1.361
0.008245468501097107,1.362
0.00823984378990234,1.363
0.008234055948745834,1.364
0.008228180667441418,1.365
0.008222288533941807,1.366
0.008216443614155747,1.367
0.008210703046270489,1.368
0.008205117394108523,1.369
0.008199732015959839,1.37
0.008194589015159926,1.371
0.008189728582207085,1.372
0.00818518890377752,1.373
0.008181004772634462,1.374
0.00817720625857633,1.375
0.008173819151312465,1.376
0.008170867372230677,1.377
0.0081683759694337,1.378
0.008166373348518325,1.379
0.008164892098228519,1.38
0.008163968179983879,1.381
0.008163638579623997,1.382
0.008163938137224217,1.383
0.008164897029314685,1.384
0.008166540017829007,1.385
0.008168886863097342,1.386
0.008171952455211476,1.387
0.00817574615881713,1.388
0.008180270923178955,1.389
0.00818552291213384,1.39
0.008191492102191562,1.391
0.00819816383202415,1.392
0.008205520849622129,1.393
0.008213545150124691,1.394
0.008222218917123937,1.395
0.008231524157440138,1.396
0.008241441017683685,1.397
0.008251945492841977,1.398
0.008263008150516636,1.399
0.008274594965368469,1.4
0.008286669426687708,1.401
0.008299194392065836,1.402
0.008312132970801316,1.403
0.008325448320427175,1.404
0.008339102409369692,1.405
0.008353054024112173,1.406
0.008367256879825693,1.407
0.008381659144565092,1.408
0.00839620481225992,1.409
0.0084108358838527,1.41
0.008425494124902684,1.411
0.008440121879148854,1.412
0.00845466182544887,1.413
0.008469055734214333,1.414
0.0084832424531913,1.415
0.00849715573345567,1.416
0.008510723043345847,1.417
0.008523866121803537,1.418
0.008536502754971509,1.419
0.008548548892562865,1.42
0.008559920794192124,1.421
0.00857053714944194,1.422
0.008580320937478155,1.423
0.008589200546026127,1.424
0.008597109498076303,1.425
0.008603984158914856,1.426
0.008609760128289281,1.427
0.008614370715547812,1.428
0.008617750432766266,1.429
0.00861984186945324,1.43
0.00862060200602295,1.431
0.008620005510429959,1.432
0.008618044150844412,1.433
0.008614722382732466,1.434
0.008610050588760144,1.435
0.008604039577716422,1.436
0.008596699987524641,1.437
0.008588046291239318,1.438
0.008578101750106643,1.439
0.008566901523305902,1.44
0.008554493273783763,1.441
0.008540935453409367,1.442
0.008526293688099143,1.443
0.008510635936179277,1.444
0.008494027768615242,1.445
0.008476529829861267,1.446
0.008458198125303174,1.447
0.00843908513106169,1.448
0.008419239622801805,1.449
0.008398705259460789,1.45
0.008377519378434868,1.451
0.008355712738361823,1.452
0.008333309634265599,1.453
0.008310328687913374,1.454
0.008286785659755649,1.455
0.008262698092538157,1.456
0.008238089977558514,1.457
0.00821299476763894,1.458
0.008187455817270652,1.459
0.008161524123972653,1.46
0.00813525398907295,1.461
0.008108698246986951,1.462
0.00808190577072437,1.463
0.008054922594613339,1.464
0.008027794922540316,1.465
0.008000571789604248,1.466
0.007973306732213506,1.467
0.007946058501066087,1.468
0.007918890772198407,1.469
0.007891870818896625,1.47
0.007865067232764712,1.471
0.007838547035328613,1.472
0.007812373054439267,1.473
0.007786602772168991,1.474
0.007761288856407994,1.475
0.007736480135282574,1.476
0.007712221857619778,1.477
0.007688555111724672,1.478
0.007665515777308397,1.479
0.007643133495285242,1.48
0.007621431138236311,1.481
0.007600424863053186,1.482
0.007580124300678242,1.483
0.007560532509625205,1.484
0.00754164587482679,1.485
0.007523454397425469,1.486
0.007505942504304083,1.487
0.0074890901087997725,1.488
0.007472873652810189,1.489
0.007457267052836515,1.49
0.007442242539900843,1.491
0.007427771315316718,1.492
0.007413823816836032,1.493
0.007400369284517037,1.494
0.007387374482207907,1.495
0.007374802314883407,1.496
0.007362612002064963,1.497
0.007350761591563678,1.498
0.00733921160894593,1.499
0.0073279281082780584,1.5
0.007316884174457983,1.501
0.007306059550014113,1.502
0.0072954384344567835,1.503
0.007285006024935995,1.504
0.0072747453251424295,1.505
0.007264636253133393,1.506
0.007254657502310112,1.507
0.007244789446058393,1.508
0.007235016385257139,1.509
0.0072253276887107205,1.51
0.007215717958161315,1.511
0.0072061864109522426,1.512
0.00719673566798868,1.513
0.007187370098858185,1.514
0.007178093843848366,1.515
0.007168908632177736,1.516
0.007159811811219244,1.517
0.007150795498616173,1.518
0.007141847345274777,1.519
0.007132952199361952,1.52
0.007124093717510974,1.521
0.007115255601954714,1.522
0.007106422489670998,1.523
0.007097580566617715,1.524
0.007088717986567102,1.525
0.007079825138578931,1.526
0.0070708947489844095,1.527
0.007061921746139785,1.528
0.007052902775512817,1.529
0.0070438352431947465,1.53
0.007034715801509487,1.531
0.007025538441808012,1.532
0.0070162930233636876,1.533
0.00700696541194454,1.534
0.006997539480981227,1.535
0.006988000038755242,1.536
0.006978335678996556,1.537
0.006968541036423225,1.538
0.006958618120225784,1.539
0.006948576451199238,1.54
0.006938431854658332,1.541
0.006928203960113739,1.542
0.006917912847937011,1.543
0.006907576059557051,1.544
0.006897207521165521,1.545
0.006886818524075066,1.546
0.006876419143262685,1.547
0.006866018658414969,1.548
0.006855624795947071,1.549
0.006845242283308764,1.55
0.006834871367067025,1.551
0.0068245069086163715,1.552
0.006814138458302519,1.553
0.006803751406008998,1.554
0.006793329001367074,1.555
0.006782854781622989,1.556
0.006772314774061231,1.557
0.006761698801363498,1.558
0.006751000358762219,1.559
0.006740214836518653,1.56
0.006729336739739887,1.561
0.006718357971853603,1.562
0.00670726896321353,1.563
0.006696061893804477,1.564
0.006684733844288515,1.565
0.00667328852537827,1.566
0.006661736237949716,1.567
0.006650092197215703,1.568
0.006638373675699723,1.569
0.0066265967789588195,1.57
0.00661477408755879,1.571
0.006602914102351667,1.572
0.006591022115682808,1.573
0.006579101306500087,1.574
0.0065671533369292155,1.575
0.006555178411023707,1.576
0.006543174963291547,1.577
0.006531139168297014,1.578
0.006519064486344664,1.579
0.00650694145339737,1.58
0.0064947578582733295,1.581
0.0064824993278273626,1.582
0.006470150192595274,1.583
0.006457694373832266,1.584
0.006445115951152031,1.585
0.006432399057062507,1.586
0.006419526811337975,1.587
0.006406479646908952,1.588
0.006393234646759188,1.589
0.0063797673500376306,1.59
0.0063660553919440395,1.591
0.00635208218738401,1.592
0.006337839398333866,1.593
0.006323327542528824,1.594
0.006308554541137343,1.595
0.006293532531318407,1.596
0.006278273980352345,1.597
0.006262788877854179,1.598
0.006247084250846374,1.599
0.006231165325342624,1.6
0.006215036743687095,1.601
0.006198703085403759,1.602
0.006182168798647344,1.603
0.006165437808872122,1.604
0.006148512997577067,1.605
0.00613139569515097,1.606
0.006114085324293469,1.607
0.00609657932407133,1.608
0.006078873428786002,1.609
0.006060962261982489,1.61
0.006042840068359255,1.611
0.006024501286200888,1.612
0.006005940593199739,1.613
0.005987152073811202,1.614
0.005968127707204675,1.615
0.005948856578062491,1.616
0.005929326256289416,1.617
0.005909525930691163,1.618
0.005889449611192987,1.619
0.005869098143208195,1.62
0.005848479512074259,1.621
0.005827607362841953,1.622
0.00580649802210659,1.623
0.005785167084560827,1.624
0.0057636276318021,1.625
0.0057418911738067015,1.626
0.005719969819170288,1.627
0.0056978776294594625,1.628
0.005675630487452951,1.629
0.005653244665169154,1.63
0.00563073473946035,1.631
0.005608112073863098,1.632
0.005585384728553815,1.633
0.0055625582684199065,1.634
0.0055396363037263745,1.635
0.005516620234443713,1.636
0.005493508378788583,1.637
0.005470295019456254,1.638
0.005446969926883852,1.639
0.005423518390644478,1.64
0.005399921273682323,1.641
0.005376154916420082,1.642
0.005352191243980006,1.643
0.005327998180124813,1.644
0.0053035398950304,1.645
0.005278776674390898,1.646
0.005253665215521249,1.647
0.005228160274171031,1.648
0.005202217423276795,1.649
0.005175795949671085,1.65
0.005148861105074661,1.651
0.005121385192081181,1.652
0.005093347127437699,1.653
0.005064730330982363,1.654
0.005035519627535993,1.655
0.005005699424936246,1.656
0.004975255184045366,1.657
0.00494417735803189,1.658
0.004912465342025594,1.659
0.004880129880450272,1.66
0.004847193507474091,1.661
0.004813689088950818,1.662
0.00477965682446899,1.663
0.004745140363590618,1.664
0.004710183297933877,1.665
0.004674827663737901,1.666
0.004639114788592228,1.667
0.004603086941938415,1.668
0.004566788332456303,1.669
0.004530265238722682,1.67
0.004493565586686518,1.671
0.0044567382370376985,1.672
0.004419832123727924,1.673
0.004382895280840729,1.674
0.004345973775570409,1.675
0.004309110750298697,1.676
0.004272346039895752,1.677
0.004235716583476703,1.678
0.004199257229882161,1.679
0.004163001418509955,1.68
0.004126981513767556,1.681
0.004091228702979615,1.682
0.00405577242979253,1.683
0.004020639683754294,1.684
0.003985854875510584,1.685
0.003951440660668657,1.686
0.00391741918059923,1.687
0.0038838129848612875,1.688
0.0038506453250538976,1.689
0.0038179398105971174,1.69
0.003785719553289323,1.691
0.003754006065707931,1.692
0.003722818340312109,1.693
0.003692172512822808,1.694
0.0036620820857362598,1.695
0.0036325582860228293,1.696
0.003603610233295494,1.697
0.003575244890625767,1.698
0.0035474668911318116,1.699
0.0035202783511414006,1.7
0.00349367877979638,1.701
0.003467665167959299,1.702
0.003442232292021388,1.703
0.003417373211140344,1.704
0.0033930798759802486,1.705
0.0033693437106473902,1.706
0.003346155992771388,1.707
0.0033235078594565813,1.708
0.00330138982359099,1.709
0.003279790960184086,1.71
0.0032586984121895906,1.711
0.0032380978042845943,1.712
0.003217974329276273,1.713
0.003198313795348133,1.714
0.003179103171118485,1.715
0.0031603304645362027,1.716
0.0031419838988100473,1.717
0.003124050739249529,1.718
0.0031065167750887143,1.719
0.003089367127853983,1.72
0.003072587721232769,1.721
0.0030561662827053144,1.722
0.003040092337649375,1.723
0.003024356221481119,1.724
0.0030089477762190297,1.725
0.002993855928372743,1.726
0.002979069631391057,1.727
0.0029645792862993217,1.728
0.0029503775532593282,1.729
0.0029364591882728966,1.73
0.002922820004403156,1.731
0.002909455428286052,1.732
0.002896359585395012,1.733
0.002883525523325967,1.734
0.002870946111765819,1.735
0.0028586147998958646,1.736
0.0028465259133108574,1.737
0.0028346745296392683,1.738
0.0028230560185095364,1.739
0.002811665330992318,1.74
0.0028004961858407547,1.741
0.0027895404617980703,1.742
0.0027787881323713534,1.743
0.0027682277449917973,1.744
0.0027578470934600387,1.745
0.002747633723179782,1.746
0.0027375750389222577,1.747
0.002727657906626354,1.748
0.0027178680313674234,1.749
0.0027081898653574183,1.75
0.002698607426405557,1.751
0.0026891054017490704,1.752
0.0026796696214858736,1.753
0.0026702865575381762,1.754
0.002660942418341427,1.755
0.002651623076977616,1.756
0.0026423153621718473,1.757
0.002633008780346807,1.758
0.0026236964634750717,1.759
0.002614374860639526,1.76
0.0026050423415055093,1.761
0.002595697617767776,1.762
0.0025863393190651437,1.763
0.002576967044397607,1.764
0.0025675827143062427,1.765
0.002558191006936225,1.766
0.002548798582866375,1.767
0.002539412594161799,1.768
0.0025300395714385315,1.769
0.002520685448126523,1.77
0.002511356191994836,1.771
0.0025020579841552996,1.772
0.002492796669030324,1.773
0.002483577205513006,1.774
0.002474403954573611,1.775
0.002465281698943901,1.776
0.0024562165599154593,1.777
0.0024472162119481464,1.778
0.002438289332543348,1.779
0.0024294445608921853,1.78
0.002420689471321365,1.781
0.002412030093509092,1.782
0.0024034710620709815,1.783
0.0023950159780466032,1.784
0.0023866676364491433,1.785
0.0023784281087927696,1.786
0.0023702987864102887,1.787
0.0023622804693211037,1.788
0.0023543735563209683,1.789
0.0023465783529948783,1.79
0.002338895466056069,1.791
0.0023313262026919144,1.792
0.002323872856866122,1.793
0.0023165387577404844,1.794
0.002309327986333808,1.795
0.002302244724325083,1.796
0.0022952924228483904,1.797
0.0022884733700419256,1.798
0.0022817891162478098,1.799
0.0022752414695021883,1.8
0.0022688334264635104,1.801
0.002262569694101835,1.802
0.0022564567484827215,1.803
0.002250502502262499,1.804
0.002244715721372804,1.805
0.00223910535693914,1.806
0.0022336799432976077,1.807
0.002228447161514153,1.808
0.0022234135938239406,1.809
0.00221858462463876,1.81
0.002213964404508134,1.811
0.002209555793565004,1.812
0.0022053602288966134,1.813
0.0022013775209851726,1.814
0.0021976056976615453,1.815
0.002194041077643083,1.816
0.002190678632796992,1.817
0.0021875125218433185,1.818
0.0021845366505597267,1.819
0.0021817451729768513,1.82
0.002179132877637344,1.821
0.0021766954033673644,1.822
0.0021744292184630374,1.823
0.0021723312912310068,1.824
0.002170398444680481,1.825
0.0021686266728181496,1.826
0.0021670109980420726,1.827
0.0021655461249845275,1.828
0.0021642274273138457,1.829
0.00216305164550443,1.83
0.0021620170071434616,1.831
0.002161122725867775,1.832
