VaMe,time
0.0011959563602858367,0.001
0.0013217812859438593,0.002
0.0014479291661315113,0.003
0.0015742701440900936,0.004
0.0017006813938740724,0.005
0.0018270498973750704,0.006
0.001953273669409268,0.007
0.0020792611245036333,0.008
0.0022049286039211593,0.009
0.0023301969086762593,0.01
0.0024549890194705435,0.011
0.0025792308913100527,0.012
0.0027028546886958466,0.013
0.002825802353072059,0.014
0.002948028143686813,0.015
0.003069499689987507,0.016
0.0031901973767695583,0.017
0.0033101120659811707,0.018
0.0034292414155277094,0.019
0.0035475858039206885,0.02
0.0036651459301399046,0.021
0.003781923342901687,0.022
0.0038979226074875237,0.023
0.004013153093845722,0.024
0.0041276296820358235,0.025
0.004241372592066994,0.026
0.00435440670983411,0.027
0.004466760744013567,0.028
0.004578466407967183,0.029
0.0046895576458258785,0.03
0.004800069795103051,0.031
0.004910038552812504,0.032
0.0050194986859378125,0.033
0.005128482605352347,0.034
0.0052370191972794244,0.035
0.005345133342711157,0.036
0.005452846044656136,0.037
0.0055601745902347545,0.038
0.005667132316789914,0.039
0.00577372808182312,0.04
0.005879965964595701,0.041
0.005985845557443405,0.042
0.006091362566141696,0.043
0.006196509204645367,0.044
0.006301274097044223,0.045
0.006405641717131094,0.046
0.006509591951660327,0.047
0.006613100668226242,0.048
0.006716141493631508,0.049
0.006818688125697378,0.05
0.006920716369828005,0.051
0.007022205383239298,0.052
0.007123137833870244,0.053
0.007223498873013362,0.054
0.007323274042838779,0.055
0.007422446641284071,0.056
0.007520995691106097,0.057
0.007618895584147797,0.058
0.007716117174059075,0.059
0.007812629107002794,0.06
0.007908398571091105,0.061
0.008003391398853985,0.062
0.00809757176543019,0.063
0.008190901743806673,0.064
0.008283340854157422,0.065
0.008374845533999404,0.066
0.008465368289817561,0.067
0.008554856476810126,0.068
0.008643251367744756,0.069
0.008730488499081337,0.07
0.008816499338070122,0.071
0.00890121321403516,0.072
0.008984558433204419,0.073
0.009066462006109837,0.074
0.00914684800271836,0.075
0.009225635694057538,0.076
0.009302739488475952,0.077
0.009378071338893507,0.078
0.009451544041908934,0.079
0.009523073540223567,0.08
0.009592579443063071,0.081
0.00965998372477233,0.082
0.009725207913976498,0.083
0.009788169695708353,0.084
0.009848780706273817,0.085
0.009906946860429087,0.086
0.009962570646424905,0.087
0.010015554039314587,0.088
0.010065801534850163,0.089
0.010113223397479578,0.09
0.01015773898609908,0.091
0.010199279507555562,0.092
0.010237789114059733,0.093
0.01027322317227316,0.094
0.010305543406507953,0.095
0.010334712514248905,0.096
0.010360693422529087,0.097
0.010383455228339512,0.098
0.010402981812734503,0.099
0.010419278148757974,0.1
0.010432372305520844,0.101
0.010442313080911644,0.102
0.01044916395667319,0.103
0.010452994991301874,0.104
0.010453875926601418,0.105
0.010451874278875856,0.106
0.010447058752139,0.107
0.010439504318245547,0.108
0.01042929562528565,0.109
0.010416527826102343,0.11
0.010401305066382831,0.111
0.010383737180057135,0.112
0.01036393534800491,0.113
0.010342007681740633,0.114
0.01031805608120357,0.115
0.010292175578415002,0.116
0.010264456032833023,0.117
0.010234984859120876,0.118
0.010203849686406207,0.119
0.01017114043505709,0.12
0.01013695037865778,0.121
0.01010137574964309,0.122
0.010064513664030791,0.123
0.010026458853804765,0.124
0.00998730099436397,0.125
0.009947124616866332,0.126
0.009906011462110762,0.127
0.009864043210423059,0.128
0.009821303008332345,0.129
0.00977787552542378,0.13
0.00973384587158624,0.131
0.00968929784893636,0.132
0.009644312032747442,0.133
0.009598964093639785,0.134
0.009553323604836753,0.135
0.009507453344125259,0.136
0.009461408851996209,0.137
0.009415238006589968,0.138
0.00936898090982573,0.139
0.009322670837871071,0.14
0.009276336502482246,0.141
0.009230004981500391,0.142
0.009183704436514617,0.143
0.009137465978339006,0.144
0.009091324302905731,0.145
0.00904531697504929,0.146
0.008999482492431545,0.147
0.008953857458224052,0.148
0.008908473707015023,0.149
0.008863356984215379,0.15
0.008818528078953758,0.151
0.008774005373272638,0.152
0.008729807305617813,0.153
0.008685954146309655,0.154
0.008642468943727733,0.155
0.00859937755366269,0.156
0.008556707757271508,0.157
0.008514487581348172,0.158
0.008472743022799847,0.159
0.008431495671321771,0.16
0.00839076129460499,0.161
0.008350550271221842,0.162
0.008310869493909464,0.163
0.008271724633100636,0.164
0.008233122033406811,0.165
0.008195069955936092,0.166
0.008157578994621212,0.167
0.00812066156526161,0.168
0.00808433048937796,0.169
0.008048596836239583,0.17
0.008013467577873199,0.171
0.007978944262777692,0.172
0.007945023635969297,0.173
0.007911699725735938,0.174
0.007878966236937648,0.175
0.007846818543221194,0.176
0.007815254938845351,0.177
0.0077842768584957915,0.178
0.007753887864033976,0.179
0.007724091398248932,0.18
0.007694888023207468,0.181
0.007666274008574341,0.182
0.007638242635691676,0.183
0.007610787296715833,0.184
0.007583904551949167,0.185
0.007557596176398514,0.186
0.007531869872844614,0.187
0.007506738487617427,0.188
0.007482217689459641,0.189
0.007458322731922728,0.19
0.0074350663652914045,0.191
0.007412459969501293,0.192
0.007390517343674454,0.193
0.007369258575254595,0.194
0.007348711992136373,0.195
0.007328913536730546,0.196
0.00730990379476733,0.197
0.007291723825808557,0.198
0.0072744118890997024,0.199
0.007258002609359866,0.2
0.007242527838711114,0.201
0.007228017263538172,0.202
0.007214497822414849,0.203
0.007201992314309433,0.204
0.007190518086819277,0.205
0.007180086382686519,0.206
0.00717070221045338,0.207
0.007162364641544351,0.208
0.0071550679243461025,0.209
0.007148803444848557,0.21
0.007143561854692067,0.211
0.007139334570938386,0.212
0.007136114077249217,0.213
0.007133892726532089,0.214
0.007132660556584029,0.215
0.007132403927797352,0.216
0.007133106393882923,0.217
0.00713475081837331,0.218
0.007137320720859593,0.219
0.007140800029764157,0.22
0.007145171649966143,0.221
0.007150415698361973,0.222
0.007156508174643845,0.223
0.007163420401648284,0.224
0.007171119062832906,0.225
0.0071795663453240914,0.226
0.007188719697373964,0.227
0.007198531250563159,0.228
0.007208947827776445,0.229
0.0072199123741322835,0.23
0.00723136650959535,0.231
0.0072432533792158174,0.232
0.007255520280907955,0.233
0.007268120699333235,0.234
0.007281015297013255,0.235
0.007294171383993808,0.236
0.007307560487762164,0.237
0.007321154707848444,0.238
0.007334924674948584,0.239
0.00734884168743679,0.24
0.00736288290442322,0.241
0.007377036305278815,0.242
0.007391303264972923,0.243
0.007405698110052788,0.244
0.0074202448351697705,0.245
0.007434971938111824,0.246
0.007449907553959962,0.247
0.0074650775744911245,0.248
0.0074805071387092645,0.249
0.007496222909058045,0.25
0.007512253722494093,0.251
0.0075286291760651115,0.252
0.007545377001742145,0.253
0.0075625209096917305,0.254
0.0075800802760694575,0.255
0.007598071246369897,0.256
0.0076165077509792335,0.257
0.007635401613948923,0.258
0.007654761821423958,0.259
0.007674593250823737,0.26
0.007694895384558977,0.261
0.0077156619430229015,0.262
0.007736881986630362,0.263
0.007758541906928333,0.264
0.007780627334637264,0.265
0.007803124408043987,0.266
0.00782602019190333,0.267
0.007849302285387253,0.268
0.007872957929201787,0.269
0.007896973073394242,0.27
0.007921331786825005,0.271
0.007946016076674162,0.272
0.007971005786552325,0.273
0.007996277982721173,0.274
0.008021805690120216,0.275
0.008047557160712364,0.276
0.008073497181643179,0.277
0.008099590193848778,0.278
0.00812580355734166,0.279
0.008152109653757568,0.28
0.008178486409970983,0.281
0.008204916424329583,0.282
0.00823138524717534,0.283
0.008257879477163835,0.284
0.008284385151061079,0.285
0.008310886539083009,0.286
0.0083373650966967,0.287
0.008363798190521863,0.288
0.008390157793868877,0.289
0.008416410406354444,0.29
0.008442519204102076,0.291
0.008468447803246688,0.292
0.00849416432581972,0.293
0.008519644904114384,0.294
0.008544876023760924,0.295
0.008569855166419272,0.296
0.008594589422622445,0.297
0.008619092095364747,0.298
0.008643378018643134,0.299
0.008667459582866566,0.3
0.008691345786686316,0.301
0.008715044388586304,0.302
0.008738564843364677,0.303
0.008761920086526322,0.304
0.008785126821732825,0.305
0.008808204710974174,0.306
0.008831175017154911,0.307
0.00885405924045678,0.308
0.008876878142633401,0.309
0.008899651331441006,0.31
0.008922397346805935,0.311
0.008945133995004457,0.312
0.008967878550014642,0.313
0.008990647415696178,0.314
0.009013454937457336,0.315
0.009036311484456773,0.316
0.009059221880016762,0.317
0.009082185679752478,0.318
0.009105199559488943,0.319
0.009128260621307657,0.32
0.00915136944162321,0.321
0.009174532322544969,0.322
0.00919776242358887,0.323
0.00922107948496176,0.324
0.009244508030552816,0.325
0.009268074260997938,0.326
0.009291802306236841,0.327
0.009315711120650999,0.328
0.009339813376232294,0.329
0.009364116439979796,0.33
0.009388624201297715,0.331
0.009413338710851888,0.332
0.009438261345083186,0.333
0.009463393396649289,0.334
0.009488735993156559,0.335
0.009514289411122935,0.336
0.009540052040168317,0.337
0.00956601928984077,0.338
0.0095921825521824,0.339
0.009618528022541196,0.34
0.009645035407120073,0.341
0.009671677654718056,0.342
0.009698422977822337,0.343
0.009725238649472525,0.344
0.009752094774794178,0.345
0.009778966529568877,0.346
0.009805834023858668,0.347
0.009832679538681678,0.348
0.009859483366190712,0.349
0.009886221674007942,0.35
0.009912868839396894,0.351
0.00993940242528054,0.352
0.009965807330310454,0.353
0.009992077345585094,0.354
0.010018213702635333,0.355
0.010044220916330107,0.356
0.010070101892880448,0.357
0.010095855978752375,0.358
0.010121481608388267,0.359
0.010146980833901502,0.36
0.010172362295370255,0.361
0.010197641554531739,0.362
0.010222839189574591,0.363
0.010247977456712937,0.364
0.010273076414250867,0.365
0.010298150466218065,0.366
0.010323206530071214,0.367
0.010348244570130545,0.368
0.010373259968838035,0.369
0.010398246701423836,0.37
0.010423200656304959,0.371
0.010448122585435938,0.372
0.01047302006617162,0.373
0.010497907935818111,0.374
0.010522806949785876,0.375
0.010547740780905791,0.376
0.010572731926523759,0.377
0.010597797998436099,0.378
0.01062295054541903,0.379
0.010648197086145282,0.38
0.01067354459206079,0.381
0.010699002403647125,0.382
0.010724583817792923,0.383
0.01075030629008982,0.384
0.010776190484981966,0.385
0.010802258685099615,0.386
0.010828533187217323,0.387
0.010855035162375057,0.388
0.010881784073046187,0.389
0.010908797291519683,0.39
0.010936089273998133,0.391
0.01096366985333927,0.392
0.01099154240806436,0.393
0.011019703902155486,0.394
0.011048147724800991,0.395
0.01107686777486258,0.396
0.01110586161783956,0.397
0.011135131608376946,0.398
0.01116468373884719,0.399
0.011194524541350644,0.4
0.011224657019848008,0.401
0.011255077211376033,0.402
0.011285772630564649,0.403
0.011316722145720265,0.404
0.011347895810111964,0.405
0.011379254218884418,0.406
0.011410748092817545,0.407
0.011442318293075184,0.408
0.011473895725236626,0.409
0.011505400991206534,0.41
0.01153674414149413,0.411
0.011567824737063087,0.412
0.011598532484584666,0.413
0.011628748648087663,0.414
0.011658347630503491,0.415
0.011687197548643075,0.416
0.011715159459382743,0.417
0.011742086904811705,0.418
0.011767828033689106,0.419
0.011792230277678619,0.42
0.011815145474935118,0.421
0.011836433542126447,0.422
0.011855963754733892,0.423
0.011873613300737815,0.424
0.011889263171405791,0.425
0.011902792782589105,0.426
0.011914077200416717,0.427
0.01192299020196935,0.428
0.011929411596054328,0.429
0.01193323463164397,0.43
0.01193437070236276,0.431
0.011932750119729411,0.432
0.011928318543305115,0.433
0.011921029803918428,0.434
0.011910838401126861,0.435
0.01189769696516217,0.436
0.011881560359212917,0.437
0.011862391758803045,0.438
0.011840165332479903,0.439
0.011814863755089637,0.44
0.011786472173299953,0.441
0.01175497325982931,0.442
0.01172034716058995,0.443
0.011682574334930708,0.444
0.011641636085072371,0.445
0.011597511668029194,0.446
0.011550177242580171,0.447
0.011499611189577383,0.448
0.011445803043676315,0.449
0.01138876019621297,0.45
0.01132850922645402,0.451
0.011265091127737251,0.452
0.01119855290789555,0.453
0.011128943050819393,0.454
0.01105631653493357,0.455
0.010980745588813796,0.456
0.010902328193117327,0.457
0.010821190095789402,0.458
0.010737479845427883,0.459
0.010651358944652717,0.46
0.010562992510366515,0.461
0.010472546252346693,0.462
0.01038018975058249,0.463
0.01028610037515033,0.464
0.010190463620284914,0.465
0.010093469813139097,0.466
0.009995309087880176,0.467
0.009896167117791194,0.468
0.009796223568764124,0.469
0.00969565291345427,0.47
0.009594625504231158,0.471
0.009493307543602553,0.472
0.009391860015773175,0.473
0.009290437232058468,0.474
0.009189185830858985,0.475
0.009088244799428847,0.476
0.00898774630840672,0.477
0.008887816782677383,0.478
0.008788577872960428,0.479
0.008690147152873477,0.48
0.008592638294931195,0.481
0.008496160480814492,0.482
0.008400817242653773,0.483
0.00830670570248798,0.484
0.008213916971949517,0.485
0.008122537099076194,0.486
0.008032647345285955,0.487
0.00794432353819224,0.488
0.007857635516727234,0.489
0.007772647584201023,0.49
0.0076894194323518135,0.491
0.0076080063306940456,0.492
0.007528458513814151,0.493
0.0074508211309924095,0.494
0.0073751356631569865,0.495
0.007301441839567578,0.496
0.0072297785151166985,0.497
0.007160182896894857,0.498
0.007092688761135718,0.499
0.007027325475177016,0.5
0.006964119034862602,0.501
0.006903094128711513,0.502
0.0068442755791282145,0.503
0.00678768852698804,0.504
0.006733357406144391,0.505
0.0066813041588170965,0.506
0.00663154683745122,0.507
0.006584099751918742,0.508
0.00653897500755031,0.509
0.006496184178900281,0.51
0.006455739126020187,0.511
0.006417651667287335,0.512
0.0063819322216259865,0.513
0.006348588000691229,0.514
0.00631762191534212,0.515
0.006289032936494035,0.516
0.006262817254355192,0.517
0.006238969036903149,0.518
0.006217480144674512,0.519
0.006198339064329116,0.52
0.006181530368145934,0.521
0.006167035707756182,0.522
0.006154835517176715,0.523
0.006144909840557193,0.524
0.006137237612673512,0.525
0.0061317950822025995,0.526
0.006128555143308509,0.527
0.006127488625774393,0.528
0.006128566580048963,0.529
0.006131762094134872,0.53
0.006137051089436487,0.531
0.006144412061120095,0.532
0.006153824805353195,0.533
0.006165268374724447,0.534
0.006178719177625718,0.535
0.00619415070455463,0.536
0.006211535401351097,0.537
0.006230847499557411,0.538
0.006252065300634775,0.539
0.006275172162025407,0.54
0.006300155969923443,0.541
0.006327007226947681,0.542
0.006355716264016191,0.543
0.006386270595447254,0.544
0.006418653677263027,0.545
0.006452845363565959,0.546
0.00648882303520953,0.547
0.006526562488881013,0.548
0.006566038578533369,0.549
0.006607225889270532,0.55
0.006650099486964672,0.551
0.006694635457810499,0.552
0.006740810742709834,0.553
0.0067886018556960375,0.554
0.00683798281424545,0.555
0.006888923759320938,0.556
0.00694139140788802,0.557
0.006995350541519191,0.558
0.007050765042779791,0.559
0.007107598054341248,0.56
0.007165811693119814,0.561
0.007225366815552858,0.562
0.007286223004572066,0.563
0.007348338508148305,0.564
0.007411669549455552,0.565
0.007476168961223003,0.566
0.007541785640868031,0.567
0.00760846649666573,0.568
0.007676160313411302,0.569
0.007744821385731314,0.57
0.007814411259407496,0.571
0.007884897861219512,0.572
0.007956252194879877,0.573
0.00802844445014646,0.574
0.008101442710873482,0.575
0.008175215409132257,0.576
0.008249734920336513,0.577
0.008324979231386281,0.578
0.008400930803052613,0.579
0.00847757333536092,0.58
0.008554887827280139,0.581
0.008632849426093457,0.582
0.008711425997596438,0.583
0.008790578463330267,0.584
0.008870262215438783,0.585
0.008950428582358892,0.586
0.009031025447701355,0.587
0.009111996584614234,0.588
0.009193280135392052,0.589
0.009274807762772525,0.59
0.009356505748270908,0.591
0.009438297600102428,0.592
0.009520106981316266,0.593
0.009601860354578108,0.594
0.00968348912670292,0.595
0.009764931028568792,0.596
0.009846130388446167,0.597
0.009927036974210235,0.598
0.010007603248714858,0.599
0.010087780496708783,0.6
0.010167515574858638,0.601
0.010246750474775032,0.602
0.010325424866872447,0.603
0.01040347962158086,0.604
0.010480859651033143,0.605
0.01055751578095739,0.606
0.010633405835850162,0.607
0.010708494983346277,0.608
0.010782755205097283,0.609
0.010856163713878497,0.61
0.010928700259855074,0.611
0.011000343471371361,0.612
0.011071067033098347,0.613
0.011140837582845446,0.614
0.011209615662661923,0.615
0.011277358735921261,0.616
0.011344024397811512,0.617
0.01140957290704857,0.618
0.01147396889620828,0.619
0.01153718221221206,0.62
0.011599187834391888,0.621
0.011659964848137923,0.622
0.011719494536966543,0.623
0.011777757742910903,0.624
0.011834731651390432,0.625
0.011890386643698196,0.626
0.011944685001728758,0.627
0.011997582829993478,0.628
0.012049034162747293,0.629
0.012098995110182578,0.63
0.012147426665957107,0.631
0.012194295520187231,0.632
0.012239572630551792,0.633
0.012283229702217893,0.634
0.012325234677037484,0.635
0.01236554892899667,0.636
0.012404128310445474,0.637
0.012440926784957815,0.638
0.012475899488068012,0.639
0.012509003143294032,0.64
0.01254019353867751,0.641
0.012569422192189927,0.642
0.012596636239410595,0.643
0.012621783073861489,0.644
0.012644816502854919,0.645
0.012665700297761248,0.646
0.012684407325305914,0.647
0.012700914667084446,0.648
0.012715198059576958,0.649
0.01272723110201482,0.65
0.012736991238713913,0.651
0.01274446857415815,0.652
0.01274967260933746,0.653
0.01275263467390663,0.654
0.012753405561203145,0.655
0.012752048710401845,0.656
0.012748631267367624,0.657
0.012743218448070795,0.658
0.012735875412715479,0.659
0.012726674300727037,0.66
0.012715700758755891,0.661
0.012703056735074889,0.662
0.012688859059552495,0.663
0.012673234546719623,0.664
0.012656313052831382,0.665
0.01263822061898699,0.666
0.012619075237406468,0.667
0.012598986137636882,0.668
0.012578054784794223,0.669
0.012556375621536147,0.67
0.012534036336107598,0.671
0.012511118195445205,0.672
0.012487696694028036,0.673
0.012463842378286663,0.674
0.012439621482675411,0.675
0.012415096020973375,0.676
0.012390323184484709,0.677
0.012365354199901042,0.678
0.012340233033573645,0.679
0.012314995350510246,0.68
0.012289667900251804,0.681
0.0122642681005653,0.682
0.012238803567453492,0.683
0.01221327223450587,0.684
0.012187664353065373,0.685
0.012161966622641445,0.686
0.012136167125772193,0.687
0.012110259257552623,0.688
0.012084243201660953,0.689
0.012058124128085879,0.69
0.012031907735388482,0.691
0.012005596421778843,0.692
0.011979190101106338,0.693
0.011952691814572536,0.694
0.011926114354118016,0.695
0.011899484505470938,0.696
0.011872843695856238,0.697
0.011846245014843786,0.698
0.011819747188506384,0.699
0.01179340772215019,0.7
0.011767279638710137,0.701
0.011741414234345738,0.702
0.011715866814246296,0.703
0.011690701117720468,0.704
0.011665990897835354,0.705
0.011641818822560523,0.706
0.011618273337189521,0.707
0.011595444436972196,0.708
0.011573419351960539,0.709
0.011552278906150832,0.71
0.011532094992813147,0.711
0.011512929457440929,0.712
0.01149483442903718,0.713
0.011477853719784405,0.714
0.01146202482827179,0.715
0.011447381248075397,0.716
0.011433954779507668,0.717
0.011421777471568759,0.718
0.011410882870184394,0.719
0.011401306387545987,0.72
0.0113930847496895,0.721
0.011386254566000753,0.722
0.011380850096066875,0.723
0.011376900505108688,0.724
0.011374427667192656,0.725
0.011373446075699295,0.726
0.011373965218961286,0.727
0.011375993009058269,0.728
0.011379538640067887,0.729
0.011384614016875858,0.73
0.011391233391179343,0.731
0.011399411214524906,0.732
0.011409158708994232,0.733
0.011420480353742216,0.734
0.011433371866983252,0.735
0.01144781998128345,0.736
0.01146380258157426,0.737
0.011481288448258712,0.738
0.011500237473981809,0.739
0.011520601642164547,0.74
0.011542325561105704,0.741
0.0115653462330189,0.742
0.01158959421127646,0.743
0.01161499803625336,0.744
0.011641490716722502,0.745
0.01166901540442332,0.746
0.01169752812206146,0.747
0.011726996403017631,0.748
0.011757394009766726,0.749
0.0117886948233718,0.75
0.011820871414846333,0.751
0.01185390051144037,0.752
0.01188777135440929,0.753
0.01192249196932324,0.754
0.011958091400487016,0.755
0.011994617822553249,0.756
0.012032133143529463,0.757
0.01207070527573224,0.758
0.012110400472767197,0.759
0.012151279657884605,0.76
0.012193400638128358,0.761
0.012236823444931438,0.762
0.01228161517615169,0.763
0.012327853026368085,0.764
0.012375625294283961,0.765
0.012425030223361723,0.766
0.012476172721899591,0.767
0.012529159338010328,0.768
0.012584092731658442,0.769
0.012641067983957364,0.77
0.012700172027802617,0.771
0.012761484504903445,0.772
0.012825077563150405,0.773
0.012891014300528908,0.774
0.012959347564410927,0.775
0.01303012019039653,0.776
0.013103365633717026,0.777
0.013179107654180107,0.778
0.013257359375912632,0.779
0.013338122943313957,0.78
0.013421390151911315,0.781
0.013507143398095818,0.782
0.013595356533879515,0.783
0.013685995952637107,0.784
0.013779022290350901,0.785
0.013874392631213064,0.786
0.013972062563678183,0.787
0.014071987183249337,0.788
0.014174120354240418,0.789
0.014278412144922495,0.79
0.014384805213491211,0.791
0.014493231662271658,0.792
0.014603611360696659,0.793
0.014715851419460387,0.794
0.014829846704708181,0.795
0.014945481936666028,0.796
0.01506263472040547,0.797
0.015181177640343359,0.798
0.01530097787447727,0.799
0.015421894727454066,0.8
0.015543778628540016,0.801
0.015666474865247512,0.802
0.015789830567516018,0.803
0.015913700996109253,0.804
0.016037952803710807,0.805
0.016162463742674497,0.806
0.016287119297434077,0.807
0.016411807407301374,0.808
0.01653641266200025,0.809
0.01666081108813339,0.81
0.016784866266575695,0.811
0.016908427316116914,0.812
0.0170313288096262,0.813
0.01715339205811695,0.814
0.017274427291449145,0.815
0.01739423674040681,0.816
0.017512618580770512,0.817
0.017629371268239814,0.818
0.01774429741777016,0.819
0.017857206212331795,0.82
0.017967913393028705,0.821
0.018076238176925077,0.822
0.01818199755422112,0.823
0.018285001125260665,0.824
0.01838505117150374,0.825
0.018481948950190355,0.826
0.01857550298394245,0.827
0.01866553455458557,0.828
0.01875187787180191,0.829
0.01883437433655711,0.83
0.01891286460832341,0.831
0.01898718740348851,0.832
0.019057190008659717,0.833
0.01912274433985129,0.834
0.01918375876138117,0.835
0.01924018028312718,0.836
0.019291985677620346,0.837
0.019339165673008977,0.838
0.019381714836355025,0.839
0.019419637327869332,0.84
0.01945296322548308,0.841
0.019481762607484465,0.842
0.01950615055857954,0.843
0.01952628252419346,0.844
0.019542341930492837,0.845
0.019554524003839075,0.846
0.01956302250498385,0.847
0.01956802566655566,0.848
0.019569720554530906,0.849
0.01956829892164006,0.85
0.019563959499651666,0.851
0.019556906246508198,0.852
0.019547343793437578,0.853
0.01953547140649304,0.854
0.019521477094644215,0.855
0.019505534032384968,0.856
0.01948780017966315,0.857
0.01946841921624318,0.858
0.019447520421015094,0.859
0.01942521740905626,0.86
0.01940160751268101,0.861
0.01937677274950535,0.862
0.019350781147349307,0.863
0.01932368699061608,0.864
0.01929553009770094,0.865
0.0192663352768881,0.866
0.019236113205224753,0.867
0.019204863425649567,0.868
0.01917257915267225,0.869
0.019139252517376856,0.87
0.01910487822833871,0.871
0.019069453699359955,0.872
0.01903297501436447,0.873
0.018995431651613586,0.874
0.01895680598445803,0.875
0.018917080125431914,0.876
0.018876245751146256,0.877
0.018834311314068892,0.878
0.018791304374215567,0.879
0.018747268941866572,0.88
0.01870225850555847,0.881
0.018656326777188623,0.882
0.01860952069115513,0.883
0.018561880149290742,0.884
0.018513443785109444,0.885
0.018464255612811366,0.886
0.01841436850437442,0.887
0.018363843250961503,0.888
0.018312743366804586,0.889
0.018261127749053585,0.89
0.01820904628525,0.891
0.018156541987860528,0.892
0.01810365686161769,0.893
0.01805043609649393,0.894
0.017996927850945678,0.895
0.0179431788754172,0.896
0.01788922938942788,0.897
0.017835112658768405,0.898
0.01778086094121813,0.899
0.017726513362796667,0.9
0.017672120598579647,0.901
0.017617744459347107,0.902
0.017563452724159143,0.903
0.01750931137171626,0.904
0.0174553787203813,0.905
0.017401705304841832,0.906
0.01734833833064352,0.907
0.017295326357758593,0.908
0.01724272149886793,0.909
0.017190578849068567,0.91
0.017138953784159153,0.911
0.017087898037646064,0.912
0.01703745559278175,0.913
0.01698765934736919,0.914
0.016938529179128,0.915
0.01689007151547793,0.916
0.01684227998658041,0.917
0.016795136438428022,0.918
0.01674861160604684,0.919
0.016702665028405166,0.92
0.016657244165605316,0.921
0.016612283036531443,0.922
0.016567700998134642,0.923
0.016523402313588103,0.924
0.01647927669902857,0.925
0.016435200673027693,0.926
0.01639103983111702,0.927
0.016346652594224954,0.928
0.016301895899023575,0.929
0.016256632723703632,0.93
0.016210740429989566,0.931
0.016164117893645916,0.932
0.01611668878847432,0.933
0.016068398705414846,0.934
0.016019206180868446,0.935
0.015969073308597873,0.936
0.015917964961020093,0.937
0.015865858792931616,0.938
0.015812758319417232,0.939
0.01575870095760129,0.94
0.01570375834558503,0.941
0.015648029497913964,0.942
0.015591628708333862,0.943
0.015534672561360333,0.944
0.015477273001283844,0.945
0.015419539346204308,0.946
0.01536158380899185,0.947
0.015303524206768265,0.948
0.015245482573728701,0.949
0.015187581001947302,0.95
0.015129936366333389,0.951
0.015072655879862368,0.952
0.015015835148054225,0.953
0.014959558611775068,0.954
0.014903900558727328,0.955
0.014848925372751003,0.956
0.014794687128666738,0.957
0.014741229231534413,0.958
0.014688584696685521,0.959
0.014636777267404153,0.96
0.014585823011123185,0.961
0.014535731580113564,0.962
0.014486506171407709,0.963
0.014438142012661904,0.964
0.014390625279536473,0.965
0.01434393516095753,0.966
0.014298049223731195,0.967
0.01425294950384354,0.968
0.014208626877592407,0.969
0.014165082672747928,0.97
0.014122327439299944,0.971
0.014080377315806242,0.972
0.014039248638945007,0.973
0.0139989523372155,0.974
0.013959491409306093,0.975
0.013920863732908335,0.976
0.013883068327658744,0.977
0.013846111596905573,0.978
0.013810011467059563,0.979
0.013774798281506328,0.98
0.013740511768389353,0.981
0.013707194776497091,0.982
0.013674887144429314,0.983
0.013643624050200188,0.984
0.013613439040576505,0.985
0.013584367180503293,0.986
0.01355644446333477,0.987
0.013529703908826931,0.988
0.0135041723759369,0.989
0.01347987155394651,0.99
0.013456821942366005,0.991
0.013435046022050484,0.992
0.013414568464551241,0.993
0.013395413253111464,0.994
0.013377599301131806,0.995
0.013361138325871238,0.996
0.013346037678292929,0.997
0.013332306307050101,0.998
0.013319960227537567,0.999
0.013309025546371173,1.0
0.013299538434347662,1.001
0.013291542019813323,1.002
0.013285080849755817,1.003
0.013280194979567332,1.004
0.013276917138603427,1.005
0.013275274392012091,1.006
0.013275291670536815,1.007
0.013276994167463358,1.008
0.013280408052498834,1.009
0.013285560172364392,1.01
0.013292477381484327,1.011
0.013301185883136713,1.012
0.013311710654937478,1.013
0.013324074822827174,1.014
0.013338298768275473,1.015
0.013354398768439524,1.016
0.013372385031716097,1.017
0.013392259369065235,1.018
0.013414013592301653,1.019
0.013437629816769324,1.02
0.013463082393932145,1.021
0.013490340092217142,1.022
0.013519367675132203,1.023
0.013550126981550219,1.024
0.013582577982789503,1.025
0.013616680165448841,1.026
0.013652394213422828,1.027
0.013689683595132783,1.028
0.013728515547054846,1.029
0.013768861118658514,1.03
0.01381069421309727,1.031
0.013853989668489624,1.032
0.013898720294551945,1.033
0.013944853255544277,1.034
0.013992347949261944,1.035
0.014041157969524175,1.036
0.014091236865722327,1.037
0.014142544734297383,1.038
0.014195052859852083,1.039
0.01424874483859042,1.04
0.01430361357603655,1.041
0.014359654868942943,1.042
0.01441686048202054,1.043
0.014475214577798491,1.044
0.014534693809918354,1.045
0.01459526752564577,1.046
0.0146568970611665,1.047
0.014719537179911845,1.048
0.014783140671240603,1.049
0.0148476628927546,1.05
0.014913062818687555,1.051
0.01497929980962092,1.052
0.015046328775049765,1.053
0.015114098888199569,1.054
0.01518255807869155,1.055
0.015251659550255897,1.056
0.01532136552353317,1.057
0.015391646547053266,1.058
0.015462476984320746,1.059
0.015533828472957246,1.06
0.015605664127923517,1.061
0.015677935653470164,1.062
0.015750582703505094,1.063
0.01582353238166521,1.064
0.015896698881606823,1.065
0.015969984388013614,1.066
0.016043280398219326,1.067
0.01611646771567694,1.068
0.016189415227132437,1.069
0.016261979731434062,1.07
0.01633400859380862,1.071
0.016405344426746845,1.072
0.01647583001681003,1.073
0.016545312540488702,1.074
0.0166136465050866,1.075
0.016680694625106653,1.076
0.016746325574127037,1.077
0.016810408736151142,1.078
0.016872810325543924,1.079
0.016933397664723477,1.08
0.016992052869070334,1.081
0.01704868954994071,1.082
0.017103264836214483,1.083
0.017155781944492257,1.084
0.01720628156303296,1.085
0.017254825409229495,1.086
0.017301483041048095,1.087
0.01734633271347555,1.088
0.017389473931574927,1.089
0.017431039869059365,1.09
0.017471201816683015,1.091
0.017510164972045918,1.092
0.017548158014139722,1.093
0.01758541970027783,1.094
0.017622186352776882,1.095
0.017658684442326673,1.096
0.017695129431455868,1.097
0.017731727297162152,1.098
0.017768675074646655,1.099
0.01780616004541819,1.1
0.01784435867223784,1.101
0.017883436069807458,1.102
0.017923546255099402,1.103
0.017964832999110447,1.104
0.01800743090116236,1.105
0.0180514662983772,1.106
0.01809705769567845,1.107
0.01814431545986245,1.108
0.0181933405678878,1.109
0.018244222418521756,1.11
0.018297036522599865,1.111
0.018351843676062893,1.112
0.01840869118788932,1.113
0.01846761468554367,1.114
0.018528638750291298,1.115
0.018591775825142594,1.116
0.01865702415430906,1.117
0.018724366673008874,1.118
0.018793771948810056,1.119
0.01886519581797107,1.12
0.018938581799258076,1.121
0.019013859902381577,1.122
0.019090945016467853,1.123
0.019169736727662187,1.124
0.019250121328249676,1.125
0.019331975022361614,1.126
0.019415167032375343,1.127
0.019499561885858278,1.128
0.01958502027811592,1.129
0.01967139778770503,1.13
0.019758541504432996,1.131
0.019846287053139004,1.132
0.019934459713652805,1.133
0.020022879988537336,1.134
0.020111369700682946,1.135
0.020199754522074894,1.136
0.02028786124270964,1.137
0.020375511257465277,1.138
0.020462515116576888,1.139
0.020548671444905617,1.14
0.02063376774165818,1.141
0.020717581466886417,1.142
0.020799886158579386,1.143
0.020880465373765412,1.144
0.0209591283735141,1.145
0.021035718095054525,1.146
0.021110105510718565,1.147
0.021182174401743973,1.148
0.021251813931867636,1.149
0.02131893163158431,1.15
0.021383476663207952,1.151
0.021445455672157467,1.152
0.021504934207515078,1.153
0.021562024973572673,1.154
0.021616867329517536,1.155
0.02166960575838509,1.156
0.021720377080822147,1.157
0.021769309305146527,1.158
0.021816524085598164,1.159
0.021862135116723712,1.16
0.021906243073730628,1.161
0.021948931424495534,1.162
0.02199026509007059,1.163
0.02203029145332644,1.164
0.022069044286720445,1.165
0.022106551314633134,1.166
0.022142843252063286,1.167
0.022177960769246306,1.168
0.02221195690460122,1.169
0.022244894089823133,1.17
0.022276836617178046,1.171
0.022307841362041905,1.172
0.022337951118837168,1.173
0.022367192791325693,1.174
0.022395577800483093,1.175
0.022423101362768146,1.176
0.022449741447990893,1.177
0.022475459972837123,1.178
0.022500205902504615,1.179
0.022523917654650616,1.18
0.022546523081158086,1.181
0.022567937050791874,1.182
0.022588058361776905,1.183
0.022606769084245762,1.184
0.02262393804917561,1.185
0.022639427015990646,1.186
0.022653097239768542,1.187
0.02266481533668637,1.188
0.022674457846779676,1.189
0.022681913750753558,1.19
0.022687084111974863,1.191
0.022689878145304872,1.192
0.0226902056658191,1.193
0.02268796860487999,1.194
0.02268305788010801,1.195
0.02267535918501165,1.196
0.022664763533627116,1.197
0.02265117650882792,1.198
0.02263452380597102,1.199
0.02261475276542877,1.2
0.022591829835389342,1.201
0.022565733934599444,1.202
0.02253644659695165,1.203
0.022503943209887318,1.204
0.02246819201106978,1.205
0.022429162313573107,1.206
0.022386835708243104,1.207
0.022341213603330242,1.208
0.022292318783556513,1.209
0.022240191341668995,1.21
0.022184880368188775,1.211
0.022126433654440683,1.212
0.02206488927207176,1.213
0.022000273702115776,1.214
0.021932607759385422,1.215
0.021861916765496665,1.216
0.021788240763224637,1.217
0.02171164202494247,1.218
0.021632207357464694,1.219
0.02155004306209392,1.22
0.021465263762281535,1.221
0.021377982890818294,1.222
0.021288313746985497,1.223
0.021196380151747605,1.224
0.02110232724748564,1.225
0.02100632551864893,1.226
0.020908567202689316,1.227
0.02080925718695801,1.228
0.020708601530686602,1.229
0.020606797886495026,1.23
0.02050403192245676,1.231
0.020400479841286786,1.232
0.020296312864777045,1.233
0.020191700224300384,1.234
0.020086810041770365,1.235
0.01998180855902688,1.236
0.01987685815001157,1.237
0.01977211449394906,1.238
0.01966772325584712,1.239
0.01956381670528719,1.24
0.019460510995215494,1.241
0.019357904834817977,1.242
0.019256079338937818,1.243
0.019155098070745842,1.244
0.019055007114004274,1.245
0.01895583576106831,1.246
0.01885759761372368,1.247
0.018760291115424592,1.248
0.01866389912576753,1.249
0.018568388492286637,1.25
0.018473710867392138,1.251
0.0183798046518709,1.252
0.018286596903512677,1.253
0.018194004466435373,1.254
0.018101934330367865,1.255
0.018010283600412895,1.256
0.01791893961421036,1.257
0.01782778074097708,1.258
0.017736678156379554,1.259
0.01764549843142252,1.26
0.017554106266113707,1.261
0.017462366338937434,1.262
0.01737014315093602,1.263
0.017277298110659988,1.264
0.017183685363585534,1.265
0.017089151401305583,1.266
0.01699354217846849,1.267
0.016896715198493884,1.268
0.016798551321146243,1.269
0.016698962908792615,1.27
0.016597896605241157,1.271
0.016495330146345646,1.272
0.016391263840764978,1.273
0.016285708665751082,1.274
0.016178675416698585,1.275
0.01607017120434349,1.276
0.01596020529909432,1.277
0.01584879921028645,1.278
0.015735995143666148,1.279
0.015621860658401213,1.28
0.015506489345137552,1.281
0.015389997995859965,1.282
0.015272521288789807,1.283
0.01515420524979377,1.284
0.015035200637101278,1.285
0.014915657045301735,1.286
0.014795718091320569,1.287
0.014675517782127355,1.288
0.014555178341444255,1.289
0.01443480992069651,1.29
0.014314511976976085,1.291
0.014194375320019069,1.292
0.014074483923498584,1.293
0.01395491612554876,1.294
0.01383574518810064,1.295
0.013717039440686871,1.296
0.013598862438282087,1.297
0.013481273579024724,1.298
0.013364329426456496,1.299
0.013248085659910586,1.3
0.013132599292667276,1.301
0.013017930661808475,1.302
0.012904144725388455,1.303
0.01279131136059024,1.304
0.012679504579838026,1.305
0.012568800791812808,1.306
0.012459276346837212,1.307
0.012351004598183103,1.308
0.012244052785181111,1.309
0.012138479496647652,1.31
0.012034333653374597,1.311
0.011931654810358466,1.312
0.011830473365651645,1.313
0.011730809975786863,1.314
0.011632674891481776,1.315
0.01153606814340227,1.316
0.011440981507119119,1.317
0.011347403182207868,1.318
0.011255324792929294,1.319
0.011164748762090332,1.32
0.01107569386989237,1.321
0.010988197462809546,1.322
0.010902313798017444,1.323
0.01081810911662612,1.324
0.010735654832632727,1.325
0.010655020800396889,1.326
0.010576270913414253,1.327
0.010499462029071307,1.328
0.010424644910861472,1.329
0.01035186542307265,1.33
0.010281165601551163,1.331
0.010212585025090393,1.332
0.010146162656534355,1.333
0.010081938836437276,1.334
0.010019956817498153,1.335
0.009960263250966807,1.336
0.009902907354444766,1.337
0.009847938954845032,1.338
0.009795405992107277,1.339
0.00974535219694178,1.34
0.009697815477825746,1.341
0.009652827207264226,1.342
0.009610412276047097,1.343
0.009570589586049151,1.344
0.009533372574850802,1.345
0.009498769382718444,1.346
0.0094667823717271,1.347
0.009437407142712661,1.348
0.009410632014067489,1.349
0.009386438971232479,1.35
0.009364805931651544,1.351
0.009345709399365867,1.352
0.009329126841662667,1.353
0.00931503846166368,1.354
0.009303428122848904,1.355
0.009294283192761672,1.356
0.009287593057657358,1.357
0.009283346363421284,1.358
0.009281528387669248,1.359
0.00928212115528559,1.36
0.009285107181112414,1.361
0.009290474522309845,1.362
0.009298220234790454,1.363
0.009308350876203821,1.364
0.009320879955672608,1.365
0.009335823227673446,1.366
0.00935319415283614,1.367
0.009373002403788988,1.368
0.009395255951592373,1.369
0.009419964259914674,1.37
0.009447140145945287,1.371
0.009476799588571639,1.372
0.009508959655211077,1.373
0.009543635223202932,1.374
0.00958083596537811,1.375
0.009620565081508164,1.376
0.009662819552352387,1.377
0.009707590226537367,1.378
0.00975486112240696,1.379
0.009804609272229948,1.38
0.00985680609488637,1.381
0.009911419362791756,1.382
0.009968414309151971,1.383
0.010027753315073289,1.384
0.010089394316158368,1.385
0.01015328872652057,1.386
0.010219380389219207,1.387
0.010287606334457742,1.388
0.010357898360589203,1.389
0.010430184151732882,1.39
0.010504387669898824,1.391
0.010580429189917298,1.392
0.01065822545093853,1.393
0.010737690318266572,1.394
0.010818736127762405,1.395
0.010901275582168617,1.396
0.010985223731596928,1.397
0.011070499276778539,1.398
0.011157024328981807,1.399
0.011244721982806748,1.4
0.011333512430837573,1.401
0.011423310752562688,1.402
0.011514029133344572,1.403
0.01160558232141425,1.404
0.011697893080840493,1.405
0.011790895691936884,1.406
0.011884536876874333,1.407
0.0119787740768647,1.408
0.012073571487261911,1.409
0.012168894686387788,1.41
0.01226470518604205,1.411
0.012360956716139156,1.412
0.012457594306800974,1.413
0.012554555249131778,1.414
0.012651770246338965,1.415
0.012749164072083166,1.416
0.012846655912176572,1.417
0.012944159576587245,1.418
0.013041583499040325,1.419
0.013138830256052525,1.42
0.01323579537686182,1.421
0.013332365524374898,1.422
0.01342841662024494,1.423
0.013523812670994034,1.424
0.013618405379853366,1.425
0.013712033949501412,1.426
0.013804524860047733,1.427
0.013895691905643884,1.428
0.013985336607343073,1.429
0.014073249101541981,1.43
0.01415920994915662,1.431
0.014242993395228826,1.432
0.014324372216072266,1.433
0.014403123588396405,1.434
0.014479034655463054,1.435
0.014551905952293517,1.436
0.014621550865749176,1.437
0.01468779033902655,1.438
0.014750445723469898,1.439
0.014809336982177203,1.44
0.014864290241874339,1.441
0.01491514994825462,1.442
0.014961788642713686,1.443
0.015004111396734712,1.444
0.015042054737295429,1.445
0.015075580950857839,1.446
0.015104669323666236,1.447
0.015129306051276482,1.448
0.015149474970548436,1.449
0.01516515222873731,1.45
0.015176306838410824,1.451
0.01518290549244417,1.452
0.015184918653755335,1.453
0.015182326478729172,1.454
0.015175124152585664,1.455
0.015163326041776714,1.456
0.01514696781772753,1.457
0.015126105834904003,1.458
0.015100813598592293,1.459
0.015071175907140858,1.46
0.015037281789792897,1.461
0.014999217497707803,1.462
0.014957061182506007,1.463
0.014910881430852493,1.464
0.014860740535290845,1.465
0.014806700857398956,1.466
0.014748831997752215,1.467
0.014687217296937984,1.468
0.014621958526367808,1.469
0.01455317780601908,1.47
0.01448101627581115,1.471
0.014405629629043586,1.472
0.014327181120434974,1.473
0.014245833673121632,1.474
0.014161744442926914,1.475
0.014075064705462624,1.476
0.013985943958823134,1.477
0.013894534542602671,1.478
0.013800994344202308,1.479
0.013705487037093879,1.48
0.013608179974876233,1.481
0.013509240155060918,1.482
0.01340882941129654,1.483
0.013307101023206903,1.484
0.01320419909540414,1.485
0.013100259202734325,1.486
0.012995408221465261,1.487
0.012889764211296352,1.488
0.012783438628469814,1.489
0.012676540671299735,1.49
0.012569181253132803,1.491
0.012461474501589277,1.492
0.012353536067932562,1.493
0.012245479180336558,1.494
0.012137411516921255,1.495
0.012029435927216517,1.496
0.011921654532017023,1.497
0.011814173166356383,1.498
0.011707104018495552,1.499
0.011600565973024455,1.5
0.011494682865232406,1.501
0.01138958010298936,1.502
0.011285380465538425,1.503
0.011182200692198396,1.504
0.011080150749031698,1.505
0.0109793359404312,1.506
0.010879859984145092,1.507
0.010781827264507368,1.508
0.010685343652846336,1.509
0.010590515866087334,1.51
0.010497449553871874,1.511
0.010406246534802262,1.512
0.010317002087159141,1.513
0.010229803700272672,1.514
0.010144731856361493,1.515
0.010061861751013788,1.516
0.009981264668076271,1.517
0.00990300865914204,1.518
0.009827158632321977,1.519
0.009753775978425945,1.52
0.00968291783036258,1.521
0.009614635965917046,1.522
0.009548975515494065,1.523
0.009485974213504996,1.524
0.00942566297676052,1.525
0.009368067494661281,1.526
0.009313209640636826,1.527
0.009261107807101522,1.528
0.009211776008178255,1.529
0.009165222256121734,1.53
0.009121447124122198,1.531
0.009080443058145607,1.532
0.009042194303403979,1.533
0.00900667729550403,1.534
0.008973861457071705,1.535
0.008943709839368517,1.536
0.008916179061113019,1.537
0.008891219104602478,1.538
0.008868774211848484,1.539
0.008848785172526543,1.54
0.008831192008198057,1.541
0.008815935944757653,1.542
0.008802960093508085,1.543
0.008792208609534632,1.544
0.008783624422090457,1.545
0.008777146600738566,1.546
0.008772709497463015,1.547
0.00877024465823918,1.548
0.008769683828582888,1.549
0.00877096081433284,1.55
0.008774011355402145,1.551
0.008778771239702115,1.552
0.008785173425719252,1.553
0.008793145250758546,1.554
0.008802606743398765,1.555
0.008813470633955803,1.556
0.008825644004661832,1.557
0.008839030861139435,1.558
0.008853534461944734,1.559
0.008869058181700525,1.56
0.008885504301915795,1.561
0.008902771942887144,1.562
0.008920757023165818,1.563
0.008939355552215885,1.564
0.008958468114034161,1.565
0.00897800266136802,1.566
0.008997874365860425,1.567
0.009018002537418765,1.568
0.009038306014707984,1.569
0.00905870022211418,1.57
0.009079098103443003,1.571
0.009099413316925304,1.572
0.00911956252892133,1.573
0.009139465199783814,1.574
0.009159041051939019,1.575
0.009178207420711086,1.576
0.009196879809396805,1.577
0.009214976470346914,1.578
0.009232424175137437,1.579
0.009249161851873968,1.58
0.009265140389914652,1.581
0.009280318450315184,1.582
0.00929465691991415,1.583
0.00930811756021732,1.584
0.00932066855391353,1.585
0.009332292940004124,1.586
0.009342994304966329,1.587
0.009352797228540757,1.588
0.009361742410636033,1.589
0.009369878515004594,1.59
0.009377255566129972,1.591
0.009383924201713049,1.592
0.009389939635801123,1.593
0.00939536551701731,1.594
0.00940027468921151,1.595
0.009404746770882376,1.596
0.009408863585361568,1.597
0.009412704216088148,1.598
0.009416342241289503,1.599
0.00941984616940172,1.6
0.009423281090617497,1.601
0.009426709278834629,1.602
0.009430189351767804,1.603
0.009433774581685221,1.604
0.009437511119963302,1.605
0.009441436875440573,1.606
0.009445581210393237,1.607
0.009449964920549446,1.608
0.009454600060890382,1.609
0.009459489721824942,1.61
0.009464628079950183,1.611
0.009470000998771582,1.612
0.009475587347403787,1.613
0.009481361043902842,1.614
0.009487293602803384,1.615
0.009493356687558607,1.616
0.009499523910933227,1.617
0.009505771021396776,1.618
0.009512073966925586,1.619
0.00951840602935123,1.62
0.009524737345868286,1.621
0.009531038701704587,1.622
0.009537287261090169,1.623
0.009543470709596099,1.624
0.009549588247338557,1.625
0.009555648451527909,1.626
0.009561664730967008,1.627
0.00956764995490756,1.628
0.009573612926641852,1.629
0.009579558533764453,1.63
0.009585490338705422,1.631
0.009591412927591973,1.632
0.009597332613112793,1.633
0.009603256477125765,1.634
0.009609190280011694,1.635
0.009615135972558702,1.636
0.009621089575036438,1.637
0.009627040018176254,1.638
0.00963296919316159,1.639
0.009638853003128922,1.64
0.009644662783832313,1.641
0.00965036623800132,1.642
0.009655927120584495,1.643
0.009661303818322541,1.644
0.00966644859520205,1.645
0.009671309199851482,1.646
0.009675832129521928,1.647
0.009679965501321164,1.648
0.009683660270153981,1.649
0.009686869454778648,1.65
0.009689545527369548,1.651
0.009691637256891721,1.652
0.009693088769585441,1.653
0.009693842453122877,1.654
0.00969384399606072,1.655
0.00969304674876344,1.656
0.009691413782800598,1.657
0.009688916872375698,1.658
0.009685532429284474,1.659
0.009681236693408144,1.66
0.009676004536016925,1.661
0.009669813645955419,1.662
0.009662650787331768,1.663
0.009654516083765573,1.664
0.009645423969379233,1.665
0.009635401102668903,1.666
0.009624482015046006,1.667
0.009612703540561941,1.668
0.00960009977478237,1.669
0.009586700013325037,1.67
0.009572530517571988,1.671
0.009557618078345218,1.672
0.009541993042353154,1.673
0.00952569101751421,1.674
0.009508753201786464,1.675
0.009491225328390494,1.676
0.009473155273579855,1.677
0.009454589671941408,1.678
0.009435570836577858,1.679
0.009416135918636482,1.68
0.00939631869654634,1.681
0.00937615211273016,1.682
0.009355669655702186,1.683
0.009334905057132942,1.684
0.00931389049349393,1.685
0.009292654038603444,1.686
0.009271218090739117,1.687
0.009249600239174682,1.688
0.009227815976206507,1.689
0.009205881393553344,1.69
0.00918381458092166,1.691
0.009161635312232085,1.692
0.009139363087651538,1.693
0.00911701425761545,1.694
0.009094599932230132,1.695
0.009072126212247445,1.696
0.009049596359058377,1.697
0.009027013189847846,1.698
0.009004380467816124,1.699
0.008981702904059821,1.7
0.008958984798728952,1.701
0.008936227664985582,1.702
0.00891342777165808,1.703
0.0088905750656742,1.704
0.008867654104664988,1.705
0.008844646012493173,1.706
0.008821530218535196,1.707
0.008798285494112733,1.708
0.008774890109861044,1.709
0.008751320951671816,1.71
0.008727551699116229,1.711
0.008703550993327832,1.712
0.008679282192486783,1.713
0.008654705298276664,1.714
0.008629779841299071,1.715
0.008604467250540709,1.716
0.008578732053019521,1.717
0.00855254169859381,1.718
0.008525864951063835,1.719
0.008498669177589097,1.72
0.008470917849985535,1.721
0.008442570138573456,1.722
0.008413582941126456,1.723
0.008383913496055863,1.724
0.008353520571122387,1.725
0.008322363355859005,1.726
0.00829039885247429,1.727
0.008257580850744737,1.728
0.0082238628779337,1.729
0.008189203296086349,1.73
0.008153568796509018,1.731
0.008116934086818878,1.732
0.00807927816858317,1.733
0.008040581057606685,1.734
0.008000825459635149,1.735
0.007960003119673452,1.736
0.007918121417344798,1.737
0.007875206733701097,1.738
0.007831303693535076,1.739
0.007786470746005173,1.74
0.00774077348105894,1.741
0.007694278584283657,1.742
0.007647051820477208,1.743
0.007599160419156162,1.744
0.00755067663501039,1.745
0.007501679593333284,1.746
0.007452254878185059,1.747
0.007402492421803145,1.748
0.007352483437229468,1.749
0.007302317181564205,1.75
0.007252078358868926,1.751
0.007201845777965196,1.752
0.007151692062182924,1.753
0.007101683638847197,1.754
0.007051880947426096,1.755
0.007002339416804282,1.756
0.0069531111613534285,1.757
0.006904246759237919,1.758
0.0068557965503215045,1.759
0.006807811105172965,1.76
0.006760340720406704,1.761
0.006713434028652226,1.762
0.006667136222016267,1.763
0.006621487949165534,1.764
0.00657652569008667,1.765
0.006532283214904409,1.766
0.006488793177809415,1.767
0.006446088354698944,1.768
0.00640420244738072,1.769
0.006363170465919383,1.77
0.006323028727173463,1.771
0.006283814533368969,1.772
0.00624556559436358,1.773
0.00620831921760994,1.774
0.00617211122831763,1.775
0.006136974641949746,1.776
0.006102938539511922,1.777
0.006070027976728087,1.778
0.006038265155594525,1.779
0.0060076710379458565,1.78
0.005978266463068874,1.781
0.005950072412267998,1.782
0.005923109491178192,1.783
0.005897396935117308,1.784
0.005872951570848222,1.785
0.005849787123114039,1.786
0.0058279140437023915,1.787
0.005807339755052526,1.788
0.005788068972334746,1.789
0.005770103702903781,1.79
0.005753442714747923,1.791
0.005738080816783585,1.792
0.0057240087485039845,1.793
0.00571121397820484,1.794
0.005699681779770897,1.795
0.005689395918780061,1.796
0.005680338895474092,1.797
0.005672492060246169,1.798
0.00566583593950838,1.799
0.00566035093961975,1.8
0.005656018304696661,1.801
0.005652820903361247,1.802
0.005650743237269242,1.803
0.005649770235321102,1.804
0.005649885509619188,1.805
0.005651071156061932,1.806
0.005653310273947249,1.807
0.005656590645471955,1.808
0.005660907203424028,1.809
0.005666262177077393,1.81
0.005672662940939132,1.811
0.005680118483736484,1.812
0.005688636344144586,1.813
0.005698221590558642,1.814
0.005708877509804841,1.815
0.005720606414489978,1.816
0.00573340973595878,1.817
0.005747287636692623,1.818
0.005762238530343265,1.819
0.005778258595879383,1.82
0.005795341094932628,1.821
0.0058134755173073725,1.822
0.005832647371398285,1.823
0.005852839388957448,1.824
0.005874033563851414,1.825
0.005896212637449152,1.826
0.005919360038370834,1.827
0.005943458358538271,1.828
0.00596848797816235,1.829
0.005994427600773652,1.83
0.006021256334397694,1.831
0.0060489554227739035,1.832
0.006077508413812155,1.833
0.006106899736863966,1.834
0.006137112414093233,1.835
0.0061681262691246274,1.836
0.006199917782578466,1.837
0.0062324613248500695,1.838
0.0062657305365823295,1.839
0.006299699019373921,1.84
0.006334340145163268,1.841
0.006369626017174916,1.842
0.006405525925550342,1.843
0.006442005358556336,1.844
0.006479026705505816,1.845
0.0065165515532279485,1.846
0.006554543426889701,1.847
0.006592969942176889,1.848
0.006631803781424209,1.849
0.006671022156149726,1.85
0.006710604660043707,1.851
0.006750530214777397,1.852
0.0067907751381142654,1.853
0.006831314002861957,1.854
0.006872122454761058,1.855
0.00691317991993108,1.856
0.006954471141857276,1.857
0.006995986539641072,1.858
0.007037721695611081,1.859
0.007079676281805141,1.86
0.00712185261530635,1.861
0.007164253908643603,1.862
0.0072068822375693274,1.863
0.007249736415273492,1.864
0.007292810393258076,1.865
0.007336092885014005,1.866
0.007379568108979365,1.867
0.007423216841768247,1.868
0.007467017271825263,1.869
0.007510945752435125,1.87
0.007554977728233572,1.871
0.00759908895500073,1.872
0.007643256873743619,1.873
0.007687461768701645,1.874
0.007731687246294826,1.875
0.007775919656887991,1.876
0.007820146309790223,1.877
0.007864352822630519,1.878
0.007908520814602665,1.879
0.007952627388324897,1.88
0.007996646396582078,1.881
0.008040549948958694,1.882
0.008084308847856138,1.883
0.008127891688413281,1.884
0.00817126308979928,1.885
0.008214382131155563,1.886
0.008257201934058348,1.887
0.008299670043075155,1.888
0.008341728473323557,1.889
0.008383313336263201,1.89
0.008424355299444386,1.891
0.008464781618504663,1.892
0.008504518846965792,1.893
0.008543494811655597,1.894
0.008581639045442797,1.895
0.008618881473204441,1.896
0.008655149840643746,1.897
0.008690367453283067,1.898
0.008724453008043595,1.899
0.00875732259747088,1.9
0.00878889228234358,1.901
0.008819079838066558,1.902
0.008847805186935048,1.903
0.008874989376207704,1.904
0.008900552211245074,1.905
0.008924409675300954,1.906
0.008946473331038875,1.907
0.008966652626564129,1.908
0.00898485836452115,1.909
0.009001005157229723,1.91
0.009015012154779683,1.911
0.009026802350061439,1.912
0.00903630110026117,1.913
0.00904343448846508,1.914
0.009048127810000766,1.915
0.009050304003000385,1.916
0.009049881871295249,1.917
0.00904677506503911,1.918
0.009040893649004763,1.919
0.009032148860472333,1.92
0.009020459745536901,1.921
0.009005759921316112,1.922
0.008988003111665376,1.923
0.008967166308709293,1.924
0.008943249622910073,1.925
0.008916272335324455,1.926
0.008886265579833979,1.927
0.008853264641571278,1.928
0.008817306493868138,1.929
0.008778435090997657,1.93
0.008736710186282774,1.931
0.008692214119004865,1.932
0.008645054318512507,1.933
0.008595361443688238,1.934
0.00854328396645829,1.935
0.00848898064485844,1.936
0.008432612906187771,1.937
0.00837433971402678,1.938
0.008314316381041563,1.939
0.008252695936874036,1.94
0.008189630469585065,1.941
0.00812527125706126,1.942
0.0080597678861873,1.943
0.007993266885402006,1.944
0.007925910346604795,1.945
0.007857834911776674,1.946
0.007789171363054873,1.947
0.007720044894220372,1.948
0.007650575974464756,1.949
0.007580881570735896,1.95
0.007511076404852395,1.951
0.007441273904592196,1.952
0.007371586562241698,1.953
0.007302125526780186,1.954
0.00723299941328196,1.955
0.00716431270889786,1.956
0.007096164738468412,1.957
0.00702864989737604,1.958
0.00696185864363187,1.959
0.006895878216969995,1.96
0.006830792633760979,1.961
0.006766682083106103,1.962
0.0067036220281362765,1.963
0.006641682361279547,1.964
0.006580926952248471,1.965
0.006521413674935657,1.966
0.006463194635852355,1.967
0.006406316281276654,1.968
0.006350819340510165,1.969
0.006296738922728715,1.97
0.006244105148862872,1.971
0.0061929442792940095,1.972
0.006143279888955491,1.973
0.0060951335849473145,1.974
0.006048524886304974,1.975
0.006003470332238879,1.976
0.005959982740899478,1.977
0.005918071705546872,1.978
0.005877745228603131,1.979
0.005839011377032234,1.98
0.005801879078195668,1.981
0.005766357815161502,1.982
0.005732456341366088,1.983
0.005700180934886151,1.984
0.005669534243175836,1.985
0.005640515449086773,1.986
0.005613121221573363,1.987
0.005587346360608925,1.988
0.005563183631783869,1.989
0.0055406229133493565,1.99
0.005519650101646699,1.991
0.005500246317927354,1.992
0.005482387716980277,1.993
0.005466045985270433,1.994
0.005451189576972868,1.995
0.005437785416324009,1.996
0.00542580042190714,1.997
0.005415202250270201,1.998
0.00540595895906461,1.999
0.005398037662207545,2.0
0.005391402841126264,2.001
0.005386015531697561,2.002
0.005381834022658835,2.003
0.005378815375953645,2.004
0.005376916847478893,2.005
0.005376096898841056,2.006
0.005376315697999453,2.007
0.00537753492685666,2.008
0.0053797167526077935,2.009
0.005382822142548616,2.01
0.0053868093781642284,2.011
0.005391633847660343,2.012
0.005397249174657945,2.013
0.005403608638052455,2.014
0.005410665989535242,2.015
0.005418375476807063,2.016
0.005426691212759759,2.017
0.0054355660913466665,2.018
0.005444950478154192,2.019
0.005454791102832704,2.02
0.0054650308254478,2.021
0.00547560959000892,2.022
0.005486466140502117,2.023
0.00549753991475354,2.024
0.005508772795399147,2.025
0.005520110462581869,2.026
0.0055315030257066895,2.027
0.005542904602839777,2.028
0.005554271598043395,2.029
0.0055655601787080395,2.03
0.005576724939414403,2.031
0.005587720514126183,2.032
0.005598505306948566,2.033
0.005609045058528662,2.034
0.005619314747359803,2.035
0.005629298302647743,2.036
0.0056389861900969,2.037
0.005648371615153377,2.038
0.005657447000341369,2.039
0.005666202520655848,2.04
0.005674626724308349,2.041
0.005682707501990641,2.042
0.0056904321650020386,2.043
0.0056977868049842735,2.044
0.005704755613930191,2.045
0.005711320681753301,2.046
0.005717462477918575,2.047
0.0057231609038408725,2.048
0.005728396563148625,2.049
0.005733151761793839,2.05
0.00573741072407747,2.051
0.005741158610078779,2.052
0.0057443796225054265,2.053
0.005747055897638649,2.054
0.005749168922210858,2.055
0.0057507030560252454,2.056
0.0057516492367372385,2.057
0.005752007401343254,2.058
0.005751786959886105,2.059
0.005751005125398077,2.06
0.0057496834026006,2.061
0.005747843633083665,2.062
0.005745506142476991,2.063
0.0057426911811351245,2.064
0.005739421849406609,2.065
0.005735726235482014,2.066
0.005731638136043899,2.067
0.005727196629842028,2.068
0.0057224448969186836,2.069
0.0057174286565824465,2.07
0.005712194470094142,2.071
0.00570678799519331,2.072
0.005701252308131237,2.073
0.00569562679173504,2.074
0.005689947230981597,2.075
0.005684247052676036,2.076
0.005678558890948983,2.077
0.005672915710527681,2.078
0.005667351118466857,2.079
0.005661898744544729,2.08
0.005656590814315007,2.081
0.005651456562465788,2.082
0.005646521578092254,2.083
0.005641808472805761,2.084
0.0056373379470225846,2.085
0.005633129159202475,2.086
0.005629199107163838,2.087
0.005625561623481926,2.088
0.005622227210149939,2.089
0.005619204292607381,2.09
0.005616500991852697,2.091
0.005614126134591868,2.092
0.00561208891369443,2.093
0.005610397414732106,2.094
0.005609057145407342,2.095
0.0056080709239495884,2.096
0.005607440136879328,2.097
0.005607166041485864,2.098
0.005607250035124476,2.099
0.005607692731640458,2.1
0.005608492377434284,2.101
0.005609643700079335,2.102
0.005611138042735219,2.103
0.005612964491232058,2.104
0.0056151111404015176,2.105
0.005617566074523424,2.106
0.005620318018318064,2.107
0.005623356610153261,2.108
0.00562667216512297,2.109
0.0056302547889002285,2.11
0.00563409292131563,2.111
0.005638172014185386,2.112
0.005642474454239958,2.113
0.005646981021735698,2.114
0.005651672955933832,2.115
0.005656533613445136,2.116
0.005661549323839746,2.117
0.005666709401359986,2.118
0.005672005406189531,2.119
0.005677429854731112,2.12
0.005682974652576799,2.121
0.0056886295647553846,2.122
0.005694381026074888,2.123
0.005700211499368826,2.124
0.005706099403468357,2.125
0.0057120194016994415,2.126
0.005717942659324021,2.127
0.005723836704700854,2.128
0.005729665050891114,2.129
0.005735387456291104,2.13
0.005740961465771224,2.131
0.005746344797817172,2.132
0.005751497735045988,2.133
0.005756385028465524,2.134
0.005760977075588873,2.135
0.0057652502030132655,2.136
0.005769185974798406,2.137
0.005772769580351978,2.138
0.0057759874961535685,2.139
0.005778824923874353,2.14
0.005781264051311839,2.141
0.005783284038178401,2.142
0.00578486237176287,2.143
0.005785976399121329,2.144
0.00578660425652547,2.145
0.005786725074253851,2.146
0.005786318623902304,2.147
0.005785364692239601,2.148
0.00578384251144922,2.149
0.005781730524987691,2.15
0.005779006623348459,2.151
0.005775648779182779,2.152
0.005771635805998836,2.153
0.0057669478236270074,2.154
0.0057615659842924945,2.155
0.00575547118499606,2.156
0.005748642354858615,2.157
0.005741056128871588,2.158
0.005732689112138099,2.159
0.005723521653704274,2.16
0.0057135412011560084,2.161
0.005702744102874511,2.162
0.005691135368732142,2.163
0.00567872630900741,2.164
0.005665530788766966,2.165
0.00565156207966967,2.166
0.005636832319476994,2.167
0.005621354368968815,2.168
0.005605144048032806,2.169
0.005588221384138892,2.17
0.005570610832276377,2.171
0.0055523408655321,2.172
0.005533443262782948,2.173
0.0055139522638648335,2.174
0.0054939036131575365,2.175
0.0054733334250902516,2.176
0.00545227678975635,2.177
0.005430766274642888,2.178
0.0054088310542951415,2.179
0.0053864974875605185,2.18
0.005363791075585546,2.181
0.0053407390001378695,2.182
0.005317372524819829,2.183
0.005293728783832426,2.184
0.005269851578150422,2.185
0.005245790964479571,2.186
0.00522160169838628,2.187
0.005197340856795041,2.188
0.005173065176771342,2.189
0.005148828923063541,2.19
0.005124683123436654,2.191
0.0051006762141741525,2.192
0.005076855241632623,2.193
0.00505326687496262,2.194
0.005029958053802793,2.195
0.0050069763007883,2.196
0.0049843697243509705,2.197
0.004962186743233057,2.198
0.004940475577899343,2.199
0.004919283571800691,2.2
0.004898656417656287,2.201
0.004878637364069545,2.202
0.004859266471038575,2.203
0.004840579978194081,2.204
0.004822609847021789,2.205
0.004805383529462249,2.206
0.004788923990320944,2.207
0.004773249961236522,2.208
0.004758376329339586,2.209
0.004744314490205568,2.21
0.004731072474398913,2.211
0.004718654763327208,2.212
0.004707061987339354,2.213
0.004696290901177875,2.214
0.004686334792605428,2.215
0.0046771840851628265,2.216
0.004668826894961464,2.217
0.004661249527283833,2.218
0.00465443697324306,2.219
0.004648373412667446,2.22
0.004643042662324533,2.221
0.004638428467341171,2.222
0.004634514534820905,2.223
0.00463128425280116,2.224
0.0046287201123895935,2.225
0.004626802921959164,2.226
0.0046255109223221035,2.227
0.004624818988046257,2.228
0.004624698319197498,2.229
0.004625116983966583,2.23
0.004626041223039854,2.231
0.004627437152829999,2.232
0.004629272526346139,2.233
0.004631518181018761,2.234
0.0046341487530254,2.235
0.004637142328137823,2.236
0.004640478930103276,2.237
0.004644138329999565,2.238
0.004648098525238809,2.239
0.004652336011915344,2.24
0.004656827336196787,2.241
0.004661550519294996,2.242
0.004666485583678509,2.243
0.004671614163126208,2.244
0.004676918445378489,2.245
0.004682379749787851,2.246
0.004687977073088416,2.247
0.004693686003799426,2.248
0.004699478285448081,2.249
0.004705321866619131,2.25
0.004711181003665073,2.251
0.004717016209421519,2.252
0.004722784160208885,2.253
0.004728437768328435,2.254
0.00473392659604909,2.255
0.0047391977098847436,2.256
0.004744196946596146,2.257
0.004748870400322792,2.258
0.004753165787830409,2.259
0.004757033265558869,2.26
0.0047604253009924866,2.261
0.004763295369397359,2.262
0.004765596054193972,2.263
0.004767278416528285,2.264
0.004768293975521497,2.265
0.004768598235436825,2.266
0.004768153732640593,2.267
0.004766931416050927,2.268
0.004764909876765986,2.269
0.004762072513665949,2.27
0.004758404110911795,2.271
0.0047538895921069805,2.272
0.004748516101819128,2.273
0.004742276272341687,2.274
0.004735170007365889,2.275
0.0047272038467190145,2.276
0.004718388280946854,2.277
0.004708734673773978,2.278
0.004698254318399339,2.279
0.0046869603577478726,2.28
0.004674870432059697,2.281
0.004662007729054494,2.282
0.004648399816420184,2.283
0.004634075983073771,2.284
0.0046190648460365975,2.285
0.004603393868593041,2.286
0.004587090479352936,2.287
0.004570182989573186,2.288
0.004552700109565478,2.289
0.00453466943139136,2.29
0.004516116462138379,2.291
0.00449706531055655,2.292
0.004477540208929634,2.293
0.004457566313323093,2.294
0.004437169088770185,2.295
0.004416372831462155,2.296
0.004395200030578811,2.297
0.00437367273777236,2.298
0.004351815035852182,2.299
0.004329655024877836,2.3
0.004307225653669461,2.301
0.0042845643712331695,2.302
0.004261711790439607,2.303
0.004238709708907446,2.304
0.004215599016490321,2.305
0.00419241825661479,2.306
0.004169203370348778,2.307
0.004145988315415031,2.308
0.004122805819427563,2.309
0.0040996878804440955,2.31
0.004076666022406002,2.311
0.00405377139635342,2.312
0.004031034791883802,2.313
0.004008486595325546,2.314
0.003986156700154678,2.315
0.003964074347703869,2.316
0.00394226787453054,2.317
0.003920764381325509,2.318
0.0038995893957596566,2.319
0.0038787666326301176,2.32
0.003858317929064289,2.321
0.0038382633587030215,2.322
0.0038186214437435865,2.323
0.0037994093308585,2.324
0.003780642803727301,2.325
0.003762336062912158,2.326
0.0037445012706059334,2.327
0.003727147993121266,2.328
0.0037102829144603313,2.329
0.00369391017188972,2.33
0.0036780322376483944,2.331
0.0036626509961299905,2.332
0.0036477687544888633,2.333
0.003633389038079485,2.334
0.003619517056443066,2.335
0.003606159772409109,2.336
0.003593325581949824,2.337
0.0035810236892619474,2.338
0.0035692633100683265,2.339
0.003558052837930649,2.34
0.0035473990689160687,2.341
0.003537306525621061,2.342
0.0035277769272447873,2.343
0.003518808933990945,2.344
0.0035103982509723007,2.345
0.0035025379733193583,2.346
0.0034952189799774365,2.347
0.0034884302822136663,2.348
0.0034821593131598057,2.349
0.0034763921810195293,2.35
0.0034711139408410943,2.351
0.0034663089521925574,2.352
0.003461961360068116,2.353
0.003458055663334482,2.354
0.003454577246520944,2.355
0.003451512685299861,2.356
0.003448849623346675,2.357
0.003446576074207686,2.358
0.003444679292695692,2.359
0.003443144927637505,2.36
0.0034419572149678446,2.361
0.003441100063650759,2.362
0.0034405581953558346,2.363
0.0034403177636903107,2.364
0.003440366372611916,2.365
0.0034406926133436094,2.366
0.0034412852628104085,2.367
0.0034421322510061365,2.368
0.0034432196425542567,2.369
0.003444531235050534,2.37
0.003446049197500073,2.371
0.003447755382361076,2.372
0.003449632646320099,2.373
0.0034516657921039237,2.374
0.0034538419129049886,2.375
0.0034561499854913725,2.376
0.0034585796942647826,2.377
0.003461119901066709,2.378
0.003463757801845755,2.379
0.0034664794468849376,2.38
0.0034692709856376947,2.381
0.003472119585024507,2.382
0.0034750136091237934,2.383
0.003477942126989109,2.384
0.0034808939661373603,2.385
0.003483856591239371,2.386
0.0034868151390698905,2.387
0.003489751952482372,2.388
0.003492646673789207,2.389
0.003495476546293251,2.39
0.0034982165243756325,2.391
0.003500839118371891,2.392
0.0035033143792095795,2.393
0.0035056106013587177,2.394
0.0035076958073943123,2.395
0.003509539461928867,2.396
0.0035111137441915198,2.397
0.0035123938779469594,2.398
0.0035133572427973837,2.399
0.0035139816617335193,2.4
0.0035142443973131977,2.401
0.0035141232444666527,2.402
0.0035135992115809434,2.403
0.0035126591804157657,2.404
0.003511297483436974,2.405
0.003509516024917787,2.406
0.003507322908739531,2.407
0.0035047298356544153,2.408
0.0035017492009925826,2.409
0.003498392567438933,2.41
0.003494671278812213,2.411
0.0034905979718090696,2.412
0.0034861875141918475,2.413
0.0034814571047057344,2.414
0.0034764258652878314,2.415
0.0034711142332267027,2.416
0.0034655433407706133,2.417
0.0034597344349597825,2.418
0.0034537083004425573,2.419
0.003447484623871044,2.42
0.003441081279730971,2.421
0.0034345136706651776,2.422
0.0034277944149297477,2.423
0.003420933478143312,2.424
0.0034139384453551456,2.425
0.0034068146092354344,2.426
0.0033995648240785566,2.427
0.0033921892418702806,2.428
0.0033846851103548573,2.429
0.003377046850404552,2.43
0.0033692666099157456,2.431
0.003361335388144163,2.432
0.0033532446443125664,2.433
0.003344988098886856,2.434
0.0033365632848150954,2.435
0.0033279723784087624,2.436
0.0033192219613411935,2.437
0.0033103216102366036,2.438
0.0033012817950077277,2.439
0.003292112420900659,2.44
0.0032828231065078206,2.441
0.003273424671193134,2.442
0.003263930467212138,2.443
0.0032543568466709364,2.444
0.0032447227878783028,2.445
0.003235048945745663,2.446
0.003225356423973819,2.447
0.003215665532798104,2.448
0.0032059947354620985,2.449
0.003196359919450372,2.45
0.0031867740578288345,2.451
0.003177247272383815,2.452
0.003167787277306397,2.453
0.0031584001392112805,2.454
0.0031490912346931713,2.455
0.0031398662361398332,2.456
0.0031307319193171882,2.457
0.0031216965913211047,2.458
0.003112770007311723,2.459
0.0031039627582638047,2.46
0.0030952852217523176,2.461
0.0030867464196654535,2.462
0.003078353486452781,2.463
0.003070112157909466,2.464
0.0030620278163534065,2.465
0.0030541064006212133,2.466
0.0030463549186937862,2.467
0.003038781581408481,2.468
0.0030313956600424167,2.469
0.003024207214662664,2.47
0.0030172268342354585,2.471
0.003010465484119884,2.472
0.0030039344876737466,2.473
0.002997645594184183,2.474
0.002991611028096743,2.475
0.002985843398757365,2.476
0.002980355386459417,2.477
0.0029751591922595557,2.478
0.0029702658089782253,2.479
0.002965684295408633,2.48
0.002961421388162593,2.481
0.002957481609690631,2.482
0.0029538676041989,2.483
0.002950580374216793,2.484
0.0029476193679756485,2.485
0.002944982528196097,2.486
0.002942666405647237,2.487
0.0029406663673817316,2.488
0.0029389768419388583,2.489
0.002937591497722829,2.49
0.002936503265984411,2.491
0.002935704173602953,2.492
0.0029351850040199618,2.493
0.002934934834539004,2.494
0.002934940563189954,2.495
0.0029351866452561773,2.496
0.002935655178307178,2.497
0.0029363262079901524,2.498
0.0029371780459135502,2.499
0.0029381875072824995,2.5
0.002939330020116028,2.501
0.0029405795118500775,2.502
0.002941908092632643,2.503
0.0029432859512220325,2.504
0.0029446819885633655,2.505
0.0029460651691210074,2.506
0.002947406092077611,2.507
0.002948678319240385,2.508
0.002949859174623368,2.509
0.0029509298497625057,2.51
0.00295187476378348,2.511
0.002952680244701099,2.512
0.002953332870909744,2.513
0.0029538182897243374,2.514
0.0029541212505905866,2.515
0.0029542266015802213,2.516
0.0029541203288458847,2.517
0.0029537900646813544,2.518
0.0029532250544140213,2.519
0.002952415821523794,2.52
0.002951353814156258,2.521
0.0029500312499068154,2.522
0.0029484412436416433,2.523
0.002946578171901215,2.524
0.002944438145789158,2.525
0.0029420194417978983,2.526
0.0029393227557037815,2.527
0.0029363511746408155,2.528
0.002933109797491987,2.529
0.002929604972538264,2.53
0.002925843177401678,2.531
0.002921829855472835,2.532
0.002917568971323127,2.533
0.0029130637477454507,2.534
0.002908318073110818,2.535
0.0029033377906155303,2.536
0.002898131527493846,2.537
0.0028927110195285503,2.538
0.0028870909802079145,2.539
0.0028812886201129507,2.54
0.002875322928045613,2.541
0.002869213799333726,2.542
0.002862981070607033,2.543
0.0028566435421942026,2.544
0.0028502181980551706,2.545
0.002843719913058104,2.546
0.0028371616761164874,2.547
0.0028305550084658103,2.548
0.0028239102969283424,2.549
0.0028172370014651863,2.55
0.0028105437819166733,2.551
0.0028038385612189232,2.552
0.002797128495489165,2.553
0.002790419780320647,2.554
0.002783717244354882,2.555
0.002777023877819014,2.556
0.0027703406866471333,2.557
0.0027636670790467566,2.558
0.002757001510239879,2.559
0.0027503420192406657,2.56
0.0027436865380823117,2.561
0.0027370329897900172,2.562
0.0027303791996578022,2.563
0.0027237226288476636,2.564
0.0027170599223130297,2.565
0.002710386333886367,2.566
0.002703695314687279,2.567
0.0026969786338155014,2.568
0.002690227067727652,2.569
0.0026834313442688044,2.57
0.0026765830486737605,2.571
0.0026696753503249776,2.572
0.002662703455972841,2.573
0.0026556647076605823,2.574
0.0026485582888312056,2.575
0.0026413845705563215,2.576
0.002634144190017262,2.577
0.0026268370396406145,2.578
0.0026194615225521175,2.579
0.002612014452374704,2.58
0.0026044915786043966,2.581
0.002596888327523036,2.582
0.0025892004159765586,2.583
0.002581424243284177,2.584
0.002573557084080447,2.585
0.0025655971488258086,2.586
0.002557543605442692,2.587
0.00254939664121082,2.588
0.0025411575751812764,2.589
0.0025328289249570124,2.59
0.0025244142406577667,2.591
0.002515917504917202,2.592
0.002507342217303912,2.593
0.002498690929290797,2.594
0.0024899659313829515,2.595
0.0024811707620566704,2.596
0.002472311664745547,2.597
0.002463398474917827,2.598
0.0024544447974310956,2.599
0.0024454674938718785,2.6
0.0024364856077490897,2.601
0.002427518936913774,2.602
0.002418586654798339,2.603
0.0024097066056820234,2.604
0.002400895509707523,2.605
0.0023921695219892582,2.606
0.0023835445025386206,2.607
0.0023750358396260173,2.608
0.0023666579561558553,2.609
0.00235842372575004,2.61
0.0023503440442711842,2.611
0.0023424276753886337,2.612
0.002334681385136146,2.613
0.002327110383000892,2.614
0.002319719013861743,2.615
0.0023125115344867055,2.616
0.0023054927938305696,2.617
0.0022986686603695345,2.618
0.0022920460694062527,2.619
0.002285632624208856,2.62
0.002279435816151343,2.621
0.0022734622151385294,2.622
0.002267717184410867,2.623
0.002262205280446439,2.624
0.002256930860550286,2.625
0.0022518983807489723,2.626
0.0022471122342980123,2.627
0.00224257621694618,2.628
0.0022382928993916786,2.629
0.0022342633189305246,2.63
0.002230487101629423,2.631
0.0022269626537684954,2.632
0.0022236870866836345,2.633
0.002220655972069487,2.634
0.0022178632919105626,2.635
0.00221530174153263,2.636
0.002212963135779189,2.637
0.002210838586267619,2.638
0.0022089183174975376,2.639
0.0022071912594027916,2.64
0.002205644860781163,2.641
0.002204265464408549,2.642
0.002203039035069523,2.643
0.0022019517935943445,2.644
0.0022009904895739126,2.645
0.002200142199129078,2.646
0.0021993937157936696,2.647
0.0021987310041891956,2.648
0.0021981393737524895,2.649
0.0021976044922960907,2.65
0.0021971136753393045,2.651
0.0021966568386458407,2.652
0.002196226810160853,2.653
0.002195818903513701,2.654
0.0021954298076881534,2.655
0.0021950562602370766,2.656
0.002194694479911721,2.657
0.0021943408689285935,2.658
0.002193993290923545,2.659
0.0021936519837893057,2.66
0.0021933198082496556,2.661
0.002193001926146595,2.662
0.0021927050739964033,2.663
