VaMe,time
0.00011980766323294949,0.001
0.0002568062674816735,0.002
0.000393689881419554,0.003
0.0005303432972843049,0.004
0.000666654945017987,0.005
0.0008025165201043345,0.006
0.0009378221069863285,0.007
0.0010724685143038537,0.008
0.0012063569568962916,0.009
0.0013393945755124266,0.01
0.0014714946218551473,0.011
0.0016025752513350322,0.012
0.0017325574615009458,0.013
0.0018613630111068706,0.014
0.001988913165919692,0.015
0.002115128327211806,0.016
0.0022399278660442733,0.017
0.0023632300353676563,0.018
0.0024849523734056115,0.019
0.0026050123600018923,0.02
0.002723327530962221,0.021
0.0028398149803851476,0.022
0.002954391580298404,0.023
0.0030669762348260695,0.024
0.0031774937320228867,0.025
0.0032858787059747083,0.026
0.003392078524352131,0.027
0.003496054334944741,0.028
0.0035977798433183823,0.029
0.0036972378385971365,0.03
0.003794415625145372,0.031
0.003889302290376465,0.032
0.00398189005328125,0.033
0.00407217837855777,0.034
0.004160177919224091,0.035
0.004245912733348131,0.036
0.0043294205295987065,0.037
0.004410751151264243,0.038
0.0044899637379756455,0.039
0.0045671231109034325,0.04
0.004642296021370101,0.041
0.004715548229758678,0.042
0.004786943467779021,0.043
0.004856544317084977,0.044
0.004924413861216406,0.045
0.00499061712650934,0.046
0.005055222074455117,0.047
0.005118300131286537,0.048
0.005179926171922464,0.049
0.005240177867404614,0.05
0.0052991343823595985,0.051
0.005356874538820732,0.052
0.005413474864880716,0.053
0.0054690083610431,0.054
0.0055235445175320684,0.055
0.005577150088804651,0.056
0.0056298897672225215,0.057
0.00568182641816881,0.058
0.005733020961920027,0.059
0.005783532053893376,0.06
0.005833415648795847,0.061
0.005882724429351892,0.062
0.005931507103913126,0.063
0.0059798079210113585,0.064
0.006027667003211306,0.065
0.006075121638950472,0.066
0.00612220793707397,0.067
0.006168962048781641,0.068
0.006215420359601634,0.069
0.0062616184114973415,0.07
0.006307589303990416,0.071
0.006353363413049836,0.072
0.00639897037665994,0.073
0.006444442019206426,0.074
0.006489814288956846,0.075
0.006535127323813665,0.076
0.006580423601820984,0.077
0.006625744987258152,0.078
0.006671130631893178,0.079
0.0067166172931660975,0.08
0.006762241349579109,0.081
0.006808040602103898,0.082
0.006854054810190557,0.083
0.00690032489833516,0.084
0.006946891140153538,0.085
0.006993790917014949,0.086
0.007041057030330001,0.087
0.007088717329869395,0.088
0.007136795365276032,0.089
0.007185311119691581,0.09
0.007234281251406,0.091
0.007283718757627435,0.092
0.00733363214735874,0.093
0.00738402452880755,0.094
0.00743489339297822,0.095
0.00748623142210335,0.096
0.007538027642642519,0.097
0.007590267997334506,0.098
0.007642934893462908,0.099
0.0076960060245856495,0.1
0.007749453684261866,0.101
0.007803245597745418,0.102
0.007857346764194405,0.103
0.00791172106716843,0.104
0.007966331971489068,0.105
0.008021142196645932,0.106
0.008076112538947779,0.107
0.008131200219279065,0.108
0.008186357207909901,0.109
0.008241528900687307,0.11
0.008296653405981047,0.111
0.008351661615682269,0.112
0.008406478143026207,0.113
0.00846102313761381,0.114
0.008515214899365213,0.115
0.008568972994229013,0.116
0.00862222127766735,0.117
0.008674890043411789,0.118
0.008726916562724068,0.119
0.00877824358255138,0.12
0.008828815852524112,0.121
0.008878575985463199,0.122
0.008927462503193328,0.123
0.00897541171575366,0.124
0.009022361672244556,0.125
0.009068255647457479,0.126
0.009113044303130277,0.127
0.009156686555761535,0.128
0.009199149237348126,0.129
0.009240405645001509,0.13
0.009280433094114708,0.131
0.00931920963441017,0.132
0.009356710480800811,0.133
0.009392905588241207,0.134
0.009427759720040495,0.135
0.009461234542071118,0.136
0.009493290929547522,0.137
0.009523890122951495,0.138
0.009552993216570677,0.139
0.00958055907578132,0.14
0.00960654194408709,0.141
0.009630890838629166,0.142
0.009653551123654588,0.143
0.009674465857283142,0.144
0.009693575179636312,0.145
0.00971081617220557,0.146
0.009726127029844702,0.147
0.009739455320397484,0.148
0.009750766280023498,0.149
0.009760047366515737,0.15
0.009767307284527295,0.151
0.009772569460860662,0.152
0.009775862939083863,0.153
0.009777217409062091,0.154
0.009776666651544788,0.155
0.009774256684305016,0.156
0.009770052519699467,0.157
0.009764141127920768,0.158
0.009756630620882188,0.159
0.00974764623825256,0.16
0.009737324077152458,0.161
0.009725803909432595,0.162
0.00971322323045826,0.163
0.009699714804530031,0.164
0.009685407650066289,0.165
0.009670428839298122,0.166
0.00965490402912441,0.167
0.009638956660539566,0.168
0.00962270663886773,0.169
0.009606269281453791,0.17
0.009589755015806174,0.171
0.009573269854476553,0.172
0.009556916266847942,0.173
0.009540793888565078,0.174
0.009524999610656129,0.175
0.009509626877490171,0.176
0.009494764325489046,0.177
0.00948049414978717,0.178
0.009466890787388153,0.179
0.00945402033532099,0.18
0.009441940469799898,0.181
0.00943070040625916,0.182
0.009420341041800511,0.183
0.009410895592883887,0.184
0.00940239036616575,0.185
0.009394844964399981,0.186
0.009388271819221597,0.187
0.009382675935359644,0.188
0.0093780557826154,0.189
0.009374405012439944,0.19
0.009371713842683475,0.191
0.009369969341940251,0.192
0.009369154524024354,0.193
0.009369246674230962,0.194
0.009370215648046744,0.195
0.00937202287392789,0.196
0.009374621569430234,0.197
0.009377958334045028,0.198
0.009381975704365853,0.199
0.009386614666848802,0.2
0.009391815873946547,0.201
0.009397518746145861,0.202
0.009403659560148006,0.203
0.009410171783867305,0.204
0.00941699043472634,0.205
0.009424058157071992,0.206
0.00943132954485977,0.207
0.009438772017836878,0.208
0.009446363056353761,0.209
0.009454084766432353,0.21
0.009461918671912671,0.211
0.009469844505861252,0.212
0.009477843730745589,0.213
0.0094859045368254,0.214
0.009494025102095828,0.215
0.009502214194632303,0.216
0.009510489384763511,0.217
0.009518873429708195,0.218
0.009527389632117272,0.219
0.009536057655302129,0.22
0.009544891894873236,0.221
0.009553903088669576,0.222
0.009563101409134217,0.223
0.009572499059343082,0.224
0.00958211168670258,0.225
0.009591958502327169,0.226
0.009602061034914861,0.227
0.009612440557192034,0.228
0.009623114856653356,0.229
0.009634096183175482,0.23
0.009645391862148661,0.231
0.009657006719359965,0.232
0.009668945229330487,0.233
0.009681212192767448,0.234
0.009693811781922955,0.235
0.009706745269156998,0.236
0.009720008449791009,0.237
0.009733590477311095,0.238
0.009747474833871023,0.239
0.00976164109197567,0.24
0.009776065834690473,0.241
0.009790722289421962,0.242
0.009805578918655798,0.243
0.00982059763265121,0.244
0.009835732945896071,0.245
0.009850933084638268,0.246
0.009866142583451535,0.247
0.009881305159648347,0.248
0.009896365944632775,0.249
0.009911272364082707,0.25
0.009925973046290709,0.251
0.009940415032972105,0.252
0.009954541644533878,0.253
0.009968293964231675,0.254
0.009981615994182614,0.255
0.009994460642989048,0.256
0.010006793879254246,0.257
0.01001859571831208,0.258
0.01002985748416739,0.259
0.010040576084330727,0.26
0.010050748831969101,0.261
0.010060373369056932,0.262
0.01006945298471134,0.263
0.010078002901293608,0.264
0.010086053662727515,0.265
0.010093650819959575,0.266
0.010100851730520437,0.267
0.010107720638238256,0.268
0.010114323093091482,0.269
0.010120721119345739,0.27
0.010126971350655574,0.271
0.010133127103469048,0.272
0.01013924244064694,0.273
0.010145375649187402,0.274
0.010151591048411051,0.275
0.010157959039186626,0.276
0.010164554694028254,0.277
0.010171455403818235,0.278
0.0101787380392401,0.279
0.010186475918164817,0.28
0.010194736217805334,0.281
0.010203579163351257,0.282
0.010213059573963826,0.283
0.010223229418220358,0.284
0.010234139557017631,0.285
0.01024583982511767,0.286
0.010258377383368166,0.287
0.010271794125141353,0.288
0.010286124992992368,0.289
0.01030139846857759,0.29
0.0103176382884206,0.291
0.010334864648703534,0.292
0.010353094180156931,0.293
0.01037233877671816,0.294
0.010392603812701242,0.295
0.010413886922715311,0.296
0.010436178341901579,0.297
0.010459462403354531,0.298
0.010483718906332089,0.299
0.010508923528697842,0.3
0.010535047203910434,0.301
0.010562054829338753,0.302
0.010589903923789048,0.303
0.010618543925248108,0.304
0.010647916690140846,0.305
0.010677958439037776,0.306
0.010708602944128887,0.307
0.010739785278084788,0.308
0.010771445086731153,0.309
0.01080352823731916,0.31
0.010835985892143503,0.311
0.010868770962808038,0.312
0.01090183427912125,0.313
0.010935124687583706,0.314
0.01096859470119605,0.315
0.011002208646137398,0.316
0.011035949384894085,0.317
0.011069821670479017,0.318
0.011103851524896081,0.319
0.011138081799063516,0.32
0.01117256482573511,0.321
0.01120735431646088,0.322
0.011242500185636987,0.323
0.011278048554386204,0.324
0.011314044870535677,0.325
0.01135053657918145,0.326
0.011387573928144693,0.327
0.011425209254800235,0.328
0.01146349547924519,0.329
0.011502484483839809,0.33
0.011542225888865817,0.331
0.011582766481433452,0.332
0.011624150254272861,0.333
0.011666418722177826,0.334
0.01170961100214192,0.335
0.01175376315877891,0.336
0.011798906549265438,0.337
0.0118450655153688,0.338
0.011892255632766408,0.339
0.011940483537911375,0.34
0.011989747786321345,0.341
0.012040039326780461,0.342
0.012091340884416865,0.343
0.01214362570593407,0.344
0.01219685685781006,0.345
0.012250987721753875,0.346
0.012305962964578207,0.347
0.012361718962893054,0.348
0.012418183324498115,0.349
0.012475273904763736,0.35
0.012532898723040507,0.351
0.012590958265299093,0.352
0.012649350235696355,0.353
0.012707975731293229,0.354
0.01276674553963406,0.355
0.01282558487797212,0.356
0.012884434642050649,0.357
0.012943247659039944,0.358
0.01300198127971275,0.359
0.013060592755085657,0.36
0.013119043127792026,0.361
0.013177306732618872,0.362
0.013235378676076581,0.363
0.013293275958575067,0.364
0.013351032102835341,0.365
0.013408687732111657,0.366
0.013466281698127691,0.367
0.013523847046288232,0.368
0.013581411489027785,0.369
0.013638998188818727,0.37
0.013696624337942501,0.371
0.013754298486689024,0.372
0.013812018583749384,0.373
0.013869771952434412,0.374
0.013927537257927808,0.375
0.013985287449399333,0.376
0.014042992100138804,0.377
0.014100617679586949,0.378
0.0141581254707955,0.379
0.014215469264110485,0.38
0.014272596006834996,0.381
0.014329449707461478,0.382
0.01438597544773723,0.383
0.014442120441411783,0.384
0.014497831310357548,0.385
0.014553049677859399,0.386
0.014607710716120603,0.387
0.01466174703905236,0.388
0.014715094818467542,0.389
0.014767697764098702,0.39
0.014819507343049649,0.391
0.014870479561672086,0.392
0.014920569416085822,0.393
0.014969725000626103,0.394
0.015017883946759564,0.395
0.015064973287019452,0.396
0.01511091093585853,0.397
0.01515560672510007,0.398
0.015198962751129376,0.399
0.015240873677230336,0.4
0.015281227548236662,0.401
0.015319907453929804,0.402
0.015356794159327392,0.403
0.015391769608183078,0.404
0.01542472095721641,0.405
0.015455544492088715,0.406
0.015484148458614668,0.407
0.015510453627177727,0.408
0.015534390445959369,0.409
0.015555892886925542,0.41
0.01557489277190327,0.411
0.015591320779392426,0.412
0.015605115730730361,0.413
0.015616236820937096,0.414
0.015624672692668653,0.415
0.01563044460038702,0.416
0.015633603339643774,0.417
0.015634221025021485,0.418
0.01563237973109753,0.419
0.015628160374309055,0.42
0.015621636868489889,0.421
0.015612877917928831,0.422
0.015601952914116254,0.423
0.015588937342143415,0.424
0.015573916144374814,0.425
0.01555698496305124,0.426
0.015538249268172571,0.427
0.01551782157483591,0.428
0.015495817211049756,0.429
0.015472349268406045,0.43
0.015447523637598768,0.431
0.015421435655567103,0.432
0.01539416986337358,0.433
0.015365802806517974,0.434
0.015336407394263283,0.435
0.015306057453617659,0.436
0.01527483155990271,0.437
0.01524281519192131,0.438
0.015210100326583669,0.439
0.01517678206311672,0.44
0.015142953152533094,0.441
0.015108699524594555,0.442
0.015074100192173359,0.443
0.015039231299315182,0.444
0.01500417096184907,0.445
0.014969002456888487,0.446
0.014933815414575466,0.447
0.014898705422928371,0.448
0.014863772452729006,0.449
0.014829118387813374,0.45
0.014794843789432351,0.451
0.014761044013284496,0.452
0.014727805644217615,0.453
0.014695205451276715,0.454
0.01466331296811453,0.455
0.014632194911108759,0.456
0.014601918995299409,0.457
0.01457255617620594,0.458
0.014544181352675972,0.459
0.014516872920981957,0.46
0.014490711687069611,0.461
0.014465779458616556,0.462
0.014442157228594998,0.463
0.014419922454716974,0.464
0.01439914567385423,0.465
0.01437988888077549,0.466
0.014362208031198004,0.467
0.014346158342922324,0.468
0.014331798908045956,0.469
0.01431919450803128,0.47
0.014308414455095661,0.471
0.014299529427291006,0.472
0.0142926077551482,0.473
0.014287712386706355,0.474
0.014284898989844258,0.475
0.014284214786651239,0.476
0.014285697385580401,0.477
0.014289373799386506,0.478
0.01429526120468882,0.479
0.014303370408991009,0.48
0.014313710838565816,0.481
0.01432629506272668,0.482
0.014341141566960732,0.483
0.014358275150317023,0.484
0.0143777248145123,0.485
0.01439951954138513,0.486
0.0144236831624116,0.487
0.014450230563573398,0.488
0.014479166951097864,0.489
0.0145104893584544,0.49
0.014544188201183377,0.491
0.014580247858493304,0.492
0.014618646647726087,0.493
0.014659356845081248,0.494
0.01470234509935628,0.495
0.014747573145909293,0.496
0.014794998397151603,0.497
0.01484457393652097,0.498
0.014896247677865107,0.499
0.014949960807807415,0.5
0.015005645887236675,0.501
0.015063225027715978,0.502
0.015122608414232335,0.503
0.015183693231400234,0.504
0.015246362937292752,0.505
0.015310487014930098,0.506
0.015375921658974,0.507
0.015442511866410664,0.508
0.01551009506700096,0.509
0.015578506020213068,0.51
0.015647582231537574,0.511
0.015717168675604052,0.512
0.015787120461328765,0.513
0.015857302381886172,0.514
0.015927584925584725,0.515
0.01599783783337147,0.516
0.016067925037892346,0.517
0.016137705314337884,0.518
0.0162070386025891,0.519
0.01627579399518582,0.52
0.01634385619662509,0.521
0.016411129568105462,0.522
0.016477539673030173,0.523
0.016543032123569588,0.524
0.01660756829197958,0.525
0.01667111755516548,0.526
0.016733648373447926,0.527
0.01679512491353322,0.528
0.016855513500194756,0.529
0.016914794257839202,0.53
0.01697297051869519,0.531
0.01703007262310675,0.532
0.017086155736705723,0.533
0.017141292554557538,0.534
0.017195562722513092,0.535
0.01724904236263168,0.536
0.017301798605875243,0.537
0.01735389095217896,0.538
0.017405375471244648,0.539
0.017456307393627104,0.54
0.0175067411748979,0.541
0.01755672885014172,0.542
0.0176063176330492,0.543
0.01765554765011518,0.544
0.01770445040662994,0.545
0.017753048074828436,0.546
0.01780135311192538,0.547
0.017849367299520115,0.548
0.017897080005221642,0.549
0.017944467568706667,0.55
0.017991495997265287,0.551
0.018038126159265477,0.552
0.018084318513330054,0.553
0.01813003505927697,0.554
0.01817523749752877,0.555
0.01821988246299406,0.556
0.018263917800023382,0.557
0.01830728427409987,0.558
0.018349922496006078,0.559
0.01839178090910574,0.56
0.018432821392320074,0.561
0.018473021022887292,0.562
0.01851236945276489,0.563
0.018550861919970366,0.564
0.018588490340586423,0.565
0.018625238851238835,0.566
0.018661088021478665,0.567
0.018696023777665837,0.568
0.018730044458580307,0.569
0.018763163141216673,0.57
0.018795404980293164,0.571
0.018826800172698423,0.572
0.018857375046295713,0.573
0.01888714629425338,0.574
0.018916121157578444,0.575
0.018944299798449558,0.576
0.018971674918477226,0.577
0.018998229720922744,0.578
0.019023939334357514,0.579
0.019048777059985797,0.58
0.019072720883676862,0.581
0.019095755179193694,0.582
0.019117866335078972,0.583
0.01913903608123579,0.584
0.01915923957216516,0.585
0.0191784509365706,0.586
0.01919665104559349,0.587
0.01921383138648522,0.588
0.019229992417685395,0.589
0.019245137595221444,0.59
0.019259265488262685,0.591
0.019272363461399333,0.592
0.019284405397646632,0.593
0.019295352294282635,0.594
0.01930515237740661,0.595
0.019313739615538603,0.596
0.019321033094767518,0.597
0.019326939486161834,0.598
0.0193313574000293,0.599
0.019334181155978646,0.6
0.01933530296388626,0.601
0.019334613640704826,0.602
0.019332002234581168,0.603
0.01932735477905768,0.604
0.01932055197401876,0.605
0.019311465775183174,0.606
0.01929995692485587,0.607
0.01928587734314238,0.608
0.019269079069705784,0.609
0.019249427174520373,0.61
0.019226812688734427,0.611
0.019201162488084175,0.612
0.019172443784624092,0.613
0.01914066167123693,0.614
0.019105849434886416,0.615
0.01906805402677105,0.616
0.01902732389982041,0.617
0.018983707493588294,0.618
0.01893726243087237,0.619
0.018888067257695314,0.62
0.018836228998336216,0.621
0.01878188510687402,0.622
0.018725200796864003,0.623
0.0186663631839981,0.624
0.01860557366065642,0.625
0.018543039583395086,0.626
0.018478965966450316,0.627
0.01841354847147951,0.628
0.018346970320614758,0.629
0.018279404239167664,0.63
0.018211016660547953,0.631
0.018141970729161214,0.632
0.018072426859742998,0.633
0.018002541065791897,0.634
0.017932461855589894,0.635
0.01786232687340563,0.636
0.01779226047579202,0.637
0.01772237311021387,0.638
0.017652762863132346,0.639
0.017583519002555458,0.64
0.017514726799777273,0.641
0.017446472411497566,0.642
0.017378846285255344,0.643
0.017311943652957077,0.644
0.017245861322108542,0.645
0.017180691919519916,0.646
0.017116519736223693,0.647
0.01705342188924057,0.648
0.016991473431695544,0.649
0.016930752128077993,0.65
0.01687134056408098,0.651
0.01681332571242944,0.652
0.016756796934704988,0.653
0.01670184341720359,0.654
0.016648551645618154,0.655
0.016597002955837062,0.656
0.01654727079958012,0.657
0.016499417813805418,0.658
0.01645349406392326,0.659
0.016409537727993497,0.66
0.016367577400030572,0.661
0.01632763419795968,0.662
0.016289722915737367,0.663
0.016253852467009694,0.664
0.01622002605246025,0.665
0.016188241343730984,0.666
0.01615849080736136,0.667
0.016130762160610098,0.668
0.016105038810116948,0.669
0.016081299928651555,0.67
0.016059519623707358,0.671
0.01603966479340491,0.672
0.01602169273074514,0.673
0.016005551524390225,0.674
0.01599118509346895,0.675
0.01597854075871444,0.676
0.015967575659617483,0.677
0.0159582594702857,0.678
0.015950572078034797,0.679
0.015944496956335732,0.68
0.01594001500597142,0.681
0.015937104844552345,0.682
0.015935749574690086,0.683
0.01593594388949075,0.684
0.01593769629039912,0.685
0.01594102535499179,0.686
0.015945952012733643,0.687
0.01595249224995751,0.688
0.015960654724919286,0.689
0.015970443323522456,0.69
0.015981860746818736,0.691
0.015994910410403667,0.692
0.016009596695057807,0.693
0.01602592423031027,0.694
0.01604389630425408,0.695
0.01606351196122665,0.696
0.016084762236608284,0.697
0.016107628452858576,0.698
0.01613208512158233,0.699
0.016158105575595234,0.7
0.016185666163609967,0.701
0.01621474657435844,0.702
0.016245326059312868,0.703
0.016277377600505374,0.704
0.01631086428979026,0.705
0.016345740333308795,0.706
0.016381954233277603,0.707
0.016419450752412006,0.708
0.016458170933953607,0.709
0.016498050918012507,0.71
0.016539020293496742,0.711
0.01658100049783043,0.712
0.01662390356384627,0.713
0.016667631367261477,0.714
0.016712075371189447,0.715
0.016757116603875046,0.716
0.01680262524672715,0.717
0.01684845959910325,0.718
0.01689446612343962,0.719
0.01694048332772229,0.72
0.016986350008406266,0.721
0.017031915532745506,0.722
0.017077049139044304,0.723
0.01712164581349322,0.724
0.01716562720136714,0.725
0.017208937100615322,0.726
0.017251532043719982,0.727
0.017293370060174874,0.728
0.017334404958112996,0.729
0.017374591190069504,0.73
0.017413895155658773,0.731
0.017452305451282166,0.732
0.017489838646225615,0.733
0.017526540417396326,0.734
0.017562483020567243,0.735
0.01759776058274114,0.736
0.017632483540594063,0.737
0.017666772902689153,0.738
0.01770075427581333,0.739
0.01773455133745551,0.74
0.017768279944715703,0.741
0.017802046445757867,0.742
0.01783595205506348,0.743
0.017870100068260425,0.744
0.017904601302258787,0.745
0.01793957560645611,0.746
0.017975149368965715,0.747
0.018011450248543052,0.748
0.018048601303922603,0.749
0.018086716775363318,0.75
0.018125900940764654,0.751
0.018166250134886864,0.752
0.01820785677643613,0.753
0.018250813551150016,0.754
0.01829521593966323,0.755
0.01834116195788337,0.756
0.018388748957792144,0.757
0.018438068383105053,0.758
0.018489200666337254,0.759
0.018542212976232302,0.76
0.01859716029708455,0.761
0.01865408741149115,0.762
0.01871302960824209,0.763
0.018774011984019796,0.764
0.01883704821253447,0.765
0.018902139770830908,0.766
0.018969276440765664,0.767
0.019038438452380867,0.768
0.019109600019456788,0.769
0.01918273344572742,0.77
0.019257812671675013,0.771
0.019334815213995122,0.772
0.019413721897019613,0.773
0.01949451439482112,0.774
0.019577171107194535,0.775
0.019661662107218255,0.776
0.01974794447758502,0.777
0.019835960319028192,0.778
0.019925638608098338,0.779
0.02001689915887723,0.78
0.02010965612010727,0.781
0.020203819644361527,0.782
0.020299295111343693,0.783
0.020395979826916905,0.784
0.020493758831893118,0.785
0.020592503253999517,0.786
0.020692072627429996,0.787
0.02079231801298836,0.788
0.020893082077628335,0.789
0.020994197138757626,0.79
0.021095487408157546,0.791
0.0211967798323144,0.792
0.02129792017903137,0.793
0.021398787120872856,0.794
0.021499298633845476,0.795
0.021599407542086106,0.796
0.02169908735999567,0.797
0.021798317418162693,0.798
0.02189707930318603,0.799
0.02199536571589537,0.8
0.02209319022595821,0.801
0.02219058835360952,0.802
0.022287609869825288,0.803
0.022384307431260346,0.804
0.02248072747513961,0.805
0.022576907627914006,0.806
0.022672881562817708,0.807
0.022768688822282095,0.808
0.02286438503101445,0.809
0.022960047827104944,0.81
0.023055775485921432,0.811
0.02315167774635954,0.812
0.02324786289546499,0.813
0.023344430417755593,0.814
0.023441474807936177,0.815
0.02353909498324296,0.816
0.02363740095452532,0.817
0.02373651506829269,0.818
0.023836568624259924,0.819
0.0239376953124746,0.82
0.02404002315287544,0.821
0.024143666804213516,0.822
0.02424872209729545,0.823
0.024355263477396524,0.824
0.024463343588054083,0.825
0.02457299460407039,0.826
0.024684231500637716,0.827
0.024797056271264172,0.828
0.024911461162224997,0.829
0.025027429473394366,0.83
0.025144933439760517,0.831
0.025263930007100668,0.832
0.025384356733026126,0.833
0.02550612967482325,0.834
0.02562914285943972,0.835
0.02575326849763645,0.836
0.025878358674248828,0.837
0.026004248577950494,0.838
0.026130758970319735,0.839
0.026257695779459002,0.84
0.026384848704730315,0.841
0.02651199443425848,0.842
0.026638907326046506,0.843
0.026765373758711495,0.844
0.02689120403193766,0.845
0.027016237657763995,0.846
0.027140339974958953,0.847
0.02726339025050259,0.848
0.027385267055440882,0.849
0.027505843051182432,0.85
0.02762499561919594,0.851
0.027742625170779342,0.852
0.027858669215712555,0.853
0.027973106716359847,0.854
0.02808595162258455,0.855
0.028197237053300687,0.856
0.028306997432268374,0.857
0.02841526120609534,0.858
0.028522059220256416,0.859
0.028627439093088906,0.86
0.028731474104363858,0.861
0.02883426332305711,0.862
0.028935924347219703,0.863
0.029036580956901283,0.864
0.029136349577685756,0.865
0.029235331103494536,0.866
0.029333612586810828,0.867
0.029431275749342373,0.868
0.02952840574142142,0.869
0.02962509619851661,0.87
0.029721449136948564,0.871
0.02981756923958069,0.872
0.029913554181178505,0.873
0.030009486408560045,0.874
0.030105432105410435,0.875
0.03020144655049462,0.876
0.030297579531335484,0.877
0.030393876189746715,0.878
0.03049037274336686,0.879
0.03058708942847229,0.88
0.030684025620135277,0.881
0.030781160915394984,0.882
0.03087846029659069,0.883
0.030975878626262346,0.884
0.031073361782735388,0.885
0.031170844011189636,0.886
0.031268242592604585,0.887
0.03136545329578033,0.888
0.03146235068692115,0.889
0.031558793498660885,0.89
0.03165463130164826,0.891
0.03174970917004668,0.892
0.03184386931419904,0.893
0.03193694984141528,0.894
0.032028781296515034,0.895
0.032119181930213875,0.896
0.032207952625714256,0.897
0.03229487205599243,0.898
0.032379692706150785,0.899
0.03246213937060459,0.9
0.032541911588890186,0.901
0.03261868943267432,0.902
0.03269214078147092,0.903
0.032761928226871274,0.904
0.032827713483431234,0.905
0.032889157050736036,0.906
0.032945912140630355,0.907
0.03299761604251817,0.908
0.03304388611434976,0.909
0.033084322819961785,0.91
0.033118512630362744,0.911
0.03314602660279937,0.912
0.033166424189882054,0.913
0.03317927224333154,0.914
0.033184173441536687,0.915
0.03318078921107667,0.916
0.03316884560155424,0.917
0.03314811779470153,0.918
0.03311840422120544,0.919
0.0330795184436492,0.92
0.03303131441670107,0.921
0.03297372650795553,0.922
0.032906797462974965,0.923
0.03283068426256612,0.924
0.03274564340425717,0.925
0.03265200106925697,0.926
0.032550117049648386,0.927
0.03244035597980426,0.928
0.032323078350368475,0.929
0.032198649972924986,0.93
0.032067456327526694,0.931
0.03192991183684256,0.932
0.03178646295621551,0.933
0.031637586814104036,0.934
0.03148378662537936,0.935
0.03132558448522096,0.936
0.031163511810025274,0.937
0.03099809777711435,0.938
0.030829857857349093,0.939
0.030659287475561688,0.94
0.03048686381921521,0.941
0.030313051893587496,0.942
0.030138308742327032,0.943
0.02996308322254746,0.944
0.029787811602292262,0.945
0.029612911742367267,0.946
0.029438781037850987,0.947
0.02926580056048979,0.948
0.029094341609636736,0.949
0.028924769514132094,0.95
0.028757442635115177,0.951
0.028592707326225972,0.952
0.02843089254442273,0.953
0.028272309175668267,0.954
0.028117255106102832,0.955
0.027966021861248903,0.956
0.027818898714160843,0.957
0.027676173170857007,0.958
0.027538128365210166,0.959
0.027405038365718344,0.96
0.027277162550226955,0.961
0.02715474043369348,0.962
0.027037988767341425,0.963
0.02692710192720252,0.964
0.02682225460907889,0.965
0.026723605209954097,0.966
0.026631299126357658,0.967
0.026545471630424904,0.968
0.026466249857449685,0.969
0.026393753401301793,0.97
0.026328093122828862,0.971
0.02626936791309887,0.972
0.02621766026939727,0.973
0.026173034001523543,0.974
0.026135537269233865,0.975
0.026105209903546228,0.976
0.026082091148981832,0.977
0.026066224884749894,0.978
0.026057660872540807,0.979
0.026056451463879738,0.98
0.02606264437430246,0.981
0.02607627480209339,0.982
0.02609736252423671,0.983
0.026125916157578734,0.984
0.026161940233319317,0.985
0.026205439955149148,0.986
0.026256422098486984,0.987
0.026314892527892,0.988
0.026380851287482045,0.989
0.026454286447474076,0.99
0.026535168199347873,0.991
0.026623445091962246,0.992
0.026719043390541215,0.993
0.026821868452598305,0.994
0.026931806460899127,0.995
0.027048726089737535,0.996
0.0271724805029402,0.997
0.0273029099127155,0.998
0.027439844407859487,0.999
0.02758310626652492,1.0
0.027732510727573715,1.001
0.027887864354297937,1.002
0.028048960715948083,1.003
0.028215574923345987,1.004
0.02838746089283631,1.005
0.028564353586267625,1.006
0.02874597363133537,1.007
0.02893203067790616,1.008
0.029122224408532172,1.009
0.029316243574626415,1.01
0.029513763519160345,1.011
0.02971444250409269,1.012
0.02991791752564017,1.013
0.030123801537240626,1.014
0.030331683912089943,1.015
0.030541133333423346,1.016
0.030751700275386862,1.017
0.03096291671155709,1.018
0.031174293403304496,1.019
0.03138531960408481,1.02
0.031595470451174903,1.021
0.0318042212327568,1.022
0.032011063100671165,1.023
0.03221551484969045,1.024
0.03241712629152356,1.025
0.03261546997708714,1.026
0.03281012468673752,1.027
0.03300066617546044,1.028
0.033186679222911214,1.029
0.03336778520783184,1.03
0.03354366823246657,1.031
0.03371408888617251,1.032
0.0338788822520987,1.033
0.03403794079767257,1.034
0.034191186927594985,1.035
0.034338546490689494,1.036
0.03447993750661293,1.037
0.034615276570248,1.038
0.03474448973431648,1.039
0.03486751580799213,1.04
0.034984300720053714,1.041
0.035094786731166734,1.042
0.03519890073731029,1.043
0.03529654525181074,1.044
0.03538759433432837,1.045
0.035471895241280145,1.046
0.03554927519183444,1.047
0.03561955147811857,1.048
0.035682542305860813,1.049
0.035738075431563,1.05
0.03578599200996607,1.051
0.035826143996318206,1.052
0.03585838466936458,1.053
0.035882555729745524,1.054
0.035898480861444974,1.055
0.035905973189046786,1.056
0.035904851395657994,1.057
0.03589495356426139,1.058
0.03587614211576116,1.059
0.03584829723742823,1.06
0.035811301863446,1.061
0.03576503152803998,1.062
0.03570936184765285,1.063
0.03564418860531886,1.064
0.03556944317499247,1.065
0.03548509102357743,1.066
0.03539111489785821,1.067
0.035287500772723045,1.068
0.035174245381166286,1.069
0.03505138116506046,1.07
0.03491899786882949,1.071
0.034777246493390486,1.072
0.034626323410662546,1.073
0.03446644336955697,1.074
0.03429782182732589,1.075
0.034120681025915305,1.076
0.03393526938640976,1.077
0.03374187342554736,1.078
0.033540812511346274,1.079
0.03333242056006958,1.08
0.03311702968015303,1.081
0.03289496993518819,1.082
0.03266658217430953,1.083
0.032432228745320035,1.084
0.03219229246674728,1.085
0.031947164543964714,1.086
0.03169722964830228,1.087
0.03144285991541808,1.088
0.031184421805824883,1.089
0.030922287289425462,1.09
0.030656840052176858,1.091
0.03038847458977846,1.092
0.030117589747635433,1.093
0.02984457877843922,1.094
0.029569819298422933,1.095
0.029293668478359916,1.096
0.029016465913895402,1.097
0.028738539938265924,1.098
0.02846021181686962,1.099
0.028181795799526132,1.1
0.02790359524474577,1.101
0.027625896775213363,1.102
0.02734896672929993,1.103
0.027073052760405995,1.104
0.026798388480994844,1.105
0.026525197429694464,1.106
0.026253695013196923,1.107
0.025984088755827996,1.108
0.02571657737161305,1.109
0.025451348977900207,1.11
0.025188578531663276,1.111
0.02492842458355262,1.112
0.02467102631911986,1.113
0.02441650294937556,1.114
0.024164956377611055,1.115
0.023916475428103306,1.116
0.023671139366020486,1.117
0.023429019747630942,1.118
0.023190180604114874,1.119
0.02295467747107154,1.12
0.022722556099322593,1.121
0.022493851638206355,1.122
0.022268588704848217,1.123
0.022046782268423677,1.124
0.02182843891564163,1.125
0.021613557901668374,1.126
0.021402131394331496,1.127
0.02119414345874265,1.128
0.020989567601252628,1.129
0.020788363474289636,1.13
0.02059047464947554,1.131
0.02039582921404488,1.132
0.020204342579578854,1.133
0.020015920350146463,1.134
0.019830459862147855,1.135
0.01964785018022113,1.136
0.0194679708539179,1.137
0.019290689924983388,1.138
0.01911586171681618,1.139
0.018943324919398388,1.14
0.018772901503277862,1.141
0.018604397057151282,1.142
0.018437603142773908,1.143
0.0182723020766341,1.144
0.0181082741162828,1.145
0.017945306366789805,1.146
0.017783201934480596,1.147
0.017621787159228353,1.148
0.017460914476971456,1.149
0.0173004589140063,1.15
0.017140308498744497,1.151
0.016980354396275425,1.152
0.016820490087354097,1.153
0.016660622104197543,1.154
0.016500684703729902,1.155
0.01634065036655105,1.156
0.016180533496607547,1.157
0.01602038777748573,1.158
0.015860298565496853,1.159
0.01570037214814826,1.16
0.015540723743588686,1.161
0.015381466712850208,1.162
0.015222706477265606,1.163
0.015064540519346485,1.164
0.014907061331451246,1.165
0.014750358518643937,1.166
0.014594519159751783,1.167
0.014439627277938911,1.168
0.014285763436260326,1.169
0.014133005228545645,1.17
0.01398142900227047,1.171
0.013831112632816972,1.172
0.01368213869829151,1.173
0.0135345971223912,1.174
0.013388586372423798,1.175
0.013244212642865322,1.176
0.013101587000129662,1.177
0.012960820972260657,1.178
0.012822021686609416,1.179
0.01268528853058568,1.18
0.012550712978459696,1.181
0.012418380961540174,1.182
0.012288375580583112,1.183
0.012160778628588378,1.184
0.012035670559982113,1.185
0.011913129050699524,1.186
0.011793226518284966,1.187
0.01167602745846138,1.188
0.011561586968868836,1.189
0.011449950900825423,1.19
0.011341156325288843,1.191
0.011235231429627221,1.192
0.011132195998869188,1.193
0.01103206362035083,1.194
0.010934844763866988,1.195
0.010840549039886576,1.196
0.010749185653798768,1.197
0.010660761884678434,1.198
0.010575280334951778,1.199
0.01049273681843712,1.2
0.010413120355074645,1.201
0.010336414535434884,1.202
0.010262598368535538,1.203
0.010191645650806087,1.204
0.010123523393087752,1.205
0.010058190968277892,1.206
0.009995601056008935,1.207
0.009935701480501385,1.208
0.00987843644320432,1.209
0.00982374658478496,1.21
0.009771567946622955,1.211
0.009721830359472893,1.212
0.00967445656287929,1.213
0.009629363208320146,1.214
0.009586463401221396,1.215
0.009545669511310976,1.216
0.009506895347978278,1.217
0.00947005732122736,1.218
0.009435074462772999,1.219
0.009401867339987477,1.22
0.00937035597179641,1.221
0.009340457143795756,1.222
0.009312082394521234,1.223
0.009285138315899591,1.224
0.00925952934614305,1.225
0.009235161526118038,1.226
0.00921194573238781,1.227
0.009189799746119645,1.228
0.009168648872233095,1.229
0.009148424840594646,1.23
0.00912906273889239,1.231
0.009110496858962017,1.232
0.00909265874423129,1.233
0.009075480166682774,1.234
0.009058899292319794,1.235
0.009042866041127218,1.236
0.009027344218165215,1.237
0.009012309805860364,1.238
0.008997745916235119,1.239
0.008983636498121776,1.24
0.008969962607315848,1.241
0.008956703411141473,1.242
0.008943839765012382,1.243
0.008931357117039834,1.244
0.00891924666179748,1.245
0.008907504943499045,1.246
0.008896132171368601,1.247
0.008885129434044356,1.248
0.00887449539477746,1.249
0.0088642240971095,1.25
0.008854305409114903,1.251
0.008844727497479206,1.252
0.0088354792323043,1.253
0.008826551062297287,1.254
0.0088179339891789,1.255
0.00880961711214841,1.256
0.008801585428491677,1.257
0.008793819934821602,1.258
0.008786300064555956,1.259
0.008779006288831605,1.26
0.008771920864346654,1.261
0.008765026153064555,1.262
0.008758301707827106,1.263
0.00875172304756182,1.264
0.008745263868885824,1.265
0.008738899904673655,1.266
0.008732611665496345,1.267
0.008726384919987876,1.268
0.00872020887563718,1.269
0.008714072753897949,1.27
0.008707962823764822,1.271
0.008701862424596134,1.272
0.008695755296532416,1.273
0.008689629971559948,1.274
0.00868348296840213,1.275
0.00867731978687049,1.276
0.008671153408091421,1.277
0.008665000456019714,1.278
0.008658876502274543,1.279
0.008652793752471456,1.28
0.008646762895349693,1.281
0.008640796845243298,1.282
0.008634913256997803,1.283
0.008629134891814175,1.284
0.008623488256290234,1.285
0.008618001173814989,1.286
0.008612699920642394,1.287
0.008607606497284403,1.288
0.008602736727660239,1.289
0.00859809972701688,1.29
0.008593698447887604,1.291
0.008589530386199817,1.292
0.008585587835565555,1.293
0.008581857642688515,1.294
0.008578320657178586,1.295
0.008574951139881458,1.296
0.008571716426047852,1.297
0.008568577108076635,1.298
0.008565487898364466,1.299
0.008562399168027882,1.3
0.008559258938218387,1.301
0.00855601482627035,1.302
0.008552615176291155,1.303
0.00854900850443972,1.304
0.008545141379332034,1.305
0.008540957096352043,1.306
0.008536397587660307,1.307
0.008531407576436908,1.308
0.008525937759386043,1.309
0.008519944990479993,1.31
0.00851338934174225,1.311
0.00850622982101178,1.312
0.008498422301888105,1.313
0.008489921632295932,1.314
0.008480685789610363,1.315
0.008470678957549325,1.316
0.008459872279143505,1.317
0.00844824214151997,1.318
0.008435766558878859,1.319
0.00842242190854141,1.32
0.008408183050534706,1.321
0.008393027267094134,1.322
0.008376939207867608,1.323
0.008359914026004223,1.324
0.008341957742989606,1.325
0.008323085090096497,1.326
0.008303315628869129,1.327
0.008282669197225425,1.328
0.008261161951929859,1.329
0.008238804385673124,1.33
0.008215601597406173,1.331
0.008191554545370567,1.332
0.008166661185512545,1.333
0.008140917596226227,1.334
0.00811431964087493,1.335
0.008086865484250813,1.336
0.008058558806056689,1.337
0.008029412017609832,1.338
0.007999448448885572,1.339
0.00796870252335499,1.34
0.007937217386687354,1.341
0.007905040390289421,1.342
0.007872218579947724,1.343
0.007838797410868997,1.344
0.007804823565370327,1.345
0.007770349199102923,1.346
0.0077354347517448714,1.347
0.007700149418596464,1.348
0.00766456947320162,1.349
0.007628774996301578,1.35
0.007592845913322242,1.351
0.007556858689818125,1.352
0.007520884967624941,1.353
0.00748499203394894,1.354
0.007449243629681965,1.355
0.007413699921310011,1.356
0.007378416633148906,1.357
0.0073434441662957005,1.358
0.007308827646512509,1.359
0.007274607974243187,1.36
0.007240823029290862,1.361
0.007207508256192576,1.362
0.007174696393505299,1.363
0.007142416464636435,1.364
0.007110692588172997,1.365
0.0070795435821908274,1.366
0.007048983800733461,1.367
0.007019024522990236,1.368
0.006989675019478792,1.369
0.006960943000859864,1.37
0.006932834533922992,1.371
0.006905353646454014,1.372
0.006878501919951261,1.373
0.006852278364078004,1.374
0.006826679753293896,1.375
0.006801701370421582,1.376
0.006777337792119895,1.377
0.0067535830966055374,1.378
0.006730429998414951,1.379
0.006707868548420574,1.38
0.006685886427869879,1.381
0.006664471956750444,1.382
0.006643618306547076,1.383
0.006623326609459875,1.384
0.006603606803332129,1.385
0.00658447609252522,1.386
0.006565955515502038,1.387
0.006548065895154956,1.388
0.006530825265274708,1.389
0.006514248973795223,1.39
0.006498351267776188,1.391
0.006483146405389028,1.392
0.006468648520577481,1.393
0.006454870430898057,1.394
0.006441821922967726,1.395
0.006429508216990357,1.396
0.0064179292885082374,1.397
0.006407080444447674,1.398
0.006396954082084585,1.399
0.006387542099112245,1.4
0.006378838172413493,1.401
0.006370839158133795,1.402
0.006363545109162137,1.403
0.00635695772440909,1.404
0.0063510778326140984,1.405
0.0063459038365904314,1.406
0.006341432814593463,1.407
0.0063376635622279295,1.408
0.0063345994131310856,1.409
0.006332249395729739,1.41
0.006330627313943112,1.411
0.006329749014855241,1.412
0.00632962912093476,1.413
0.006330279381683667,1.414
0.0063317095043479085,1.415
0.006333928824779186,1.416
0.0063369469385268435,1.417
0.006340772892294095,1.418
0.006345413489297673,1.419
0.006350871813502836,1.42
0.006357147050933365,1.421
0.00636423553853643,1.422
0.006372131984910594,1.423
0.006380830092087154,1.424
0.006390322532081755,1.425
0.006400600539354229,1.426
0.00641165336824726,1.427
0.006423467736179672,1.428
0.006436027222921342,1.429
0.0064493115092483285,1.43
0.006463295531597264,1.431
0.006477949115142069,1.432
0.006493237628893373,1.433
0.00650912347360421,1.434
0.0065255678376735715,1.435
0.006542532385166447,1.436
0.006559980694989339,1.437
0.006577879223253747,1.438
0.006596197513949662,1.439
0.006614907439124662,1.44
0.006633981450164591,1.441
0.006653390221462582,1.442
0.006673100637279118,1.443
0.006693075126331138,1.444
0.006713272353669368,1.445
0.006733648383557581,1.446
0.006754157686134592,1.447
0.006774753927326861,1.448
0.006795390560325877,1.449
0.0068160211264071905,1.45
0.006836599154580654,1.451
0.006857077615651101,1.452
0.00687740799785744,1.453
0.006897539182861173,1.454
0.00691741635917731,1.455
0.0069369801686764085,1.456
0.006956166134247381,1.457
0.006974904227835934,1.458
0.00699311851429277,1.459
0.007010727289263219,1.46
0.007027644258466981,1.461
0.007043780700493694,1.462
0.0070590480766873085,1.463
0.007073360525765907,1.464
0.007086636692558004,1.465
0.007098800372194865,1.466
0.007109779626195306,1.467
0.007119504297412963,1.468
0.0071279028040949115,1.469
0.007134900671089751,1.47
0.007140422657555413,1.471
0.007144397375841551,1.472
0.00714676212751854,1.473
0.007147466702314721,1.474
0.007146475471608401,1.475
0.007143767148220599,1.476
0.007139331821256307,1.477
0.007133165790326057,1.478
0.007125266801114238,1.479
0.007115633311736392,1.48
0.007104268389765493,1.481
0.0070911849389742165,1.482
0.007076409064896519,1.483
0.007059980697540853,1.484
0.007041951850385085,1.485
0.007022383298967865,1.486
0.00700134063222283,1.487
0.0069788905412234035,1.488
0.006955097901576078,1.489
0.006930023782533374,1.49
0.00690372420211437,1.491
0.0068762495563156984,1.492
0.00684764503248428,1.493
0.006817952279940214,1.494
0.006787212122266263,1.495
0.006755467783157631,1.496
0.006722767999567629,1.497
0.006689169275934651,1.498
0.006654736548198771,1.499
0.006619541834492091,1.5
0.006583660967428337,1.501
0.006547169574316976,1.502
0.0065101407547357775,1.503
0.006472645889200077,1.504
0.006434757097849012,1.505
0.006396549197764207,1.506
0.0063581005558110805,1.507
0.006319493095215986,1.508
0.006280811652448866,1.509
0.006242142681984169,1.51
0.0062035722715633144,1.511
0.006165184073453184,1.512
0.006127058682163373,1.513
0.006089275242239191,1.514
0.006051914026444411,1.515
0.006015058243413594,1.516
0.0059787943836729805,1.517
0.005943211188748431,1.518
0.005908397665057337,1.519
0.005874440790241271,1.52
0.005841423670699161,1.521
0.005809424678307182,1.522
0.005778517402420963,1.523
0.005748770788850658,1.524
0.0057202491099743,1.525
0.005693011827409531,1.526
0.005667113495523087,1.527
0.005642603818147786,1.528
0.00561952796395268,1.529
0.005597927219745902,1.53
0.005577839971785312,1.531
0.005559302863676634,1.532
0.005542351851746469,1.533
0.005527022836713155,1.534
0.005513351627333346,1.535
0.005501373173572824,1.536
0.0054911202397582475,1.537
0.005482621989801216,1.538
0.005475903126776995,1.539
0.0054709837156186785,1.54
0.005467879201933437,1.541
0.005466600558658348,1.542
0.005467154960448801,1.543
0.005469546801916792,1.544
0.005473778296558725,1.545
0.0054798491984368895,1.546
0.005487756157856779,1.547
0.005497492919165894,1.548
0.005509051783977461,1.549
0.005522425339057751,1.55
0.00553760728660286,1.551
0.005554592036880246,1.552
0.005573373356258236,1.553
0.005593942642432843,1.554
0.0056162874208849165,1.555
0.005640390439408236,1.556
0.005666229424785239,1.557
0.005693777333264562,1.558
0.005723002862325115,1.559
0.0057538710515055245,1.56
0.00578634387370499,1.561
0.005820380730026972,1.562
0.005855938722255341,1.563
0.005892972557542156,1.564
0.005931433998096207,1.565
0.005971270978065559,1.566
0.0060124268606462,1.567
0.006054840370603139,1.568
0.0060984462272698995,1.569
0.006143176052705474,1.57
0.00618895924009792,1.571
0.006235723720814117,1.572
0.006283396613268654,1.573
0.0063319046918113835,1.574
0.0063811745943853524,1.575
0.006431132707443624,1.576
0.006481704729625918,1.577
0.006532815019853618,1.578
0.006584385944854372,1.579
0.006636337470932373,1.58
0.006688587120858722,1.581
0.006741050166431531,1.582
0.006793639681876837,1.583
0.006846265979048597,1.584
0.006898835497501019,1.585
0.006951250476414684,1.586
0.00700341072123492,1.587
0.007055216935918012,1.588
0.007106574060124783,1.589
0.007157393588410416,1.59
0.007207594469092191,1.591
0.007257102512657533,1.592
0.007305848476625276,1.593
0.007353765089876526,1.594
0.007400783727540171,1.595
0.0074468324963162386,1.596
0.007491837306185538,1.597
0.007535725334617596,1.598
0.0075784288751938045,1.599
0.007619888056089118,1.6
0.007660051660663217,1.601
0.0076988756562453384,1.602
0.007736319593337771,1.603
0.007772342560797592,1.604
0.007806901892477636,1.605
0.00783995602259806,1.606
0.007871469062364678,1.607
0.007901413967402389,1.608
0.007929773110293664,1.609
0.007956536356843083,1.61
0.007981697222690223,1.611
0.008005248426929066,1.612
0.008027179139877145,1.613
0.008047475477404519,1.614
0.008066123253181495,1.615
0.008083111011309855,1.616
0.008098432434166868,1.617
0.008112088005524572,1.618
0.008124085810454826,1.619
0.008134441214236619,1.62
0.008143175108157756,1.621
0.008150310618416706,1.622
0.008155869444180366,1.623
0.008159870730225,1.624
0.008162334113970288,1.625
0.008163284860701224,1.626
0.008162757958953992,1.627
0.00816079972863829,1.628
0.008157466697260217,1.629
0.008152822002444118,1.63
0.008146930478768917,1.631
0.008139855051301527,1.632
0.008131656863814972,1.633
0.008122398585213129,1.634
0.00811214816085331,1.635
0.008100981057595305,1.636
0.008088980474805843,1.637
0.008076235562678778,1.638
0.008062837926716141,1.639
0.008048877568339888,1.64
0.008034440775325629,1.641
0.008019611528779249,1.642
0.008004474829800465,1.643
0.007989119343639947,1.644
0.007973638159638244,1.645
0.007958127471593303,1.646
0.007942683615821516,1.647
0.007927400048189053,1.648
0.007912366301470145,1.649
0.007897669120466874,1.65
0.007883393761477028,1.651
0.007869623735187322,1.652
0.007856439165361823,1.653
0.007843915392010748,1.654
0.007832123218670727,1.655
0.007821130373658933,1.656
0.0078110026632744085,1.657
0.007801803928053327,1.658
0.0077935948245128174,1.659
0.007786431172558622,1.66
0.0077803632157226075,1.661
0.00777543651863203,1.662
0.007771693711619699,1.663
0.007769175945991452,1.664
0.007767923614424734,1.665
0.007767976267822141,1.666
0.007769371735891571,1.667
0.0077721445708587465,1.668
0.007776324288458437,1.669
0.007781934343809768,1.67
0.007788992318037842,1.671
0.007797510619620418,1.672
0.007807496826908268,1.673
0.007818953523474722,1.674
0.007831877875318638,1.675
0.007846261186795633,1.676
0.007862088571470532,1.677
0.007879338764170291,1.678
0.00789798401602033,1.679
0.00791798997005182,1.68
0.007939315428586571,1.681
0.007961912026907254,1.682
0.007985723949038815,1.683
0.008010687812121565,1.684
0.008036732833203108,1.685
0.008063781470357053,1.686
0.008091750619853628,1.687
0.008120553135352333,1.688
0.008150099187516151,1.689
0.008180296878573301,1.69
0.008211051592201911,1.691
0.008242264450072822,1.692
0.008273831880258112,1.693
0.00830564798780216,1.694
0.008337608795526943,1.695
0.008369616219349141,1.696
0.008401580455100397,1.697
0.008433420115647414,1.698
0.00846505976122256,1.699
0.008496425628224422,1.7
0.00852744263986007,1.701
0.008558035867288174,1.702
0.008588135775654997,1.703
0.008617683662051732,1.704
0.00864663456779352,1.705
0.008674956837168681,1.706
0.008702628577269661,1.707
0.008729632081779617,1.708
0.00875594849379232,1.709
0.008781555609455895,1.71
0.00880642949351201,1.711
0.008830547401906922,1.712
0.00885388949021078,1.713
0.008876438681078205,1.714
0.008898178964538123,1.715
0.008919092593215038,1.716
0.00893915717201972,1.717
0.00895834422904859,1.718
0.008976619865118276,1.719
0.008993946089371518,1.72
0.009010281156539846,1.721
0.009025578635429394,1.722
0.009039786527690635,1.723
0.009052848278176592,1.724
0.00906470608250342,1.725
0.00907530514822263,1.726
0.009084597378937517,1.727
0.009092543517246395,1.728
0.009099113104117672,1.729
0.009104281881075756,1.73
0.009108027344388224,1.731
0.009110325375253272,1.732
0.009111151218620986,1.733
0.009110484515105806,1.734
0.009108314965236128,1.735
0.00910464590025529,1.736
0.009099495012268147,1.737
0.009092892551504817,1.738
0.009084877739465633,1.739
0.009075494305456617,1.74
0.009064785963199037,1.741
0.009052792550125328,1.742
0.009039547623472814,1.743
0.009025077989376684,1.744
0.009009404710197155,1.745
0.008992544668763442,1.746
0.00897451219713884,1.747
0.008955320716429002,1.748
0.008934984387560083,1.749
0.008913519719891702,1.75
0.008890947042104132,1.751
0.008867291676814607,1.752
0.00884258458298518,1.753
0.008816862177309048,1.754
0.008790165057412588,1.755
0.008762535447615839,1.756
0.008734013871540023,1.757
0.008704637011434218,1.758
0.008674438773575571,1.759
0.008643454115568942,1.76
0.008611723330106314,1.761
0.008579295007993041,1.762
0.008546226979318209,1.763
0.008512585088437467,1.764
0.008478440043138002,1.765
0.008443863138728492,1.766
0.00840892259524899,1.767
0.008373682435193219,1.768
0.008338203917134511,1.769
0.008302547505235883,1.77
0.00826677370661581,1.771
0.008230942536754935,1.772
0.008195112045398594,1.773
0.008159336474772603,1.774
0.008123664627228603,1.775
0.008088138890498852,1.776
0.008052795139972615,1.777
0.008017663466658323,1.778
0.00798276942851992,1.779
0.007948135346368172,1.78
0.007913781111967312,1.781
0.007879724076679273,1.782
0.007845977973517397,1.783
0.007812551691385535,1.784
0.007779449326774202,1.785
0.007746672001233488,1.786
0.007714220367411273,1.787
0.007682096492475777,1.788
0.007650304531398608,1.789
0.007618850123287447,1.79
0.007587738754965886,1.791
0.007556973575498845,1.792
0.007526553254963838,1.793
0.007496470438781907,1.794
0.007466711007111137,1.795
0.0074372538732286365,1.796
0.007408071021515731,1.797
0.007379127728982854,1.798
0.0073503828378835,1.799
0.007321788833276604,1.8
0.007293291806410661,1.801
0.007264831827033839,1.802
0.007236344149304501,1.803
0.007207761151542334,1.804
0.007179014655610089,1.805
0.0071500383203349635,1.806
0.007120769793624364,1.807
0.0070911522458443,1.808
0.007061134910172643,1.809
0.007030672352135389,1.81
0.006999722369911822,1.811
0.006968242944747268,1.812
0.0069361897903399495,1.813
0.006903516469313978,1.814
0.006870177285655289,1.815
0.006836131153263163,1.816
0.006801344709506428,1.817
0.006765793985408034,1.818
0.006729464495584837,1.819
0.006692349857694128,1.82
0.0066544492476911035,1.821
0.006615764088603548,1.822
0.0065762946808443174,1.823
0.006536038159352694,1.824
0.006494988908479655,1.825
0.006453140917890933,1.826
0.006410490592404238,1.827
0.0063670390349255855,1.828
0.006322793427642832,1.829
0.006277767307862977,1.83
0.006231979628847364,1.831
0.006185452637867789,1.832
0.006138208979008906,1.833
0.0060902692899397915,1.834
0.006041651918249785,1.835
0.005992374934948028,1.836
0.005942458883586186,1.837
0.005891928788987214,1.838
0.005840814956190832,1.839
0.0057891526079951435,1.84
0.005736980571386746,1.841
0.00568433930323932,1.842
0.005631268580768833,1.843
0.005577805488238454,1.844
0.0055239837526292945,1.845
0.005469834893756553,1.846
0.005415390367173116,1.847
0.005360683624981234,1.848
0.005305751613365146,1.849
0.005250635529116515,1.85
0.005195380727407761,1.851
0.005140035787835612,1.852
0.005084650877235636,1.853
0.005029275675604296,1.854
0.004973957433598597,1.855
0.004918740054783779,1.856
0.004863664543198927,1.857
0.0048087700821345765,1.858
0.00475409494513533,1.859
0.004699677110450696,1.86
0.004645554727085075,1.861
0.004591766494596233,1.862
0.0045383518871954685,1.863
0.004485351065075126,1.864
0.0044328043373171545,1.865
0.004380751163856788,1.866
0.004329228933072136,1.867
0.004278272067423782,1.868
0.004227911906773389,1.869
0.004178177163679146,1.87
0.0041290943578043745,1.871
0.004080687895508336,1.872
0.004032979803452503,1.873
0.0039859892578671405,1.874
0.003939732131633482,1.875
0.003894220780982453,1.876
0.003849464061441116,1.877
0.003805467366449774,1.878
0.003762232657221928,1.879
0.0037197586610039184,1.88
0.0036780412927406633,1.881
0.0036370741766664,1.882
0.0035968491570450333,1.883
0.0035573567577242295,1.884
0.0035185865641661845,1.885
0.0034805274857173086,1.886
0.003443167846096754,1.887
0.0034064952594464364,1.888
0.003370496276608947,1.889
0.0033351558175554142,1.89
0.00330045655310662,1.891
0.003266378677823589,1.892
0.003232900430474738,1.893
0.003199999194260581,1.894
0.0031676527572684137,1.895
0.003135840423415713,1.896
0.0031045437144454568,1.897
0.0030737464092579626,1.898
0.0030434337635071463,1.899
0.0030135911534762126,1.9
0.002984203101308113,1.901
0.0029552535953905044,1.902
0.0029267273927562885,1.903
0.0028986111737824617,1.904
0.002870893811962441,1.905
0.002843565642764741,1.906
0.0028166171253080534,1.907
0.002790037898122845,1.908
0.0027638170833432845,1.909
0.0027379445004419253,1.91
0.002712411727961896,1.911
0.002687212333821678,1.912
0.0026623411451065482,1.913
0.0026377929601953754,1.914
0.0026135617665929973,1.915
0.00258964125612835,1.916
0.0025660261384778593,1.917
0.002542713228499228,1.918
0.0025197018351236057,1.919
0.0024969934472471884,1.92
0.0024745908330854756,1.921
0.0024524968332552176,1.922
0.00243071349557587,1.923
0.002409242211746406,1.924
0.0023880847548259604,1.925
0.0023672444628199617,1.926
0.0023467269650955824,1.927
0.002326540271909003,1.928
0.0023066942766787756,1.929
0.0022871998286643895,1.93
0.002268067619357971,1.931
0.0022493072441740437,1.932
0.002230926810924572,1.933
0.0022129331216045856,1.934
0.002195332087179881,1.935
0.0021781291264576096,1.936
0.0021613295570928116,1.937
0.0021449390095771826,1.938
0.0021289637879554385,1.939
0.002113411035192471,1.94
0.002098288580781848,1.941
0.002083604443219153,1.942
0.0020693661085503822,1.943
0.0020555798831323924,1.944
0.002042250624563901,1.945
0.0020293818180977,1.946
0.0020169756502994482,1.947
0.0020050328922947436,1.948
0.0019935528043327844,1.949
0.0019825333174425734,1.95
0.0019719713971028553,1.951
0.0019618632705801975,1.952
0.0019522043300549546,1.953
0.001942988868060323,1.954
0.0019342100959330532,1.955
0.0019258606919976445,1.956
0.001917933599476329,1.957
0.0019104226573624654,1.958
0.0019033228669300653,1.959
0.0018966302465024095,1.96
0.0018903412988286099,1.961
0.001884452246080945,1.962
0.0018789583850613591,1.963
0.0018738539065362423,1.964
0.0018691321228280508,1.965
0.0018647857119517542,1.966
0.0018608066960238232,1.967
0.0018571861657627389,1.968
0.0018539139956895675,1.969
0.0018509788399200435,1.97
0.0018483684303314354,1.971
0.001846069917295223,1.972
0.0018440700303075446,1.973
0.0018423550069171218,1.974
0.0018409103134842228,1.975
