VaMe,time
0.0005224785913177673,0.001
0.0006045754141533116,0.002
0.0006868549806927576,0.003
0.0007692023525365282,0.004
0.0008515103003257711,0.005
0.0009336825240022767,0.006
0.0010156357405579398,0.007
0.0010973002648212598,0.008
0.0011786188941965566,0.009
0.0012595441995201845,0.01
0.001340034872855003,0.011
0.0014200526847691747,0.012
0.0014995616810650515,0.013
0.001578529510654769,0.014
0.0016569291895128504,0.015
0.001734740041126271,0.016
0.001811947675288427,0.017
0.0018885432842131243,0.018
0.001964522539842967,0.019
0.002039884321805493,0.02
0.0021146294152266346,0.021
0.002188759231320317,0.022
0.002262274652499638,0.023
0.002335175293271259,0.024
0.0024074593832947105,0.025
0.002479124053329732,0.026
0.0025501656754182245,0.027
0.002620580200537748,0.028
0.002690363646472261,0.029
0.002759512841579419,0.03
0.0028280263633555106,0.031
0.002895905445769608,0.032
0.0029631545632055447,0.033
0.0030297814792007226,0.034
0.003095796732441729,0.035
0.0031612127130998873,0.036
0.003226042563849452,0.037
0.003290299096483089,0.038
0.003353993792868597,0.039
0.003417135976174269,0.04
0.0034797324861062014,0.041
0.0035417881399318774,0.042
0.0036033067628154555,0.043
0.003664292350197033,0.044
0.0037247501062283293,0.045
0.0037846872317925497,0.046
0.00384411335992096,0.047
0.0039030405535594266,0.048
0.003961482803513937,0.049
0.004019455010913599,0.05
0.004076971551680327,0.051
0.0041340448538577605,0.052
0.004190684713826139,0.053
0.004246898530320811,0.054
0.004302691669778001,0.055
0.0043580672557155566,0.056
0.004413025710784503,0.057
0.0044675649298206955,0.058
0.004521681326939618,0.059
0.004575371087035312,0.06
0.004628630872532251,0.061
0.0046814576981041855,0.062
0.004733848027586427,0.063
0.004785796423186437,0.064
0.004837294418680436,0.065
0.00488833025962169,0.066
0.004938889467714211,0.067
0.004988955624165411,0.068
0.00503851095146291,0.069
0.005087536687343289,0.07
0.005136013423612354,0.071
0.005183921617912371,0.072
0.005231242450639414,0.073
0.005277959069749386,0.074
0.005324058068244389,0.075
0.005369530840874101,0.076
0.0054143743486334715,0.077
0.005458590841644001,0.078
0.005502186271913524,0.079
0.005545167654833787,0.08
0.0055875406829927485,0.081
0.00562930931665643,0.082
0.0056704775682178835,0.083
0.0057110519643475645,0.084
0.005751043382399221,0.085
0.005790468045820461,0.086
0.0058293478960012406,0.087
0.005867710513514658,0.088
0.005905588639073592,0.089
0.005943019236945256,0.09
0.005980042009928992,0.091
0.006016697329251672,0.092
0.006053023894087786,0.093
0.006089057112360504,0.094
0.006124829117465899,0.095
0.006160370033938731,0.096
0.0061957092386929905,0.097
0.006230875815017307,0.098
0.006265898096140118,0.099
0.006300802506934583,0.1
0.006335612067995439,0.101
0.006370345072282806,0.102
0.00640501434000024,0.103
0.0064396270062584615,0.104
0.006474184674111642,0.105
0.006508684094502349,0.106
0.006543118427910402,0.107
0.006577478672490039,0.108
0.0066117547610039405,0.109
0.00664593607551581,0.11
0.0066800113605755525,0.111
0.0067139681433426735,0.112
0.006747791783212372,0.113
0.006781464223092836,0.114
0.006814962725411715,0.115
0.006848259382643983,0.116
0.006881321989556296,0.117
0.006914115874998937,0.118
0.006946605945042154,0.119
0.006978758554787954,0.12
0.007010542977677088,0.121
0.00704193217929179,0.122
0.007072902604941606,0.123
0.00710343279473521,0.124
0.007133500953952215,0.125
0.00716308246818139,0.126
0.007192149117604693,0.127
0.0072206706215438106,0.128
0.007248617019218482,0.129
0.0072759601050133155,0.13
0.007302673303820901,0.131
0.00732873015069614,0.132
0.00735410194456923,0.133
0.007378755613719959,0.134
0.007402652830609402,0.135
0.007425750334339312,0.136
0.007448000316892024,0.137
0.007469350104267601,0.138
0.007489741717156003,0.139
0.007509112521601215,0.14
0.007527397344538311,0.141
0.007544531299875092,0.142
0.007560452388685687,0.143
0.00757510325684872,0.144
0.0075884316331855965,0.145
0.007600389036588116,0.146
0.007610927941864412,0.147
0.007619999273687474,0.148
0.007627553031279216,0.149
0.007633542602596596,0.15
0.0076379303180986935,0.151
0.007640691629928374,0.152
0.007641816791374756,0.153
0.007641309876896223,0.154
0.0076391854989006636,0.155
0.007635463962372384,0.156
0.007630166118666221,0.157
0.007623309906997754,0.158
0.007614910031445044,0.159
0.007604980072243221,0.16
0.007593535236694724,0.161
0.007580594819987079,0.162
0.007566184264170409,0.163
0.007550336640066491,0.164
0.007533093063005965,0.165
0.0075145014423189755,0.166
0.007494613257593375,0.167
0.007473479446785216,0.168
0.007451148328009513,0.169
0.007427667158561657,0.17
0.007403085130313342,0.171
0.00737745486533625,0.172
0.007350831640958074,0.173
0.007323270900128265,0.174
0.007294825253935258,0.175
0.007265542880247627,0.176
0.0072354682936908,0.177
0.0072046442823066464,0.178
0.007173113327560505,0.179
0.007140917905239408,0.18
0.007108099686873509,0.181
0.007074697909432657,0.182
0.007040747799085866,0.183
0.00700628037401853,0.184
0.006971324039082406,0.185
0.0069359069366032025,0.186
0.006900058866792879,0.187
0.0068638123085088725,0.188
0.006827202470560698,0.189
0.006790266424538471,0.19
0.0067530414697461755,0.191
0.006715562999013607,0.192
0.006677862472821128,0.193
0.006639966434283851,0.194
0.006601896871748545,0.195
0.006563672149962943,0.196
0.006525307793413352,0.197
0.006486817218334316,0.198
0.006448212807908151,0.199
0.00640950750684489,0.2
0.006370716747597385,0.201
0.006331860206389867,0.202
0.006292962787559981,0.203
0.006254054380911058,0.204
0.0062151682307447385,0.205
0.006176338244504961,0.206
0.00613759651720343,0.207
0.0060989729076133346,0.208
0.006060497140575241,0.209
0.006022201926831651,0.21
0.005984125477216026,0.211
0.005946312798120488,0.212
0.005908815648573106,0.213
0.0058716911416893365,0.214
0.005834999079112338,0.215
0.005798798795300529,0.216
0.005763147521324311,0.217
0.005728101630884129,0.218
0.005693719445035357,0.219
0.00566006326650594,0.22
0.005627199533761472,0.221
0.005595197090100572,0.222
0.005564124426808367,0.223
0.005534047675147494,0.224
0.005505030551896646,0.225
0.005477135430986883,0.226
0.005450423919575841,0.227
0.005424956299060414,0.228
0.005400790247152116,0.229
0.005377979803940472,0.23
0.005356575267735945,0.231
0.005336623656160617,0.232
0.005318168856359123,0.233
0.005301251197856624,0.234
0.005285907049003529,0.235
0.00527216910057653,0.236
0.0052600672014262145,0.237
0.005249629087025731,0.238
0.005240880607849146,0.239
0.005233845488600473,0.24
0.005228544840676018,0.241
0.005224996667622658,0.242
0.005223215515388521,0.243
0.005223212289401133,0.244
0.005224994155730188,0.245
0.0052285643990305115,0.246
0.005233922150126269,0.247
0.0052410620733627945,0.248
0.005249974282010999,0.249
0.005260644582777554,0.25
0.005273054785367989,0.251
0.005287182780066243,0.252
0.005303002344950506,0.253
0.005320482843615175,0.254
0.005339589046240359,0.255
0.0053602812806111035,0.256
0.005382516014280502,0.257
0.005406246841098809,0.258
0.005431425734600307,0.259
0.005458004334413734,0.26
0.005485934942899602,0.261
0.005515170864161017,0.262
0.005545665788082479,0.263
0.005577372281294594,0.264
0.005610240192511249,0.265
0.005644216067386175,0.266
0.005679243535254182,0.267
0.005715263477202736,0.268
0.005752213679739383,0.269
0.005790029266677183,0.27
0.005828644639852865,0.271
0.005867995705914822,0.272
0.0059080205778418975,0.273
0.0059486582753853845,0.274
0.005989847291424297,0.275
0.006031526818679313,0.276
0.006073640857563477,0.277
0.006116142357321269,0.278
0.006158994562239723,0.279
0.006202168555430034,0.28
0.006245638457182688,0.281
0.0062893783023860415,0.282
0.006333363039710893,0.283
0.006377570964333049,0.284
0.006421983644311529,0.285
0.006466583217004036,0.286
0.0065113506431431,0.287
0.00655626762446866,0.288
0.006601320563792933,0.289
0.006646503389442101,0.29
0.006691817969005503,0.291
0.006737272314906307,0.292
0.006782877197532579,0.293
0.006828642376456616,0.294
0.006874574542994949,0.295
0.006920678333041371,0.296
0.006966959439357673,0.297
0.007013428062231072,0.298
0.00706010186515845,0.299
0.007107008100361713,0.3
0.0071541844865685485,0.301
0.007201678409722211,0.302
0.007249544223716888,0.303
0.007297839085482418,0.304
0.007346619145549825,0.305
0.007395938620191727,0.306
0.007445852227021865,0.307
0.007496418736302651,0.308
0.007547703384860742,0.309
0.007599778422823816,0.31
0.007652721859216385,0.311
0.007706614731293498,0.312
0.007761537585738655,0.313
0.007817567532034069,0.314
0.00787477736458126,0.315
0.007933236766498568,0.316
0.007993014005307669,0.317
0.008054176779347024,0.318
0.008116791988265213,0.319
0.008180924745632336,0.32
0.008246637051113384,0.321
0.008313986477822673,0.322
0.008383025050676207,0.323
0.008453798314122449,0.324
0.00852634456597555,0.325
0.008600694352519096,0.326
0.008676870255841332,0.327
0.008754886805284646,0.328
0.008834750472095748,0.329
0.008916459857237874,0.33
0.009000005895032874,0.331
0.009085371793347476,0.332
0.00917253297018901,0.333
0.009261457551742843,0.334
0.009352107419378626,0.335
0.009444439151980438,0.336
0.009538404252613408,0.337
0.009633948451280681,0.338
0.009731010436012773,0.339
0.009829520947601849,0.34
0.009929402831455693,0.341
0.010030571497328535,0.342
0.010132934935016226,0.343
0.010236393112057117,0.344
0.010340837156810487,0.345
0.010446148853819111,0.346
0.010552200625282705,0.347
0.010658855737814126,0.348
0.010765968538667714,0.349
0.010873384839775764,0.35
0.010980942677105024,0.351
0.011088473612060907,0.352
0.011195804606025164,0.353
0.011302760294917289,0.354
0.011409165266480377,0.355
0.01151484577565268,0.356
0.011619630290991268,0.357
0.011723348372405176,0.358
0.011825827794143925,0.359
0.011926891295486313,0.36
0.012026356093259182,0.361
0.01212403794793604,0.362
0.012219757872577924,0.363
0.012313348418440735,0.364
0.012404657828817956,0.365
0.012493551306661634,0.366
0.012579909079127278,0.367
0.012663621432377953,0.368
0.012744581750878005,0.369
0.01282268043851812,0.37
0.012897803534406484,0.371
0.012969836793164062,0.372
0.013038671960747194,0.373
0.01310421194863115,0.374
0.01316637370858645,0.375
0.013225088463749163,0.376
0.0132802990224895,0.377
0.013331954099737356,0.378
0.013380001328482667,0.379
0.013424383863878986,0.38
0.01346504412350281,0.381
0.013501931727378343,0.382
0.013535010075247975,0.383
0.013564258519671656,0.384
0.013589669286705462,0.385
0.013611240314861224,0.386
0.013628968747642727,0.387
0.013642850722565833,0.388
0.013652887569013006,0.389
0.01365909294679979,0.39
0.013661496340446274,0.391
0.013660141891254633,0.392
0.013655083357936902,0.393
0.013646376836804358,0.394
0.01363407425368645,0.395
0.013618221208153793,0.396
0.013598859831760825,0.397
0.01357603356007287,0.398
0.013549790849834497,0.399
0.01352018710161206,0.4
0.013487284991977341,0.401
0.013451153454183771,0.402
0.013411865523709201,0.403
0.013369495217804575,0.404
0.013324113566532302,0.405
0.013275784620804566,0.406
0.013224563802326233,0.407
0.01317050034087108,0.408
0.013113642460980441,0.409
0.013054042794305354,0.41
0.01299176261778562,0.411
0.012926874220203074,0.412
0.012859460868813205,0.413
0.01278961415415349,0.414
0.012717428888662919,0.415
0.012642997120139181,0.416
0.012566405050503136,0.417
0.012487735462707926,0.418
0.01240707354609366,0.419
0.01232451233807623,0.42
0.012240155954534279,0.421
0.012154120103307346,0.422
0.012066529699821157,0.423
0.011977513819351013,0.424
0.011887199604187307,0.425
0.011795708742823702,0.426
0.011703158802256652,0.427
0.011609667206114943,0.428
0.011515354279631152,0.429
0.01142034398669173,0.43
0.011324762539768943,0.431
0.01122873540307471,0.432
0.01113238364112287,0.433
0.011035821338423703,0.434
0.01093915550308256,0.435
0.010842487869442015,0.436
0.010745916725707056,0.437
0.010649537541382911,0.438
0.010553442149907643,0.439
0.010457716918029186,0.44
0.010362441266851574,0.441
0.010267688046201755,0.442
0.01017352557609283,0.443
0.010080019555436795,0.444
0.009987233265694558,0.445
0.00989522601517446,0.446
0.009804051660087304,0.447
0.00971375931805075,0.448
0.00962439594011392,0.449
0.00953600831993062,0.45
0.00944864272064111,0.451
0.00936234252408944,0.452
0.00927714662061761,0.453
0.00919309088577052,0.454
0.009110211687200843,0.455
0.009028548528435551,0.456
0.008948144134540795,0.457
0.008869041991740928,0.458
0.008791283161160368,0.459
0.00871490544567052,0.46
0.00863994603402789,0.461
0.008566445252213171,0.462
0.008494448564609814,0.463
0.008424005769462471,0.464
0.008355167892139685,0.465
0.008287983985824596,0.466
0.008222500701520455,0.467
0.0081587649069516,0.468
0.008096826606444143,0.469
0.008036739709829066,0.47
0.007978560253998342,0.471
0.007922343139534938,0.472
0.007868139357451141,0.473
0.007815995240576896,0.474
0.007765953219451093,0.475
0.0077180523785595825,0.476
0.0076723279334935425,0.477
0.007628810020472788,0.478
0.007587522861274421,0.479
0.007548484998001351,0.48
0.00751171015991493,0.481
0.007477207879497967,0.482
0.007444983443514907,0.483
0.007415037256238851,0.484
0.007387364178364312,0.485
0.007361953780087733,0.486
0.007338791950356697,0.487
0.007317863314032296,0.488
0.007299153591067203,0.489
0.007282651305282897,0.49
0.007268348490262513,0.491
0.007256240227590664,0.492
0.00724632306227206,0.493
0.007238592549288573,0.494
0.007233040690547831,0.495
0.007229654586127208,0.496
0.007228416805679151,0.497
0.007229306282859625,0.498
0.007232298400722254,0.499
0.007237364130372772,0.5
0.007244468858514,0.501
0.007253571625511267,0.502
0.007264625294621137,0.503
0.007277578052864141,0.504
0.00729237641057035,0.505
0.007308969187038302,0.506
0.007327311317347915,0.507
0.007347366148519778,0.508
0.007369105179925774,0.509
0.007392504933664354,0.51
0.007417542465702631,0.511
0.007444193069141089,0.512
0.00747243199597579,0.513
0.007502237582462941,0.514
0.0075335923877925875,0.515
0.007566481545004492,0.516
0.0076008895006160785,0.517
0.0076367973995674744,0.518
0.0076741828825342565,0.519
0.0077130217113772995,0.52
0.007753289265413314,0.521
0.007794960725726079,0.522
0.007838009831159296,0.523
0.00788240682827699,0.524
0.007928117079551699,0.525
0.007975101538311104,0.526
0.008023318571347792,0.527
0.008072725622120339,0.528
0.008123279768614801,0.529
0.008174936966068932,0.53
0.008227650245407711,0.531
0.008281367883487599,0.532
0.008336033001197582,0.533
0.0083915849089382,0.534
0.008447960795180337,0.535
0.008505096136789726,0.536
0.008562923528463136,0.537
0.00862137158480052,0.538
0.008680366306548578,0.539
0.008739835231472703,0.54
0.008799712248583539,0.541
0.008859940846519105,0.542
0.00892047467296822,0.543
0.008981275123701277,0.544
0.00904230667191265,0.545
0.00910353240335102,0.546
0.009164912916365472,0.547
0.009226408966395818,0.548
0.009287984863393169,0.549
0.009349609868191056,0.55
0.009411257003683962,0.551
0.009472899928626356,0.552
0.00953450906770617,0.553
0.009596048420101342,0.554
0.009657473943804834,0.555
0.009718733743415664,0.556
0.009779770146957288,0.557
0.009840523353535947,0.558
0.009900935528866658,0.559
0.009960953972751426,0.56
0.01002053236450764,0.561
0.010079629660094121,0.562
0.010138206773562829,0.563
0.010196222262033516,0.564
0.010253629834446797,0.565
0.010310379872980986,0.566
0.010366423943422808,0.567
0.010421719778442388,0.568
0.010476235270188603,0.569
0.010529950843153599,0.57
0.010582859722723633,0.571
0.010634965820541515,0.572
0.010686279326424025,0.573
0.01073681104401945,0.574
0.01078656818349547,0.575
0.010835554284662359,0.576
0.010883772774901311,0.577
0.010931231221229338,0.578
0.01097794417689019,0.579
0.011023934116067073,0.58
0.011069230469203998,0.581
0.011113866825069062,0.582
0.011157876662828463,0.583
0.011201289149414161,0.584
0.011244127582923279,0.585
0.011286411203302838,0.586
0.011328157805592234,0.587
0.011369384344585037,0.588
0.011410104956824096,0.589
0.011450327946183279,0.59
0.011490054216261947,0.591
0.011529277826030488,0.592
0.011567986521981708,0.593
0.011606160828973096,0.594
0.011643773615964002,0.595
0.011680792311105886,0.596
0.01171718278188273,0.597
0.011752912404101567,0.598
0.011787950983780248,0.599
0.01182226933656709,0.6
0.011855835979152884,0.601
0.011888613437975329,0.602
0.01192055658753395,0.603
0.011951614017396424,0.604
0.011981730737662922,0.605
0.012010850257132394,0.606
0.012038915588186762,0.607
0.012065869484235905,0.608
0.012091654249021462,0.609
0.012116211387929598,0.61
0.012139481252899164,0.611
0.012161402719541416,0.612
0.012181912852513988,0.613
0.012200946441933494,0.614
0.012218435188957716,0.615
0.012234306180353165,0.616
0.01224847979330457,0.617
0.012260868792252433,0.618
0.012271380883099071,0.619
0.012279924798223407,0.62
0.01228641790690862,0.621
0.012290793262270958,0.622
0.012293004495188352,0.623
0.012293027327180375,0.624
0.012290857049029517,0.625
0.01228650206920539,0.626
0.012279975382061846,0.627
0.012271288785423098,0.628
0.012260454337066417,0.629
0.012247491892535564,0.63
0.012232437663547103,0.631
0.01221535016652053,0.632
0.012196312300919564,0.633
0.01217542929988985,0.634
0.01215282291052773,0.635
0.01212862290287922,0.636
0.012102958685328145,0.637
0.012075955472987183,0.638
0.01204773674876185,0.639
0.012018429436875635,0.64
0.011988167572835318,0.641
0.011957093231685385,0.642
0.011925355029829452,0.643
0.011893104751295408,0.644
0.011860492809236416,0.645
0.011827663917354037,0.646
0.011794755210829021,0.647
0.011761897803461577,0.648
0.011729220042326446,0.649
0.011696850217407599,0.65
0.011664917777602063,0.651
0.01163355273431833,0.652
0.011602883150892682,0.653
0.011573031812516428,0.654
0.011544114843781721,0.655
0.011516243799767808,0.656
0.011489529086822456,0.657
0.011464081667935933,0.658
0.011440012016649565,0.659
0.011417427063618838,0.66
0.011396427075146407,0.661
0.011377104371258889,0.662
0.011359543754797832,0.663
0.01134382287236166,0.664
0.011330011489731794,0.665
0.011318170261286226,0.666
0.011308350067370975,0.667
0.011300592246398131,0.668
0.011294929196313409,0.669
0.011291384904434366,0.67
0.011289975405349857,0.671
0.011290709154422573,0.672
0.011293587112126179,0.673
0.011298602357192131,0.674
0.01130573930188659,0.675
0.011314972884595726,0.676
0.011326268231203028,0.677
0.011339581102835434,0.678
0.011354859049939083,0.679
0.011372042746755509,0.68
0.01139106669282746,0.681
0.011411858741197455,0.682
0.01143433923201589,0.683
0.011458421752987738,0.684
0.011484016496001661,0.685
0.011511034897111382,0.686
0.011539393706093687,0.687
0.011569017489703765,0.688
0.011599839123214899,0.689
0.011631798047929017,0.69
0.011664836344656163,0.691
0.011698893743384143,0.692
0.011733904568256643,0.693
0.011769799048384271,0.694
0.011806507746486089,0.695
0.01184396604866386,0.696
0.011882117076827754,0.697
0.011920912772127144,0.698
0.011960313234059876,0.699
0.012000284423105552,0.7
0.012040794338934274,0.701
0.012081808390874157,0.702
0.012123286222321259,0.703
0.012165182442036907,0.704
0.012207450965302784,0.705
0.012250050268574997,0.706
0.012292947247973918,0.707
0.012336118603426262,0.708
0.012379549317938002,0.709
0.012423228311213372,0.71
0.012467142678935799,0.711
0.012511273889735153,0.712
0.01255559842243306,0.713
0.012600091193560425,0.714
0.0126447283592981,0.715
0.012689488047592087,0.716
0.012734349487663495,0.717
0.012779291518038544,0.718
0.012824291270183027,0.719
0.012869323313570014,0.72
0.012914358997693488,0.721
0.012959365402631583,0.722
0.013004303435744302,0.723
0.013049125681853796,0.724
0.013093776017129499,0.725
0.013138192246979971,0.726
0.013182310540748365,0.727
0.013226069696359411,0.728
0.013269414255695326,0.729
0.01331229604615997,0.73
0.01335467375709196,0.731
0.013396510226783894,0.732
0.013437767760679,0.733
0.013478403763649213,0.734
0.013518370298800333,0.735
0.013557618519963016,0.736
0.013596104896993432,0.737
0.013633795878469595,0.738
0.013670669742644812,0.739
0.013706715614102194,0.74
0.013741930060099666,0.741
0.013776311914921449,0.742
0.013809856562499848,0.743
0.013842552233407447,0.744
0.013874380683123062,0.745
0.013905321599292591,0.746
0.01393535777045316,0.747
0.013964478586090802,0.748
0.013992680697912676,0.749
0.014019965426612447,0.75
0.014046333580626137,0.751
0.014071780259518447,0.752
0.014096292817222926,0.753
0.014119851998240349,0.754
0.014142432739021321,0.755
0.014164002706919523,0.756
0.014184521286038363,0.757
0.014203942237933387,0.758
0.014222219005188394,0.759
0.014239309077270357,0.76
0.014255174950064921,0.761
0.014269781017549289,0.762
0.01428308860833011,0.763
0.014295054679468533,0.764
0.014305637272094005,0.765
0.014314803966326527,0.766
0.014322537652116454,0.767
0.014328837076542719,0.768
0.014333712050977427,0.769
0.014337175386295151,0.77
0.014339236762217177,0.771
0.014339902951584639,0.772
0.014339182457002553,0.773
0.014337088633693365,0.774
0.014333637753945605,0.775
0.014328843756436681,0.776
0.014322715875651681,0.777
0.014315262872010572,0.778
0.014306499746734655,0.779
0.01429645067678922,0.78
0.01428514591019369,0.781
0.014272615036924927,0.782
0.014258883139420161,0.783
0.014243974225262577,0.784
0.014227918471447724,0.785
0.014210757225534934,0.786
0.014192543288552354,0.787
0.014173336725486825,0.788
0.014153198007376638,0.789
0.014132182208410128,0.79
0.014110337490089117,0.791
0.014087706919916183,0.792
0.0140643298185761,0.793
0.01404024043635067,0.794
0.014015464923597561,0.795
0.013990019510205266,0.796
0.01396391168128488,0.797
0.013937142994997659,0.798
0.013909711356222642,0.799
0.01388161197568725,0.8
0.01385283696478625,0.801
0.013823373418951101,0.802
0.013793200670465024,0.803
0.013762289488534146,0.804
0.013730605742800639,0.805
0.013698117463516938,0.806
0.013664802283706635,0.807
0.013630653058282812,0.808
0.013595680195700599,0.809
0.013559909632715346,0.81
0.013523376347075731,0.811
0.01348611634420343,0.812
0.013448163706667793,0.813
0.01340955626625777,0.814
0.013370345382221784,0.815
0.013330603340473443,0.816
0.013290425724805315,0.817
0.013249928676157102,0.818
0.013209241907720725,0.819
0.013168499606846192,0.82
0.013127833182709398,0.821
0.013087369544898367,0.822
0.013047234322844782,0.823
0.013007555950092889,0.824
0.01296846775942515,0.825
0.012930107853147894,0.826
0.01289261749406321,0.827
0.012856138783253689,0.828
0.012820812200235702,0.829
0.012786774300813384,0.83
0.012754155659032877,0.831
0.012723079086232644,0.832
0.012693658198571269,0.833
0.012665996393480504,0.834
0.012640186176932747,0.835
0.01261630869042568,0.836
0.012594433422267867,0.837
0.012574618299774751,0.838
0.012556910238881546,0.839
0.012541345929632438,0.84
0.012527952639765,0.841
0.0125167490364479,0.842
0.012507746152175887,0.843
0.01250094862505857,0.844
0.012496356243015896,0.845
0.01249396561632974,0.846
0.012493771577818497,0.847
0.012495767784919433,0.848
0.012499946049863932,0.849
0.012506294158826106,0.85
0.012514792908926774,0.851
0.012525414619223305,0.852
0.012538124717622005,0.853
0.012552885109399626,0.854
0.012569657014587971,0.855
0.01258840220121358,0.856
0.01260908241103908,0.857
0.012631656988487575,0.858
0.012656079555466836,0.859
0.012682296243572862,0.86
0.012710247680431308,0.861
0.012739873780517814,0.862
0.01277111854962907,0.863
0.012803932942041043,0.864
0.012838274890265589,0.865
0.012874106266537521,0.866
0.012911387773488794,0.867
0.012950074800878179,0.868
0.012990117292248223,0.869
0.013031463070050322,0.87
0.013074061308228777,0.871
0.013117863944758886,0.872
0.013162824977466858,0.873
0.013208898557826651,0.874
0.013256037006072217,0.875
0.013304189689462441,0.876
0.013353303159107703,0.877
0.013403322219107915,0.878
0.013454191027179627,0.879
0.013505853188476871,0.88
0.013558250163484597,0.881
0.013611318187489264,0.882
0.013664985329225781,0.883
0.013719170989400334,0.884
0.013773788399976382,0.885
0.013828748413551858,0.886
0.013883962871932195,0.887
0.013939347012821736,0.888
0.013994820857038286,0.889
0.014050309540695721,0.89
0.014105742555233938,0.891
0.014161051834574506,0.892
0.014216168606226208,0.893
0.014271019348920846,0.894
0.014325522597566831,0.895
0.014379589035175753,0.896
0.014433125103398094,0.897
0.014486037557365421,0.898
0.014538236316983904,0.899
0.01458963443386263,0.9
0.014640144991409199,0.901
0.01468967624699834,0.902
0.014738128590233449,0.903
0.014785396121244621,0.904
0.014831371327915234,0.905
0.01487594933103821,0.906
0.014919029828766004,0.907
0.014960516448300733,0.908
0.015000313712056922,0.909
0.015038322404153055,0.91
0.015074435527877019,0.911
0.015108537819386458,0.912
0.015140509528967921,0.913
0.015170232107614454,0.914
0.015197593332767597,0.915
0.015222491012526772,0.916
0.0152448352660098,0.917
0.015264549612059192,0.918
0.015281571073417337,0.919
0.015295849156962086,0.92
0.015307343113932032,0.921
0.015316016663024115,0.922
0.015321831313599628,0.923
0.015324743713449902,0.924
0.015324711733234875,0.925
0.015321706717672834,0.926
0.01531572568917507,0.927
0.015306799544688974,0.928
0.015294995513787872,0.929
0.015280413382283569,0.93
0.01526317628509106,0.931
0.01524341830214923,0.932
0.015221273305451038,0.933
0.015196870419731376,0.934
0.015170336932096014,0.935
0.015141803643906313,0.936
0.015111408128323166,0.937
0.015079295226949717,0.938
0.015045615752102826,0.939
0.015010524334442114,0.94
0.014974177121069951,0.941
0.01493672970797829,0.942
0.014898335381779988,0.943
0.014859143522265975,0.944
0.014819297930441164,0.945
0.014778934903437627,0.946
0.014738181045027067,0.947
0.014697151229381995,0.948
0.014655947605950874,0.949
0.01461466000316177,0.95
0.014573366938776571,0.951
0.014532136406039326,0.952
0.01449102639835361,0.953
0.014450085482490518,0.954
0.014409353619396279,0.955
0.014368863188021604,0.956
0.014328639894995152,0.957
0.014288703077765967,0.958
0.014249064915669444,0.959
0.01420972868060384,0.96
0.014170687584210728,0.961
0.01413192616027352,0.962
0.014093424127925663,0.963
0.014055160686994328,0.964
0.01401711709106733,0.965
0.013979276010709255,0.966
0.013941617995841449,0.967
0.013904119016193773,0.968
0.013866753619915087,0.969
0.013829502815659332,0.97
0.01379236144609173,0.971
0.01375534105164517,0.972
0.013718467133721775,0.973
0.013681771954187873,0.974
0.013645286810171483,0.975
0.013609039353096451,0.976
0.013573057585148722,0.977
0.013537376209930282,0.978
0.013502040688592818,0.979
0.013467107665160563,0.98
0.01343264221678393,0.981
0.013398712887172126,0.982
0.01336538583665475,0.983
0.013332719948604485,0.984
0.013300764807129307,0.985
0.01326956180994371,0.986
0.013239146738369938,0.987
0.013209552360688154,0.988
0.013180810850294787,0.989
0.013152956000617284,0.99
0.01312602487779358,0.991
0.013100058397753281,0.992
0.013075100436930788,0.993
0.013051195392162047,0.994
0.013028384481740032,0.995
0.013006702075347702,0.996
0.012986174649892733,0.997
0.012966823913360858,0.998
0.012948672573346262,0.999
0.01293175017419564,1.0
0.012916097379669972,1.001
0.012901767645750444,1.002
0.012888825540555959,1.003
0.012877341604344032,1.004
0.012867385544753316,1.005
0.012859022361077025,1.006
0.01285231451941983,1.007
0.012847327452964439,1.008
0.012844133515237402,1.009
0.012842812149277096,1.01
0.012843446298616345,1.011
0.012846116794455938,1.012
0.012850898443901306,1.013
0.012857860389744348,1.014
0.01286706892392057,1.015
0.012878589221279633,1.016
0.012892484539298088,1.017
0.012908813458115306,1.018
0.012927627010860076,1.019
0.012948968134255412,1.02
0.01297287419589955,1.021
0.012999380806496446,1.022
0.013028524707701716,1.023
0.013060344547911789,1.024
0.013094878998132985,1.025
0.013132162947554381,1.026
0.013172224951043301,1.027
0.013215088853261144,1.028
0.013260778330628189,1.029
0.013309320561760275,1.03
0.013360746689983594,1.031
0.013415088834914763,1.032
0.013472375210356649,1.033
0.01353262677211506,1.034
0.013595857844475178,1.035
0.013662079246341715,1.036
0.013731300776661664,1.037
0.013803531585161368,1.038
0.013878778502830027,1.039
0.013957042905863882,1.04
0.014038317312023622,1.041
0.014122583631795839,1.042
0.014209813918632524,1.043
0.014299972133664378,1.044
0.014393015063516522,1.045
0.014488891810880207,1.046
0.014587542160901685,1.047
0.014688894860113561,1.048
0.014792867257285475,1.049
0.01489936663807518,1.05
0.015008291971598189,1.051
0.015119534685122048,1.052
0.015232978023941664,1.053
0.015348495260507638,1.054
0.01546594751726162,1.055
0.01558518217748175,1.056
0.01570603225940853,1.057
0.01582831651478323,1.058
0.01595184015797893,1.059
0.016076395958960366,1.06
0.016201764701298887,1.061
0.016327714658113977,1.062
0.01645400215829569,1.063
0.016580375857450515,1.064
0.01670658460697612,1.065
0.016832386799450687,1.066
0.016957559100143065,1.067
0.01708190255627681,1.068
0.01720524407772267,1.069
0.01732743186760503,1.07
0.01744832551004055,1.071
0.01756778639073367,1.072
0.017685677111849422,1.073
0.017801872066887187,1.074
0.017916271934363726,1.075
0.018028814291122255,1.076
0.01813947752388405,1.077
0.01824827823537312,1.078
0.01835526348721266,1.079
0.018460499769217292,1.08
0.018564060526915765,1.081
0.018666014910243063,1.082
0.018766422209850867,1.083
0.018865334138351633,1.084
0.01896280129531864,1.085
0.019058879027635568,1.086
0.01915363093652873,1.087
0.019247129786983987,1.088
0.019339455705195012,1.089
0.01943069185726492,1.09
0.019520918283622946,1.091
0.019610205401419487,1.092
0.01969860953892951,1.093
0.01978617181099152,1.094
0.019872918963551815,1.095
0.0199588640615333,1.096
0.020044006439615902,1.097
0.020128331370989194,1.098
0.020211809680544906,1.099
0.020294396971532434,1.1
0.02037603261667392,1.101
0.0204566405247234,1.102
0.02053613386328897,1.103
0.020614423157881284,1.104
0.020691425130350802,1.105
0.020767069659259535,1.106
0.020841302736001655,1.107
0.02091408405106122,1.108
0.02098537916641951,1.109
0.021055149550075657,1.11
0.021123347976547385,1.111
0.02118992379313563,1.112
0.021254833570941038,1.113
0.021318050446961327,1.114
0.021379569784550218,1.115
0.021439411248976296,1.116
0.021497617711834834,1.117
0.021554251483266045,1.118
0.021609388308466173,1.119
0.021663109432181037,1.12
0.021715492726632667,1.121
0.021766606402479557,1.122
0.02181650994048779,1.123
0.02186526267933077,1.124
0.021912935409366587,1.125
0.021959619973867493,1.126
0.022005433896300088,1.127
0.02205051836670368,1.128
0.022095029217930225,1.129
0.022139124098448697,1.13
0.022182954097171095,1.131
0.02222666573080389,1.132
0.022270408956568524,1.133
0.022314342798542903,1.134
0.022358635030942608,1.135
0.022403456804025057,1.136
0.022448974482373214,1.137
0.022495341696305085,1.138
0.02254269492468148,1.139
0.022591153525543098,1.14
0.02264082157464046,1.141
0.022691788926206945,1.142
0.022744131225499287,1.143
0.02279790951065714,1.144
0.02285316991654469,1.145
0.02290994382755941,1.146
0.022968248586794925,1.147
0.02302808854429351,1.148
0.0230894559231046,1.149
0.023152330863716368,1.15
0.02321668014370456,1.151
0.023282454688703286,1.152
0.02334958731857425,1.153
0.023417992783527162,1.154
0.023487570358501523,1.155
0.02355820705404939,1.156
0.023629779545314825,1.157
0.023702154189382034,1.158
0.023775185320654528,1.159
0.023848712456098767,1.16
0.0239225573291263,1.161
0.0239965217154494,1.162
0.024070386785788187,1.163
0.02414391423189794,1.164
0.024216848745825238,1.165
0.024288920770804988,1.166
0.02435984801995521,1.167
0.024429334561322937,1.168
0.024497068708348356,1.169
0.02456272447509706,1.17
0.02462597023428959,1.171
0.024686482526668406,1.172
0.024743960070345263,1.173
0.02479813381814939,1.174
0.024848769703674157,1.175
0.024895661586225082,1.176
0.024938616548835935,1.177
0.02497744392593103,1.178
0.0250119605480695,1.179
0.025042010486892974,1.18
0.02506748608449786,1.181
0.025088340069210308,1.182
0.025104585668809482,1.183
0.025116285407040268,1.184
0.025123531277650022,1.185
0.025126422791884925,1.186
0.025125054347058768,1.187
0.02511951835657886,1.188
0.025109916866981264,1.189
0.02509637069950543,1.19
0.02507902210867517,1.191
0.0250580316713195,1.192
0.02503357120924378,1.193
0.02500581492792087,1.194
0.024974930829807715,1.195
0.024941073846325802,1.196
0.024904381228405197,1.197
0.024864969853487556,1.198
0.02482293472832784,1.199
0.024778348536740817,1.2
0.024731262907173715,1.201
0.024681711806941505,1.202
0.02462971640399071,1.203
0.02457529011208885,1.204
0.02451844239793549,1.205
0.024459179915703066,1.206
0.024397503810462483,1.207
0.02433340430010845,1.208
0.024266858030448292,1.209
0.024197833347990503,1.21
0.02412630160321922,1.211
0.02405224846677723,1.212
0.023975681000483653,1.213
0.023896628325027945,1.214
0.02381513477564344,1.215
0.023731248048016153,1.216
0.023645011603407585,1.217
0.02355646999059781,1.218
0.02346568402616379,1.219
0.023372745410771226,1.22
0.023277783862534956,1.221
0.0231809649340369,1.222
0.023082479222628263,1.223
0.02298252664869904,1.224
0.022881303888617477,1.225
0.022779002374703722,1.226
0.022675815003032004,1.227
0.022571942866563135,1.228
0.022467596341330824,1.229
0.02236299032379985,1.23
0.02225833602500998,1.231
0.022153833422117374,1.232
0.02204966857509026,1.233
0.021946016012293894,1.234
0.021843042171110747,1.235
0.021740906493858524,1.236
0.021639759536638718,1.237
0.021539739291016685,1.238
0.021440968719159636,1.239
0.02134355729992146,1.24
0.021247605825309174,1.241
0.02115321115862591,1.242
0.021060468505338756,1.243
0.020969470370336092,1.244
0.020880302494829625,1.245
0.02079303899011593,1.246
0.020707740750304723,1.247
0.020624458874493278,1.248
0.020543239790338983,1.249
0.02046412768283441,1.25
0.020387162417597242,1.251
0.020312374822747573,1.252
0.020239785092443684,1.253
0.02016940810522662,1.254
0.0201012619463532,1.255
0.0200353733250789,1.256
0.01997177688125901,1.257
0.01991050894238184,1.258
0.01985160025040646,1.259
0.019795074259658197,1.26
0.019740952490303502,1.261
0.019689261327426714,1.262
0.019640034668782204,1.263
0.019593311206640856,1.264
0.01954912780455376,1.265
0.01950751206141618,1.266
0.019468478155046803,1.267
0.019432027309104934,1.268
0.01939814978143881,1.269
0.01936682511636475,1.27
0.019338020367832925,1.271
0.019311688123134056,1.272
0.019287766713124523,1.273
0.019266183368964046,1.274
0.019246858718749756,1.275
0.01922971054462891,1.276
0.01921465542873494,1.277
0.01920160729848538,1.278
0.019190473360483077,1.279
0.019181151459839278,1.28
0.019173533600794237,1.281
0.019167515082235843,1.282
0.01916300403810247,1.283
0.019159926777492564,1.284
0.019158226838558924,1.285
0.01915785761733055,1.286
0.019158771801457076,1.287
0.01916091512840181,1.288
0.019164229134844654,1.289
0.01916865834088589,1.29
0.019174154774468728,1.291
0.019180677579839107,1.292
0.019188188887616253,1.293
0.019196647919710385,1.294
0.019206005265135766,1.295
0.019216198701752712,1.296
0.01922715114597003,1.297
0.019238770541418464,1.298
0.019250950876119766,1.299
0.019263573096356408,1.3
0.019276504891994097,1.301
0.01928960014488293,1.302
0.019302701092020414,1.303
0.01931564522985032,1.304
0.01932827523621166,1.305
0.01934044832468977,1.306
0.01935204200461722,1.307
0.0193629541226518,1.308
0.019373096157149598,1.309
0.019382382410955554,1.31
0.019390723654292636,1.311
0.019398032088637836,1.312
0.01940423374959231,1.313
0.01940927943911785,1.314
0.01941314944622843,1.315
0.01941585142173102,1.316
0.019417412357057576,1.317
0.019417866821520472,1.318
0.019417245953269907,1.319
0.01941557328686423,1.32
0.0194128691127419,1.321
0.019409158303113513,1.322
0.019404476260963394,1.323
0.019398871414610476,1.324
0.01939240427411286,1.325
0.01938514311476076,1.326
0.019377156744442067,1.327
0.019368506734458873,1.328
0.019359243846629928,1.329
0.019349410852606674,1.33
0.019339048055817553,1.331
0.019328196942498106,1.332
0.019316900716817145,1.333
0.019305202324604375,1.334
0.01929314081637308,1.335
0.019280746833926016,1.336
0.01926803828870161,1.337
0.019255018134775204,1.338
0.019241675448569785,1.339
0.019227988574876398,1.34
0.019213928143316888,1.341
0.019199458730162672,1.342
0.01918453869448961,1.343
0.019169118006051453,1.344
0.019153134851616748,1.345
0.019136513481818267,1.346
0.019119165329734324,1.347
0.019100992264408194,1.348
0.019081889129068077,1.349
0.019061743754860697,1.35
0.019040434566156964,1.351
0.01901782854939081,1.352
0.018993783509224184,1.353
0.018968155364462346,1.354
0.018940807286019854,1.355
0.018911616913261018,1.356
0.01888047908455488,1.357
0.018847302447812797,1.358
0.01881200099404524,1.359
0.018774487245135946,1.36
0.01873467521299352,1.361
0.018692492908693615,1.362
0.018647896317529663,1.363
0.018600877973987053,1.364
0.018551467884034695,1.365
0.018499727165783228,1.366
0.01844573606134901,1.367
0.01838958003078099,1.368
0.018331340748941872,1.369
0.018271097209101573,1.37
0.018208934370131394,1.371
0.01814495255796874,1.372
0.018079273460783044,1.373
0.018012041609650482,1.374
0.01794342131183121,1.375
0.01787358966152935,1.376
0.01780272703452961,1.377
0.017731007990872197,1.378
0.0176585968056187,1.379
0.017585649028807143,1.38
0.017512315533561,1.381
0.017438745228275893,1.382
0.017365085529014744,1.383
0.017291480967654704,1.384
0.017218070343183338,1.385
0.017144983085043947,1.386
0.017072336211164715,1.387
0.017000233429077947,1.388
0.01692876628919296,1.389
0.016858015474182836,1.39
0.016788050581840793,1.391
0.016718928766453162,1.392
0.016650694554259427,1.393
0.016583382509678474,1.394
0.01651702155036275,1.395
0.01645163850470279,1.396
0.0163872594339817,1.397
0.016323908052804793,1.398
0.016261602002077567,1.399
0.016200350573141002,1.4
0.016140157716999903,1.401
0.01608102972662325,1.402
0.016022983435531806,1.403
0.015966051300070675,1.404
0.01591028141092332,1.405
0.015855731803320915,1.406
0.01580246156192861,1.407
0.015750525722216593,1.408
0.0156999788842379,1.409
0.015650883687655655,1.41
0.015603317115878354,1.411
0.015557371509956754,1.412
0.015513150344147087,1.413
0.015470760442000681,1.414
0.015430304554062378,1.415
0.015391878693315403,1.416
0.015355574269886572,1.417
0.015321480436659573,1.418
0.01528968303038104,1.419
0.015260260847177477,1.42
0.015233283059482003,1.421
0.015208810182142108,1.422
0.015186896512247795,1.423
0.015167590580029299,1.424
0.015150933100921492,1.425
0.015136955253855647,1.426
0.015125680100930294,1.427
0.015117126466244746,1.428
0.015111312356084821,1.429
0.01510825604950331,1.43
0.01510797457002769,1.431
0.015110480119857285,1.432
0.015115776184009099,1.433
0.015123855995976402,1.434
0.015134704541283404,1.435
0.0151483023281964,1.436
0.0151646286416708,1.437
0.015183663275298137,1.438
0.015205386252119259,1.439
0.015229775091726235,1.44
0.015256800607161036,1.441
0.015286424879359705,1.442
0.015318604127532132,1.443
0.015353294261774285,1.444
0.0153904550396279,1.445
0.015430050936962885,1.446
0.01547204866119507,1.447
0.015516412254310757,1.448
0.015563098349417258,1.449
0.015612054980614173,1.45
0.015663224804965972,1.451
0.015716550024369245,1.452
0.015771976073760255,1.453
0.01582945290269315,1.454
0.01588893356525072,1.455
0.015950370179338324,1.456
0.01601370862087465,1.457
0.01607888542162191,1.458
0.01614582941446469,1.459
0.01621446636544877,1.46
0.016284723010034047,1.461
0.01635652863414508,1.462
0.016429813922794682,1.463
0.016504507533983612,1.464
0.016580531461794862,1.465
0.01665779659085578,1.466
0.016736199633622013,1.467
0.01681562186431058,1.468
0.01689592917599549,1.469
0.016976972478840915,1.47
0.01705858775873564,1.471
0.01714059635688041,1.472
0.01722280671848616,1.473
0.01730501786500268,1.474
0.01738702374304284,1.475
0.0174686175580472,1.476
0.017549595434910942,1.477
0.017629758789885944,1.478
0.017708914863454765,1.479
0.017786875093171225,1.48
0.01786345136480695,1.481
0.01793845069703729,1.482
0.018011670185899404,1.483
0.01808289527080915,1.484
0.018151902577809725,1.485
0.018218464968798916,1.486
0.018282355770333165,1.487
0.01834335095123111,1.488
0.018401229298144407,1.489
0.018455771469364043,1.49
0.01850675957163674,1.491
0.018553979062893817,1.492
0.01859722392934477,1.493
0.018636304245484143,1.494
0.018671053037409985,1.495
0.01870132797132216,1.496
0.018727004800231577,1.497
0.01874796718895159,1.498
0.018764106215017087,1.499
0.018775336489623533,1.5
0.018781619064529465,1.501
0.01878297697614203,1.502
0.01877949715998213,1.503
0.018771318915737044,1.504
0.018758612995730548,1.505
0.018741560302820506,1.506
0.018720341523791446,1.507
0.018695140356129084,1.508
0.01866615085101314,1.509
0.018633579998462775,1.51
0.018597644813132926,1.511
0.018558566763086145,1.512
0.018516566233902878,1.513
0.018471858871294086,1.514
0.018424654447774746,1.515
0.018375157770891114,1.516
0.01832357044842743,1.517
0.018270092191992292,1.518
0.01821492066581463,1.519
0.018158249435053488,1.52
0.0181002642676497,1.521
0.018041139316871183,1.522
0.01798103575882215,1.523
0.017920103844517143,1.524
0.0178584863572794,1.525
0.017796321178673257,1.526
0.017733742346343333,1.527
0.017670879879876,1.528
0.0176078587706304,1.529
0.017544797517583494,1.53
0.017481806528095965,1.531
0.017418986648518864,1.532
0.01735642801831294,1.533
0.017294209271236195,1.534
0.01723239681858786,1.535
0.01717104389484834,1.536
0.017110189854315144,1.537
0.01704986115419054,1.538
0.01699007466568599,1.539
0.016930842045044782,1.54
0.016872173251119085,1.541
0.016814077925506047,1.542
0.016756564071867187,1.543
0.016699634365884744,1.544
0.016643282093342513,1.545
0.01658748974935269,1.546
0.016532230968204536,1.547
0.016477472772789114,1.548
0.016423175251617052,1.549
0.016369289756392177,1.55
0.016315759845734124,1.551
0.016262526905899983,1.552
0.01620953703110815,1.553
0.01615674420932069,1.554
0.016104107499548794,1.555
0.016051584803600846,1.556
0.015999130979666397,1.557
0.015946705157626195,1.558
0.015894282580355402,1.559
0.015841863411292557,1.56
0.015789475139523654,1.561
0.015737168356632237,1.562
0.015685007031279806,1.563
0.015633056975347028,1.564
0.015581379390776659,1.565
0.015530033262833592,1.566
0.015479082080964124,1.567
0.015428598540572517,1.568
0.01537866534720463,1.569
0.015329373009864311,1.57
0.015280815962433856,1.571
0.015233088251464359,1.572
0.01518627957284171,1.573
0.015140471898354373,1.574
0.015095736713438524,1.575
0.015052133246566478,1.576
0.015009708311076128,1.577
0.014968497630870336,1.578
0.014928527614649535,1.579
0.01488981663167174,1.58
0.014852375429162451,1.581
0.014816206705655222,1.582
0.014781304084707167,1.583
0.014747650899552846,1.584
0.014715219234218094,1.585
0.014683969551198814,1.586
0.014653850998574188,1.587
0.014624802213955231,1.588
0.01459675225277526,1.589
0.014569621258052268,1.59
0.014543320641407748,1.591
0.014517752736043747,1.592
0.014492809976223594,1.593
0.014468373748154137,1.594
0.014444313523058437,1.595
0.014420487421171456,1.596
0.014396744905250641,1.597
0.014372931220790098,1.598
0.01434889285143142,1.599
0.014324483451727873,1.6
0.014299569593285176,1.601
0.014274035222761687,1.602
0.014247783309837475,1.603
0.014220733083330191,1.604
0.014192812847293096,1.605
0.01416395307973364,1.606
0.01413408748912761,1.607
0.014103163866067721,1.608
0.014071158062279142,1.609
0.01403808375702645,1.61
0.014003994946800222,1.611
0.013968980961793536,1.612
0.013933155343556297,1.613
0.013896642080154316,1.614
0.013859565458439133,1.615
0.01382204830217463,1.616
0.013784216268804623,1.617
0.013746201854936958,1.618
0.01370814465971369,1.619
0.01367018821313995,1.62
0.013632475001198914,1.621
0.013595141531962899,1.622
0.013558315113058638,1.623
0.013522113389281549,1.624
0.01348664670788086,1.625
0.01345202235153037,1.626
0.013418349018590054,1.627
0.013385739901900595,1.628
0.013354313279094917,1.629
0.013324190384246927,1.63
0.013295491119647418,1.631
0.013268329222346081,1.632
0.013242809611228751,1.633
0.013219029349229633,1.634
0.013197080539373287,1.635
0.013177052829627616,1.636
0.013159034799005027,1.637
0.013143114358555336,1.638
0.013129378367051059,1.639
0.013117911675522008,1.64
0.013108795804800117,1.641
0.01310210740233151,1.642
0.013097916516080874,1.643
0.013096284695103216,1.644
0.013097263333495649,1.645
0.013100893211444151,1.646
0.013107205615340763,1.647
0.013116224120334674,1.648
0.013127965899400748,1.649
0.013142442122300634,1.65
0.013159657453558458,1.651
0.013179608789410808,1.652
0.01320228360016072,1.653
0.013227658751940286,1.654
0.013255700756163955,1.655
0.013286367386487787,1.656
0.0133196096134975,1.657
0.013355372868079413,1.658
0.01339359713220263,1.659
0.013434215635989115,1.66
0.013477152759550925,1.661
0.013522323282312116,1.662
0.013569634744693549,1.663
0.013618991919265001,1.664
0.013670300980902668,1.665
0.013723471634539545,1.666
0.01377841616294504,1.667
0.013835045579227837,1.668
0.013893265695950011,1.669
0.013952976891523312,1.67
0.014014077650710178,1.671
0.014076467887338394,1.672
0.014140048679792204,1.673
0.014204718536944218,1.674
0.014270369424056876,1.675
0.014336885869300889,1.676
0.014404146521974949,1.677
0.014472024554551611,1.678
0.014540386073979955,1.679
0.014609090373575693,1.68
0.014677994851981159,1.681
0.014746962043617577,1.682
0.014815864374987992,1.683
0.014884584528265684,1.684
0.014953011349016386,1.685
0.015021033068860094,1.686
0.015088531953854338,1.687
0.01515538403943301,1.688
0.015221463240434942,1.689
0.015286646411259737,1.69
0.015350817543729378,1.691
0.015413871265720632,1.692
0.015475715863128393,1.693
0.015536275249037513,1.694
0.015595488681061226,1.695
0.01565330705616967,1.696
0.01570968582069994,1.697
0.015764577599210898,1.698
0.015817929822165237,1.699
0.0158696887641338,1.7
0.015919805211847507,1.701
0.015968236857687872,1.702
0.016014946546622076,1.703
0.016059897985707318,1.704
0.01610305120487744,1.705
0.0161443598177861,1.706
0.01618377105503121,1.707
0.016221228125158093,1.708
0.016256673355585942,1.709
0.016290050211413776,1.71
0.01632130270134486,1.711
0.016350371860128485,1.712
0.016377191471303183,1.713
0.016401687280598418,1.714
0.016423781535274216,1.715
0.016443399790960204,1.716
0.016460475920763426,1.717
0.016474953412829122,1.718
0.016486782482773254,1.719
0.0164959138918567,1.72
0.016502293159789905,1.721
0.016505860058144563,1.722
0.01650655404731063,1.723
0.01650432111079757,1.724
0.016499117511735627,1.725
0.016490908933548407,1.726
0.016479665214391495,1.727
0.01646535300272006,1.728
0.01644793180718301,1.729
0.01642735739131282,1.73
0.01640359003878496,1.731
0.016376602685604365,1.732
0.016346386247775534,1.733
0.016312951033352844,1.734
0.01627632344355761,1.735
0.016236538169296152,1.736
0.01619362938860532,1.737
0.016147627817223103,1.738
0.016098566611281152,1.739
0.016046490938994993,1.74
0.01599146475461253,1.741
0.01593357267190108,1.742
0.015872917444079704,1.743
0.015809614162865145,1.744
0.01574378242676141,1.745
0.015675538406599025,1.746
0.015604990259952036,1.747
0.015532239206483858,1.748
0.015457384179550993,1.749
0.015380526043791129,1.75
0.015301769279172258,1.751
0.01522122096832168,1.752
0.015138987762252995,1.753
0.015055171945753834,1.754
0.014969867865056056,1.755
0.01488315977774947,1.756
0.0147951216962844,1.757
0.014705819152816685,1.758
0.014615312187632248,1.759
0.014523658431257984,1.76
0.014430915036424139,1.761
0.014337138445786267,1.762
0.014242381755523524,1.763
0.014146691463309574,1.764
0.014050107338362892,1.765
0.013952667260792358,1.766
0.013854414627880673,1.767
0.013755404874040025,1.768
0.01365570933943995,1.769
0.013555415804575427,1.77
0.013454625457756136,1.771
0.013353446574855288,1.772
0.013251986912559846,1.773
0.013150349567969906,1.774
0.013048635521589665,1.775
0.01294695005719944,1.776
0.012845408037069987,1.777
0.01274413565967893,1.778
0.012643268492506103,1.779
0.012542946395308615,1.78
0.012443307221780081,1.781
0.012344482795681266,1.782
0.012246599281239648,1.783
0.012149779840561502,1.784
0.012054146059516515,1.785
0.011959816811397973,1.786
0.011866905435371543,1.787
0.011775517325697827,1.788
0.011685749485411158,1.789
0.011597691349718876,1.79
0.011511425138328656,1.791
0.011427025090668834,1.792
0.011344556249975633,1.793
0.011264073877274633,1.794
0.011185623912440006,1.795
0.011109243902114787,1.796
0.011034963727521812,1.797
0.010962805948395127,1.798
0.010892785753488654,1.799
0.010824910480365598,1.8
0.010759178836706879,1.801
0.010695580407669797,1.802
0.01063409613870554,1.803
0.010574699806386255,1.804
0.01051735987166919,1.805
0.010462041154783917,1.806
0.01040870598368508,1.807
0.010357314504455374,1.808
0.010307823842918817,1.809
0.010260186288076492,1.81
0.01021434793891648,1.811
0.01017024964907819,1.812
0.010127830201403034,1.813
0.010087029701682987,1.814
0.010047791328548612,1.815
0.010010060682723637,1.816
0.00997378293102343,1.817
0.009938899287162205,1.818
0.009905345459533855,1.819
0.009873053095911492,1.82
0.009841952294628592,1.821
0.009811972987746892,1.822
0.009783044680534838,1.823
0.009755094853703511,1.824
0.009728046618740672,1.825
0.009701816897255314,1.826
0.009676316523475,1.827
0.009651452256263399,1.828
0.009627129237957513,1.829
0.00960325253472924,1.83
0.009579727150427595,1.831
0.009556456334248422,1.832
0.009533338954013723,1.833
0.00951026831193229,1.834
0.009487134118984842,1.835
0.009463826275941925,1.836
0.009440237982092233,1.837
0.009416266957762804,1.838
0.009391814505651313,1.839
0.009366782589346515,1.84
0.009341070412182491,1.841
0.009314573604224994,1.842
0.009287187818876044,1.843
0.009258814854872188,1.844
0.009229368159285146,1.845
0.009198775745528994,1.846
0.009166979370768298,1.847
0.009133929783900742,1.848
0.009099580950094393,1.849
0.009063889127988488,1.85
0.009026819300604064,1.851
0.008988354340696777,1.852
0.008948500785954445,1.853
0.008907288494380376,1.854
0.00886476409894211,1.855
0.00882098143675096,1.856
0.008775996203867075,1.857
0.008729869047000589,1.858
0.008682672340472963,1.859
0.00863449378863111,1.86
0.008585434751104019,1.861
0.00853560453007817,1.862
0.008485113839790646,1.863
0.008434071729404316,1.864
0.008382587069757393,1.865
0.008330771118654068,1.866
0.008278737777780024,1.867
0.008226601235943315,1.868
0.008174472736127904,1.869
0.008122458978748496,1.87
0.008070663239208598,1.871
0.00801918762290759,1.872
0.007968134519760415,1.873
0.007917606714238344,1.874
0.007867706326293253,1.875
0.007818532896501787,1.876
0.0077701813726820754,1.877
0.007722741284940568,1.878
0.007676297682923064,1.879
0.007630932838637433,1.88
0.007586727425881083,1.881
0.007543760721305965,1.882
0.007502109924142045,1.883
0.007461848897089114,1.884
0.007423046732948276,1.885
0.00738576653439602,1.886
0.007350064666637146,1.887
0.007315990527767999,1.888
0.007283586743135279,1.889
0.007252889680898039,1.89
0.007223930141967721,1.891
0.007196734013092754,1.892
0.0071713226831786984,1.893
0.007147713067845761,1.894
0.007125917171678353,1.895
0.007105941453772754,1.896
0.007087786748248472,1.897
0.007071449287967795,1.898
0.0070569225092854855,1.899
0.0070441989489810454,1.9
0.007033271757441882,1.901
0.007024135475455322,1.902
0.007016785775907181,1.903
0.0070112180411562195,1.904
0.00700742521180795,1.905
0.007005396266704628,1.906
0.007005116488015171,1.907
0.0070065689086888676,1.908
0.007009735341511268,1.909
0.007014596094044127,1.91
0.007021128561440708,1.911
0.007029305698286701,1.912
0.007039095374368459,1.913
0.0070504604082823755,1.914
0.007063358447634537,1.915
0.007077742103964674,1.916
0.00709356030808632,1.917
0.007110760384388822,1.918
0.007129289417789012,1.919
0.00714909410343254,1.92
0.007170119207975759,1.921
0.007192305746982851,1.922
0.0072155904261872635,1.923
0.007239906715304624,1.924
0.007265186340783884,1.925
0.007291359989701654,1.926
0.007318356928091807,1.927
0.007346103711273005,1.928
0.007374522496466203,1.929
0.007403529883579228,1.93
0.007433036766846811,1.931
0.007462948499951011,1.932
0.007493164716644871,1.933
0.007523579491457955,1.934
0.007554082696011383,1.935
0.007584562067914801,1.936
0.007614904820208581,1.937
0.007644997977538593,1.938
0.00767472721988867,1.939
0.007703975359193562,1.94
0.007732623020029051,1.941
0.007760552957962432,1.942
0.00778765646161563,1.943
0.007813839111149355,1.944
0.007839023885730058,1.945
0.007863150389909592,1.946
0.007886169821224908,1.947
0.007908037880944598,1.948
0.007928711334262368,1.949
0.007948151768572458,1.95
0.007966332976434322,1.951
0.00798324649462131,1.952
0.007998903328171918,1.953
0.008013332147728865,1.954
0.008026574805930555,1.955
0.008038680273539236,1.956
0.008049698514289787,1.957
0.008059676458747916,1.958
0.008068657289017572,1.959
0.008076681628196294,1.96
0.008083788276642336,1.961
0.00809001357621813,1.962
0.00809538983918463,1.963
0.008099943670162665,1.964
0.00810369496347657,1.965
0.008106657099619961,1.966
0.00810883847066537,1.967
0.008110245055984266,1.968
0.00811088346235723,1.969
0.008110763699990744,1.97
0.008109900998508281,1.971
0.008108316165404876,1.972
0.00810603432709461,1.973
0.008103082286236078,1.974
0.00809948520063706,1.975
0.008095263896399701,1.976
0.008090434106914395,1.977
0.008085007582438172,1.978
0.00807899377284728,1.979
0.008072401068817937,1.98
0.008065237386025138,1.981
0.008057510141756053,1.982
0.008049225690018641,1.983
0.008040388348771355,1.984
0.008030999245945221,1.985
0.008021055275934778,1.986
0.008010548454727668,1.987
0.007999465880927547,1.988
0.007987790361832737,1.989
0.007975501568518947,1.99
0.007962577378804769,1.991
0.007948994907825144,1.992
0.007934730672776955,1.993
0.007919759470940969,1.994
0.007904052501906855,1.995
0.007887576852327527,1.996
0.007870297954850657,1.997
0.007852183869027543,1.998
0.007833209072037732,1.999
0.00781335639298686,2.0
0.007792616547910763,2.001
0.007770985222112044,2.002
0.007748458790763465,2.003
0.0077250314746629654,2.004
0.007700696184837115,2.005
0.007675447936022913,2.006
0.007649286921484312,2.007
0.007622219553014176,2.008
0.007594257166785114,2.009
0.007565412861883035,2.01
0.007535698195441765,2.011
0.0075051224136246705,2.012
0.007473695132970915,2.013
0.007441430376698063,2.014
0.007408349469383572,2.015
0.007374481781286263,2.016
0.007339863215216265,2.017
0.0073045327597016894,2.018
0.007268528551256812,2.019
0.007231886208717669,2.02
0.007194640808679011,2.021
0.007156830515946811,2.022
0.007118499237387718,2.023
0.007079697466433325,2.024
0.0070404816141329445,2.025
0.0070009124096356255,2.026
0.006961052998736481,2.027
0.006920967175549884,2.028
0.006880717845163319,2.029
0.006840365497093494,2.03
0.0067999667004891235,2.031
0.006759573525586836,2.032
0.006719234728777839,2.033
0.006678998006649641,2.034
0.006638911831755418,2.035
0.006599026036472709,2.036
0.006559391116325885,2.037
0.0065200566830159075,2.038
0.006481069663218448,2.039
0.00644247272457398,2.04
0.006404303225860732,2.041
0.006366592869052656,2.042
0.006329368015124234,2.043
0.0062926503541308396,2.044
0.006256457574877266,2.045
0.006220803768157894,2.046
0.006185699329812151,2.047
0.006151150425258207,2.048
0.006117158797534982,2.049
0.006083722842485308,2.05
0.00605083991077413,2.051
0.006018508986907342,2.052
0.005986732907531913,2.053
0.005955519488550789,2.054
0.005924881109226442,2.055
0.005894832610399704,2.056
0.005865388328101182,2.057
0.005836560499960095,2.058
0.005808360598041052,2.059
0.005780802342990521,2.06
0.005753904158184953,2.061
0.005727690030492365,2.062
0.005702188660904282,2.063
0.005677431114980493,2.064
0.0056534478306850666,2.065
0.00563026670109821,2.066
0.005607913248301219,2.067
0.0055864117460630485,2.068
0.005565785490762995,2.069
0.0055460558471635115,2.07
0.005527241267700168,2.071
0.005509357606198999,2.072
0.005492419571304552,2.073
0.005476442039573483,2.074
0.005461440343445754,2.075
0.0054474294636809775,2.076
0.005434422506490902,2.077
0.005422429135597203,2.078
0.005411454623574601,2.079
0.0054014995966732765,2.08
0.005392560160717088,2.081
0.005384628443668127,2.082
0.005377693628562079,2.083
0.00537174301517606,2.084
0.005366762470723433,2.085
0.005362735975177585,2.086
0.005359644778724318,2.087
0.00535746755943456,2.088
0.005356182392730417,2.089
0.005355769635334195,2.09
0.005356214266824946,2.091
0.005357506966570298,2.092
0.005359643909967214,2.093
0.0053626256631238685,2.094
0.0053664557191907694,2.095
0.005371139126710075,2.096
0.005376681415075904,2.097
0.0053830877596094786,2.098
0.005390362141205512,2.099
0.005398506305141023,2.1
0.00540751889889739,2.101
0.005417395794302294,2.102
0.005428132067391486,2.103
0.0054397248437398705,2.104
0.005452175835782408,2.105
0.005465492855717631,2.106
0.005479690013412577,2.107
0.005494786635209556,2.108
0.005510805246470024,2.109
0.00552776914706601,2.11
0.005545700117227493,2.111
0.005564616640953043,2.112
0.005584532822944095,2.113
0.005605458012003837,2.114
0.005627397061779802,2.115
0.005650351095679254,2.116
0.005674318519621211,2.117
0.005699295855592077,2.118
0.005725277863189752,2.119
0.005752256839526949,2.12
0.005780222160495207,2.121
0.005809161520586979,2.122
0.005839063835834299,2.123
0.005869922320061279,2.124
0.005901736397024325,2.125
0.005934511949898373,2.126
0.0059682600591346455,2.127
0.006002994787715589,2.128
0.006038730700960593,2.129
0.006075480653025618,2.13
0.00611325407720566,2.131
0.006152055791972231,2.132
0.006191885307708632,2.133
0.006232736645844502,2.134
0.00627459856821124,2.135
0.0063174550140235215,2.136
0.006361285629688281,2.137
0.006406066396009709,2.138
0.0064517703741366296,2.139
0.006498368556407113,2.14
0.006545830760570243,2.141
0.006594126453480915,2.142
0.006643225357857578,2.143
0.006693097706567677,2.144
0.00674371406098948,2.145
0.006795044676034278,2.146
0.006847058450667046,2.147
0.006899721549456083,2.148
0.0069529959215231365,2.149
0.007006838223560892,2.15
0.007061199630674977,2.151
0.00711602643132063,2.152
0.007171260867437178,2.153
0.007226841858605525,2.154
0.007282705510460538,2.155
0.007338785295163542,2.156
0.007395011685061171,2.157
0.007451311196121038,2.158
0.007507605556706248,2.159
0.007563812220816223,2.16
0.007619846489528841,2.161
0.007675624054656745,2.162
0.007731062493963492,2.163
0.007786080798574945,2.164
0.007840597181181071,2.165
0.00789452748587272,2.166
0.007947786906015166,2.167
0.008000294785468919,2.168
0.008051979806995955,2.169
0.008102783356914034,2.17
0.008152660215634861,2.171
0.008201576495196476,2.172
0.008249505217885212,2.173
0.008296420876927129,2.174
0.008342295797640181,2.175
0.008387100505597031,2.176
0.008430806982979131,2.177
0.00847339194702071,2.178
0.008514838588707241,2.179
0.008555136693316588,2.18
0.008594281545213226,2.181
0.008632272108816222,2.182
0.008669108952108706,2.183
0.008704792279545598,2.184
0.008739320296344808,2.185
0.008772687950477934,2.186
0.00880488591495766,2.187
0.008835899526456489,2.188
0.008865707682172689,2.189
0.008894282553269675,2.19
0.008921591052541476,2.191
0.008947597762317041,2.192
0.008972268193255783,2.193
0.008995571370746826,2.194
0.009017480939038447,2.195
0.009037974141444487,2.196
0.009057028817904288,2.197
0.009074620436932716,2.198
0.009090722248577203,2.199
0.009105309238873873,2.2
0.009118363169703077,2.201
0.009129875685438759,2.202
0.00913984806676915,2.203
0.009148287517796259,2.204
0.009155202197370472,2.205
0.009160599811240452,2.206
0.009164492231594112,2.207
0.009166902722526972,2.208
0.009167870879321034,2.209
0.009167453138234766,2.21
0.009165718784278545,2.211
0.009162743074091624,2.212
0.009158601432163516,2.213
0.00915336841846837,2.214
0.009147120672876803,2.215
0.009139939760722565,2.216
0.0091319123702311,2.217
0.00912312801450934,2.218
0.009113675416372263,2.219
0.009103638907154231,2.22
0.009093096078229205,2.221
0.009082117043244808,2.222
0.009070764419574585,2.223
0.009059093129343405,2.224
0.009047150214964137,2.225
0.009034975241526843,2.226
0.009022601208148025,2.227
0.00901005547220862,2.228
0.008997360409186009,2.229
0.008984533808083471,2.23
0.008971589087752476,2.231
0.008958535396403252,2.232
0.008945377579611382,2.233
0.008932115918020301,2.234
0.008918745479736978,2.235
0.008905255155367341,2.236
0.008891627138071389,2.237
0.008877837877441704,2.238
0.008863860612532318,2.239
0.008849668596050466,2.24
0.00883523802612496,2.241
0.008820549962669365,2.242
0.008805590707413161,2.243
0.008790350394274893,2.244
0.00877481992904606,2.245
0.008758987520677483,2.246
0.008742837501162547,2.247
0.008726353016522108,2.248
0.008709520853099645,2.249
0.008692335594287559,2.25
0.008674801574540794,2.251
0.008656932004275667,2.252
0.008638745212751103,2.253
0.008620259753821977,2.254
0.008601492406609245,2.255
0.008582461314887352,2.256
0.00856319142670509,2.257
0.008543718082325168,2.258
0.00852408709856305,2.259
0.008504351534153767,2.26
0.008484566536212806,2.261
0.008464785131814343,2.262
0.00844505739794966,2.263
0.008425432334146627,2.264
0.008405959739463169,2.265
0.008386690525385482,2.266
0.008367675595066584,2.267
0.008348963983409733,2.268
0.008330600933070097,2.269
0.008312626420288738,2.27
0.008295074404711701,2.271
0.008277972817280288,2.272
0.008261344074275347,2.273
0.008245205770899336,2.274
0.008229571208142264,2.275
0.008214449536387051,2.276
0.008199845489747329,2.277
0.008185758838054938,2.278
0.00817218372734581,2.279
0.008159108008308444,2.28
0.008146512645959798,2.281
0.008134371548649044,2.282
0.008122652287047808,2.283
0.008111317840652383,2.284
0.008100329125197208,2.285
0.008089647920091286,2.286
0.008079239701587583,2.287
0.008069075745023645,2.288
0.008059133865801649,2.289
0.008049397405742136,2.29
0.008039852456514783,2.291
0.008030484194433482,2.292
0.008021274610254894,2.293
0.00801220364837581,2.294
0.008003253115596314,2.295
0.007994411059686055,2.296
0.007985674967059127,2.297
0.007977053022366594,2.298
0.007968563049446433,2.299
0.007960229111829878,2.3
0.007952076785533998,2.301
0.00794412983216361,2.302
0.007936410658392228,2.303
0.007928943619521229,2.304
0.007921758188008008,2.305
0.00791489017807889,2.306
0.007908380845664547,2.307
0.007902274337514231,2.308
0.007896614254271279,2.309
0.007891440606870272,2.31
0.007886788715115814,2.311
0.007882690369085572,2.312
0.007879175834638293,2.313
0.00787627523459595,2.314
0.007874018834582249,2.315
0.007872436272868787,2.316
0.007871554905324138,2.317
0.007871397805960427,2.318
0.007871982580164366,2.319
0.007873321826784936,2.32
0.007875424651572007,2.321
0.007878297985142032,2.322
0.007881947053904114,2.323
0.007886374973824436,2.324
0.007891581715567291,2.325
0.007897562809453746,2.326
0.007904308120122789,2.327
0.007911800914031897,2.328
0.00792001744241991,2.329
0.007928927262888984,2.33
0.007938494338542795,2.331
0.007948678750020522,2.332
0.007959438766649592,2.333
0.007970732939036452,2.334
0.007982521789514262,2.335
0.007994768673828336,2.336
0.008007439485340712,2.337
0.008020501051247369,2.338
0.008033918561029746,2.339
0.008047653408133069,2.34
0.008061663222823699,2.341
0.008075904308398689,2.342
0.008090334896957875,2.343
0.008104917707773784,2.344
0.008119621216073184,2.345
0.008134419497814299,2.346
0.008149290714015357,2.347
0.008164214515835695,2.348
0.008179168871669702,2.349
0.008194127201225901,2.35
0.008209056942093531,2.351
0.008223919781823096,2.352
0.008238672477046504,2.353
0.00825326727338219,2.354
0.008267651872537746,2.355
0.008281769283377597,2.356
0.008295557860077024,2.357
0.008308951740472716,2.358
0.008321881777265117,2.359
0.008334276921068515,2.36
0.00834606587377529,2.361
0.008357178687684028,2.362
0.008367547865355025,2.363
0.00837710847231864,2.364
0.008385796869458746,2.365
0.008393548209362032,2.366
0.008400294147578893,2.367
0.00840596293562612,2.368
0.008410482368212055,2.369
0.008413783783163575,2.37
0.008415805239764021,2.371
0.008416493135510522,2.372
0.008415802104345397,2.373
0.00841369321826135,2.374
0.008410130672694152,2.375
0.00840507779141454,2.376
0.008398494497506449,2.377
0.008390338213879169,2.378
0.00838056762763996,2.379
0.008369147110749521,2.38
0.008356050239433224,2.381
0.008341261736318408,2.382
0.008324777400363293,2.383
0.008306601734860546,2.384
0.008286743545832139,2.385
0.008265211514964572,2.386
0.008242013290144118,2.387
0.008217159411699374,2.388
0.008190669188864519,2.389
0.008162574937800782,2.39
0.008132923056722361,2.391
0.008101771824780588,2.392
0.008069186498256916,2.393
0.008035233474939231,2.394
0.007999976745059433,2.395
0.007963478530392304,2.396
0.007925802232000893,2.397
0.007887014699070317,2.398
0.007847186746668606,2.399
0.007806392229408297,2.4
0.007764706252033481,2.401
0.007722203085965399,2.402
0.007678954235609599,2.403
0.007635026919623808,2.404
0.007590483039115095,2.405
0.0075453785212321,2.406
0.007499762876178144,2.407
0.007453679047235394,2.408
0.007407163889830362,2.409
0.007360249419952713,2.41
0.007312964563893792,2.411
0.007265337021854452,2.412
0.007217394941048442,2.413
0.007169168138370739,2.414
0.00712068863148646,2.415
0.007071990287791402,2.416
0.007023107497734873,2.417
0.00697407308249754,2.418
0.006924916417730955,2.419
0.0068756632338996685,2.42
0.00682633743516938,2.421
0.006776963644784266,2.422
0.0067275690806712805,2.423
0.006678184219440761,2.424
0.006628842222948327,2.425
0.006579577348999029,2.426
0.006530422783727315,2.427
0.006481408453387143,2.428
0.006432559336681278,2.429
0.0063838945792619685,2.43
0.0063354274176895455,2.431
0.006287165728949724,2.432
0.006239112957936036,2.433
0.006191269172897898,2.434
0.006143632034587819,2.435
0.006096197480420231,2.436
0.006048959874490492,2.437
0.006001911389981053,2.438
0.005955041008819176,2.439
0.005908334567538689,2.44
0.005861776912680542,2.441
0.005815355421851201,2.442
0.005769063400004935,2.443
0.005722902451806612,2.444
0.005676883413517995,2.445
0.005631025650323883,2.446
0.005585354757891546,2.447
0.0055398991137183525,2.448
0.0054946866876528205,2.449
0.005449744123268954,2.45
0.005405098500973908,2.451
0.0053607798521295,2.452
0.005316822456028856,2.453
0.005273264390808925,2.454
0.005230145659555378,2.455
0.0051875056633963615,2.456
0.005145381243760571,2.457
0.005103806164166677,2.458
0.005062811590287396,2.459
0.0050224264073463806,2.46
0.004982676829966682,2.461
0.0049435857525369125,2.462
0.004905172725747961,2.463
0.0048674548942001525,2.464
0.004830448316954347,2.465
0.0047941689364010285,2.466
0.00475863287013198,2.467
0.004723855985473887,2.468
0.004689852865229362,2.469
0.004656635544431223,2.47
0.00462421273647295,2.471
0.004592589983950473,2.472
0.004561770308246943,2.473
0.0045317546638806196,2.474
0.00450254194728523,2.475
0.004474128642143769,2.476
0.004446508256778683,2.477
0.0044196708173811225,2.478
0.004393602810037186,2.479
0.004368287755298211,2.48
0.004343707152737347,2.481
0.0043198413869107765,2.482
0.0042966702975848915,2.483
0.004274173178778045,2.484
0.004252328107258203,2.485
0.0042311110380147095,2.486
0.004210495672759323,2.487
0.004190454593243912,2.488
0.004170960951881571,2.489
0.004151989761351253,2.49
0.00413351839020583,2.491
0.0041155262329928355,2.492
0.004097993651567254,2.493
0.004080900446719893,2.494
0.004064224454074313,2.495
0.004047941058707555,2.496
0.004032023816692581,2.497
0.004016445486018226,2.498
0.004001178732849298,2.499
0.0039861962446017946,2.5
0.003971470172431268,2.501
0.003956971140812862,2.502
0.003942667807146796,2.503
0.003928527907700601,2.504
0.003914520409161516,2.505
0.003900617488905644,2.506
0.0038867953020870634,2.507
0.003873033006838641,2.508
0.003859310602481117,2.509
0.003845607760178694,2.51
0.00383190527133693,2.511
0.0038181879189113435,2.512
0.0038044465923879533,2.513
0.0037906788008315335,2.514
0.0037768877578825922,2.515
0.0037630804795918474,2.516
0.003749265377562595,2.517
0.003735450000264702,2.518
0.0037216398991028977,2.519
0.0037078390493929373,2.52
0.0036940510262708083,2.521
0.0036802799382396187,2.522
0.003666530813901076,2.523
0.003652809514093373,2.524
0.0036391223016357505,2.525
0.0036254752119454876,2.526
0.003611873320933669,2.527
0.003598319954235757,2.528
0.0035848160053958715,2.529
0.0035713597752739567,2.53
0.003557947563992104,2.531
0.003544574688984566,2.532
0.003531236425830884,2.533
0.00351792857007476,2.534
0.0035046474402755977,2.535
0.0034913891979597373,2.536
0.003478148770808913,2.537
0.003464919430427397,2.538
0.0034516938802233443,2.539
0.003438466353418677,2.54
0.0034252345925848233,2.541
0.003412001024326745,2.542
0.003398772860945411,2.543
0.0033855611103238066,2.544
0.003372378729494246,2.545
0.003359238534626055,2.546
0.0033461519044686323,2.547
0.0033331288931458206,2.548
0.0033201791904332216,2.549
0.003307313013244803,2.55
0.0032945416167764027,2.551
0.0032818775461411326,2.552
0.0032693347825607203,2.553
0.0032569288460782353,2.554
0.0032446768070400352,2.555
0.0032325970991409422,2.556
0.003220709052498007,2.557
0.00320903215433922,2.558
0.0031975851397908405,2.559
0.00318638507682093,2.56
0.0031754466516637917,2.561
0.003164781823282733,2.562
0.003154399786204519,2.563
0.0031443069833782603,2.564
0.0031345070521748165,2.565
0.0031250008094670842,2.566
0.0031157863040146873,2.567
0.0031068588716798916,2.568
0.0030982113908776354,2.569
0.0030898350866567677,2.57
0.0030817208892718437,2.571
0.003073860993855684,2.572
0.003066250180304035,2.573
0.003058886479286417,2.574
0.003051770897574741,2.575
0.0030449061575995367,2.576
0.003038294960392608,2.577
0.003031939005940171,2.578
0.003025839573434455,2.579
0.003019998947779307,2.58
0.0030144214917738523,2.581
0.0030091138674352255,2.582
0.0030040844253627144,2.583
0.0029993419616756414,2.584
0.002994894372789192,2.585
0.0029907480674610694,2.586
0.002986908478463273,2.587
0.0029833809714754425,2.588
0.0029801712811545777,2.589
0.0029772851769297053,2.59
0.002974727600905527,2.591
0.0029725020234362106,2.592
0.0029706106818391093,2.593
0.0029690554658015353,2.594
0.0029678386475681987,2.595
0.002966962936911482,2.596
0.0029664308158527074,2.597
0.0029662435979751593,2.598
0.0029664010504695717,2.599
0.0029669019586490955,2.6
0.0029677450523520913,2.601
0.0029689295748933386,2.602
0.0029704553108457652,2.603
0.002972322209201292,2.604
0.00297452979387623,2.605
0.002977076522498781,2.606
0.0029799591714116335,2.607
0.0029831723190085835,2.608
0.0029867081237551284,2.609
0.002990556549446823,2.61
0.0029947058888833474,2.611
0.002999143288834228,2.612
0.0030038550822021367,2.613
0.003008826850637963,2.614
0.0030140432349996566,2.615
0.0030194876031285653,2.616
0.003025141725487479,2.617
0.0030309855748251627,2.618
0.003036997275568654,2.619
0.003043153126861643,2.62
0.003049427557386954,2.621
0.0030557929191724256,2.622
0.0030622192640599472,2.623
0.003068674438083084,2.624
0.0030751246068608565,2.625
0.003081534930953351,2.626
0.0030878700389146644,2.627
0.003094094087667004,2.628
0.003100170344703326,2.629
0.0031060606418738547,2.63
0.0031117255568095252,2.631
0.0031171258134602767,2.632
0.0031222243549256304,2.633
0.0031269881582545477,2.634
0.003131389176229039,2.635
0.003135404076006468,2.636
0.003139012656595656,2.637
0.0031421956012961634,2.638
0.0031449334348659912,2.639
0.003147207964801346,2.64
0.0031490051122601195,2.641
0.003150317278509811,2.642
0.003151144461688794,2.643
0.003151494081088764,2.644
0.0031513797019448756,2.645
0.003150819003811832,2.646
0.0031498313863524883,2.647
0.003148435802878004,2.648
0.0031466496924743184,2.649
0.0031444893212315165,2.65
0.003141970720724349,2.651
0.003139110304269323,2.652
0.0031359249510674934,2.653
0.0031324317544786542,2.654
0.0031286477160101375,2.655
0.003124589642839141,2.656
0.0031202743676509784,2.657
0.0031157192220941433,2.658
0.003110942548065292,2.659
0.003105963979183286,2.66
0.0031008042751509927,2.661
0.0030954846161808753,2.662
0.003090025526220286,2.663
0.003084446009207473,2.664
0.00307876351445769,2.665
0.0030729946417842324,2.666
0.0030671558941897507,2.667
0.0030612639533673996,2.668
0.0030553353816934153,2.669
0.0030493858810848543,2.67
0.0030434294135120595,2.671
0.0030374776312980228,2.672
0.003031539799394871,2.673
0.0030256228851623336,2.674
0.0030197314813900397,2.675
0.0030138676448647284,2.676
0.0030080309083325165,2.677
0.003002218533322667,2.678
0.002996425877745291,2.679
0.0029906467574033215,2.68
0.00298487372851342,2.681
0.002979098187631016,2.682
0.002973310158757475,2.683
0.0029674978787671137,2.684
0.0029616477909328183,2.685
0.002955745470862506,2.686
0.0029497771807839583,2.687
0.0029437313059386505,2.688
0.0029375991336610245,2.689
0.002931374693812714,2.69
0.0029250536038743047,2.691
0.002918631471921502,2.692
0.0029121032403181184,2.693
0.0029054643649071496,2.694
0.002898713031639833,2.695
0.0028918520580658415,2.696
0.0028848898163859426,2.697
0.0028778400101276014,2.698
0.0028707203655932473,2.699
0.002863550575453022,2.7
0.002856350276180637,2.701
0.0028491381350759953,2.702
0.0028419323644206405,2.703
0.00283475177870725,2.704
0.0028276164749726166,2.705
0.002820547946898243,2.706
0.002813568789884311,2.707
0.0028067021733141195,2.708
0.002799971227341037,2.709
0.0027933984429776735,2.71
0.0027870051462861186,2.711
0.0027808110881626298,2.712
0.0027748341771603943,2.713
0.0027690903594737304,2.714
0.0027635936181347382,2.715
0.0027583560360029493,2.716
0.0027533878550541828,2.717
0.0027486974666296265,2.718
0.0027442912776496895,2.719
0.002740173495513193,2.72
0.0027363460744253393,2.721
0.002732809042980277,2.722
0.00272956111040453,2.723
0.002726600278577711,2.724
0.002723924275365784,2.725
0.002721530721268361,2.726
0.002719417001814915,2.727
0.002717579871908717,2.728
0.0027160148695432335,2.729
0.002714715754765995,2.73
0.0027136743292399002,2.731
0.002712880768910934,2.732
0.002712324166295471,2.733
0.0027119929158618463,2.734
0.0027118748243834608,2.735
0.0027119570009651876,2.736
0.002712225650399167,2.737
0.002712665912417554,2.738
0.002713261845528001,2.739
0.002713996561000429,2.74
0.0027148524100889682,2.741
0.0027158110627415696,2.742
0.0027168533134326856,2.743
0.002717958632295585,2.744
0.0027191049066927347,2.745
0.0027202689515842364,2.746
0.0027214278290626694,2.747
0.0027225604833659637,2.748
0.002723649170068092,2.749
0.0027246803096154667,2.75
0.002725644519714334,2.751
0.002726535757201077,2.752
0.0027273497107715363,2.753
0.002728081992780002,2.754
0.0027287271738492243,2.755
0.002729279219903767,2.756
0.002729732617640581,2.757
0.0027300831909464383,2.758
0.002730328264919166,2.759
0.002730466223355707,2.76
0.0027304955960058145,2.761
0.0027304139719004704,2.762
0.0027302172248327415,2.763
0.0027298993027911286,2.764
0.0027294522647120746,2.765
0.002728866305442158,2.766
0.0027281301225230473,2.767
0.002727231960524682,2.768
0.002726161037494404,2.769
0.002724908804386841,2.77
0.0027234696904717692,2.771
0.002721841190631456,2.772
0.0027200232953114426,2.773
0.0027180174030910246,2.774
0.002715824967076167,2.775
0.0027134462947492324,2.776
0.0027108800466715873,2.777
0.0027081236143098584,2.778
0.0027051739579434866,2.779
0.002702028447331974,2.78
0.0026986855808756234,2.781
0.002695145603468579,2.782
0.002691411052521919,2.783
0.0026874872628447396,2.784
0.002683382824657191,2.785
0.0026791099130939883,2.786
0.0026746843314546078,2.787
0.002670125089417554,2.788
0.0026654534038642796,2.789
0.0026606912467872397,2.79
0.002655860050343158,2.791
0.002650980386333188,2.792
0.0026460727010659767,2.793
0.0026411583014727008,2.794
0.002636259887362914,2.795
0.0026314015211586672,2.796
0.0026266082243799286,2.797
0.0026219054433264835,2.798
0.0026173185995750467,2.799
0.002612872851856107,2.8
0.0026085930795873274,2.801
0.0026045039949446217,2.802
0.0026006302311282936,2.803
0.0025969962521956284,2.804
0.0025936259800338917,2.805
0.002590542196015363,2.806
0.002587766059379963,2.807
0.002585317113622922,2.808
0.0025832136963488753,2.809
0.00258147329795606,2.81
0.0025801125586087754,2.811
0.002579146910191177,2.812
0.0025785900598686976,2.813
0.002578453559623308,2.814
0.0025787466043511115,2.815
0.002579476081297929,2.816
0.002580646837293564,2.817
0.002582262029963331,2.818
0.002584323345031733,2.819
0.002586830927896428,2.82
0.0025897831349941795,2.821
0.002593176492953994,2.822
0.0025970060819843752,2.823
0.002601266044393257,2.824
0.0026059497890831723,2.825
0.0026110497374028404,2.826
0.002616556795677265,2.827
0.002622460051863519,2.828
0.002628747044952938,2.829
0.002635404371390104,2.83
0.002642418185461364,2.831
0.0026497743879186643,2.832
0.002657458466485087,2.833
0.0026654550027138163,2.834
0.002673747034476536,2.835
0.002682315748564156,2.836
0.0026911408175853656,2.837
0.0027002010917085506,2.838
0.0027094751573020267,2.839
0.002718941533314374,2.84
0.002728578453067644,2.841
0.0027383632806248686,2.842
0.0027482718683335228,2.843
0.0027582783806705743,2.844
0.00276835577395268,2.845
0.002778476499383455,2.846
0.0027886128922075338,2.847
0.0027987370139232626,2.848
0.002808820038803748,2.849
0.0028188316959727915,2.85
0.0028287403977954,2.851
0.002838514080509692,2.852
0.002848121167087507,2.853
0.0028575311143692952,2.854
0.002866714333271697,2.855
0.002875641457906341,2.856
0.0028842822785620117,2.857
0.0028926052091792992,2.858
0.002900577951267226,2.859
0.0029081689600689207,2.86
0.0029153488819246083,2.861
0.0029220915134604286,2.862
0.002928374116708236,2.863
0.0029341769996534175,2.864
0.0029394823514765278,2.865
0.0029442726605910354,2.866
0.0029485297085255872,2.867
0.0029522350787429793,2.868
0.002955371913471784,2.869
0.002957926836964141,2.87
0.00295989126498087,2.871
0.002961261807595485,2.872
0.002962039701835071,2.873
0.0029622293618613554,2.874
0.0029618364140062965,2.875
0.0029608661179932314,2.876
0.0029593231856604434,2.877
0.0029572130128929543,2.878
0.0029545433222436276,2.879
0.0029513253343294715,2.88
0.002947574168219876,2.881
0.002943308440751507,2.882
0.002938549144881516,2.883
0.0029333180391559553,2.884
0.0029276360916984405,2.885
0.002921522749872338,2.886
0.002914996244387135,2.887
0.0029080742438505917,2.888
0.0029007741969579903,2.889
0.0028931133204429275,2.89
0.0028851084856419693,2.891
0.0028767762351902294,2.892
0.00286813304690421,2.893
0.002859195807983772,2.894
0.002849982328513088,2.895
0.002840511654205038,2.896
0.002830803956145756,2.897
0.0028208798677669105,2.898
0.0028107594613992885,2.899
0.002800461616087884,2.9
0.002790004471024958,2.901
0.0027794066981267516,2.902
0.0027686887342682196,2.903
0.002757873423073102,2.904
0.0027469859701403088,2.905
0.0027360533523665908,2.906
0.0027251034329535003,2.907
0.0027141640457522343,2.908
0.002703262241046797,2.909
0.0026924237677178283,2.91
0.0026816727472685057,2.911
0.0026710314174246824,2.912
0.002660519906600315,2.913
0.0026501562508261163,2.914
0.002639956877617704,2.915
0.0026299374273450636,2.916
0.002620113550942594,2.917
0.0026105013736873912,2.918
0.002601117427986797,2.919
0.0025919780249280544,2.92
0.002583098393940122,2.921
0.0025744922425718344,2.922
0.0025661719963817452,2.923
0.002558149183612191,2.924
0.0025504343646766564,2.925
0.002543036661482309,2.926
0.002535963481712976,2.927
0.002529220823396523,2.928
0.0025228138501212053,2.929
0.002516747246673755,2.93
0.0025110252017466633,2.931
0.002505651068611298,2.932
0.0025006268401312295,2.933
0.002495952705756237,2.934
0.002491626909876388,2.935
0.002487645793104044,2.936
0.0024840037687583567,2.937
0.002480693347587378,2.938
0.0024777055109100835,2.939
0.0024750303799192827,2.94
0.002472657834796527,2.941
0.002470577810509056,2.942
0.0024687801581358706,2.943
0.0024672541061323858,2.944
